1702914997.00
64.000000
-0.00
-0.00
-0.00
-0.00
-0.00
-0.00
-0.00
-0.00
-0.00
-0.00
0.00
0.01
0.01
-0.00
-0.03
-0.05
-0.05
0.00
0.13
0.36
0.66
1.01
1.37
1.72
2.06
2.40
2.79
3.24
3.80
4.42
5.06
5.66
6.20
6.68
7.15
7.68
8.31
9.14
10.09
11.04
11.88
12.56
13.14
13.76
14.65
15.96
17.91
20.32
22.90
25.38
27.58
29.57
31.68
34.32
37.81
42.54
48.15
54.10
59.83
64.97
69.58
74.14
79.34
85.71
93.76
103.00
112.62
121.73
129.77
136.75
143.30
150.75
157.77
166.64
177.95
191.79
206.97
220.57
228.25
225.36
208.53
176.87
132.76
80.05
23.07
-34.94
-92.44
-149.16
-205.23
-260.37
-313.74
-363.87
-409.83
-450.91
-486.50
-515.74
-537.23
-549.22
-549.96
-538.37
-514.21
-478.67
-433.88
-382.45
-327.02
-269.84
-212.63
-156.66
-102.95
-52.37
-5.90
35.58
71.43
101.35
125.50
144.38
158.69
169.15
176.37
180.75
182.57
182.07
179.51
175.23
169.65
163.18
156.15
148.81
141.30
133.69
126.02
118.33
110.69
103.16
95.80
88.68
81.83
75.25
68.95
62.95
57.25
51.86
46.78
42.03
37.59
33.45
29.61
26.07
22.81
19.83
17.11
14.67
12.48
10.54
8.83
7.35
6.07
4.97
4.05
3.27
2.62
2.09
1.65
1.30
1.01
0.79
0.61
0.47
0.37
0.29
0.23
0.19
0.17
0.15
0.15
0.16
0.17
0.20
0.23
0.26
0.30
0.34
0.38
0.43
0.48
0.52
0.57
0.63
0.68
0.74
0.80
0.87
0.95
1.03
1.12
1.22
1.33
1.46
1.60
1.76
1.94
2.13
2.35
2.60
2.86
3.16
3.49
3.84
4.23
4.66
5.12
5.62
6.16
6.73
7.36
8.02
8.72
9.48
10.28
11.12
12.01
12.94
13.93
14.98
16.09
17.26
18.49
19.76
21.05
22.29
23.41
24.32
24.91
25.05
24.63
23.57
21.79
19.31
16.15
12.39
8.21
3.78
-0.72
-5.09
-9.17
-12.82
-15.92
-18.37
-20.12
-21.14
-21.46
-21.18
-20.44
-19.36
-18.09
-16.73
-15.32
-13.85
-12.28
-10.62
-8.91
-7.23
-5.64
-4.21
-2.94
-1.76
-0.52
0.99
2.75
4.71
6.68
8.46
9.85
10.80
11.47
12.19
13.44
15.20
17.37
19.60
21.42
22.41
22.47
21.87
21.24
21.39
22.44
24.21
26.13
27.40
27.26
25.41
22.19
18.38
15.05
12.38
10.21
7.88
4.25
-2.15
-13.02
-30.06
-54.92
-83.65
-112.84
-137.94
-154.37
-158.82
-150.68
-132.29
-108.07
-82.80
-59.81
-40.99
-26.14
-14.13
-3.98
4.69
11.88
17.70
22.70
27.78
33.11
38.51
43.24
46.23
46.60
44.11
39.34
33.42
27.74
23.01
19.45
16.68
13.92
10.36
5.55
-0.44
-7.09
-13.57
-19.27
-23.86
-27.41
-30.44
-33.70
-38.02
-44.02
-51.95
-61.45
-71.61
-80.89
-87.43
-89.46
-85.80
-76.30
-61.90
-44.38
-25.88
-8.28
7.24
20.28
31.08
40.11
47.76
54.19
59.31
63.06
65.50
66.90
67.67
68.13
68.45
68.63
68.55
68.14
67.44
66.58
65.70
64.78
63.63
61.94
59.34
55.60
50.74
44.96
38.67
32.37
26.42
21.08
16.28
11.77
7.18
2.18
-3.40
-9.47
-15.74
-21.81
-27.35
-32.21
-36.49
-40.55
-44.95
-50.32
-57.24
-65.93
-76.07
-86.59
-95.72
-101.30
-101.44
-95.15
-82.72
-65.65
-46.24
-26.81
-9.17
5.71
17.63
26.90
34.00
39.39
43.46
46.48
48.70
50.34
51.61
52.71
53.70
54.58
55.24
55.55
55.49
55.12
54.67
54.28
53.97
53.47
52.33
50.14
46.65
42.00
36.57
30.92
25.49
20.57
16.12
11.90
7.59
2.87
-2.42
-8.24
-14.35
-20.45
-26.21
-31.45
-36.25
-40.89
-45.93
-51.87
-59.09
-67.49
-76.43
-84.66
-90.56
-92.49
-89.24
-80.45
-66.81
-49.94
-31.92
-14.82
-0.10
11.60
20.34
26.67
31.17
34.28
36.19
37.07
37.11
36.68
36.25
36.26
36.89
38.07
39.52
40.84
41.72
41.96
41.49
40.27
38.25
35.38
31.63
27.09
21.93
16.42
10.74
4.95
-0.94
-6.95
-13.00
-18.93
-24.53
-29.68
-34.43
-39.09
-44.14
-50.16
-57.57
-66.35
-75.83
-84.61
-90.80
-92.56
-88.67
-79.04
-64.75
-47.69
-29.97
-13.33
1.20
13.34
23.25
31.24
37.61
42.48
45.97
48.24
49.57
50.33
50.85
51.37
51.95
52.48
52.75
52.62
52.08
51.24
50.24
49.14
47.76
45.76
42.82
38.75
33.70
28.14
22.56
17.32
12.41
7.53
2.25
-3.65
-10.11
-16.71
-22.92
-28.32
-32.76
-36.47
-40.01
-44.13
-49.57
-56.89
-66.14
-76.69
-87.15
-95.61
-100.06
-98.92
-91.63
-78.81
-62.13
-43.80
-25.91
-9.90
3.70
15.07
24.68
32.95
40.01
45.66
49.72
52.18
53.32
53.67
53.80
54.12
54.82
55.83
56.93
57.88
58.45
58.54
58.08
57.11
55.66
53.66
51.01
47.55
43.14
37.84
31.91
25.82
20.06
15.03
10.80
7.14
3.56
-0.43
-5.16
-10.62
-16.46
-22.23
-27.54
-32.25
-36.51
-40.73
-45.46
-51.24
-58.45
-67.16
-77.01
-87.03
-95.72
-101.25
-101.99
-96.96
-86.19
-70.81
-52.68
-33.91
-16.30
-0.98
11.63
21.70
29.66
35.95
40.84
44.43
46.81
48.18
48.93
49.53
50.34
51.48
52.73
53.73
54.18
54.05
53.60
53.15
52.85
52.51
51.68
49.82
46.59
42.04
36.56
30.75
25.21
20.31
16.08
12.27
8.42
4.15
-0.79
-6.31
-12.06
-17.55
-22.35
-26.27
-29.47
-32.53
-36.21
-41.31
-48.33
-57.20
-67.21
-77.02
-84.94
-89.33
-88.97
-83.36
-72.91
-58.70
-42.37
-25.65
-10.10
3.22
13.82
21.74
27.32
30.98
33.06
33.84
33.64
32.88
32.11
31.86
32.40
33.72
35.49
37.23
38.57
39.36
39.65
39.58
39.15
38.20
36.40
33.50
29.47
24.53
19.12
13.72
8.59
3.79
-0.88
-5.67
-10.75
-16.07
-21.37
-26.33
-30.76
-34.76
-38.73
-43.32
-49.11
-56.40
-64.85
-73.40
-80.36
-83.85
-82.38
-75.35
-63.33
-47.89
-31.10
-14.90
-0.59
11.27
20.78
28.26
33.99
38.04
40.46
41.37
41.12
40.27
39.43
39.04
39.31
40.13
41.22
42.27
43.00
43.32
43.20
42.69
41.74
40.16
37.70
34.16
29.56
24.18
18.50
12.98
7.87
3.14
-1.52
-6.40
-11.70
-17.35
-23.14
-28.73
-33.88
-38.53
-42.83
-47.19
-52.18
-58.37
-65.98
-74.65
-83.20
-89.89
-92.81
-90.51
-82.58
-69.76
-53.74
-36.59
-20.16
-5.60
6.58
16.43
24.21
30.18
34.61
37.73
39.82
41.16
42.04
42.61
42.99
43.23
43.39
43.62
44.04
44.72
45.56
46.30
46.47
45.63
43.49
40.07
35.73
31.00
26.39
22.12
18.08
13.90
9.26
4.08
-1.46
-6.94
-12.04
-16.65
-20.93
-25.18
-29.75
-34.87
-40.80
-47.70
-55.62
-64.24
-72.74
-79.80
-83.86
-83.67
-78.62
-69.05
-56.01
-41.00
-25.55
-10.89
2.10
12.99
21.60
27.99
32.38
35.09
36.53
37.13
37.32
37.44
37.69
38.09
38.58
39.00
39.30
39.49
39.63
39.72
39.59
38.99
37.62
35.35
32.19
28.35
24.11
19.65
15.11
10.46
5.65
0.61
-4.61
-9.90
-15.05
-19.79
-23.95
-27.60
-31.08
-35.12
-40.54
-48.04
-57.70
-68.72
-79.47
-87.83
-91.78
-90.13
-82.76
-70.70
-55.64
-39.46
-23.71
-9.45
2.81
12.91
20.90
26.87
31.00
33.51
34.74
35.12
35.13
35.18
35.56
36.33
37.42
38.62
39.73
40.50
40.78
40.43
39.39
37.58
35.00
31.66
27.59
22.93
17.85
12.58
7.32
2.19
-2.79
-7.73
-12.68
-17.67
-22.59
-27.33
-31.86
-36.37
-41.24
-46.98
-53.97
-62.20
-71.12
-79.56
-86.00
-88.87
-87.05
-80.20
-68.90
-54.50
-38.66
-23.02
-8.74
3.57
13.84
22.26
29.10
34.58
38.78
41.85
43.96
45.40
46.42
47.28
48.11
48.95
49.84
50.80
51.84
52.89
53.78
54.23
53.96
52.82
50.85
48.17
44.97
41.36
37.38
33.08
28.57
24.07
19.70
15.51
11.41
7.26
2.83
-1.98
-7.12
-12.30
-17.21
-21.74
-25.99
-30.18
-34.51
-39.24
-44.66
-51.05
-58.52
-66.83
-75.46
-83.29
-88.69
-89.78
-85.42
-75.49
-60.97
-43.56
-25.13
-7.73
7.27
19.45
29.65
38.38
45.91
52.24
57.52
62.10
65.50
67.39
67.91
68.69
70.10
71.93
73.61
75.18
77.25
79.20
80.59
81.50
84.07
88.13
92.38
94.79
94.13
89.74
79.23
60.70
33.86
2.69
-29.98
-61.63
-90.57
-115.42
-124.00
-110.41
-78.65
-54.36
-45.33
-53.40
-72.23
-98.49
-128.94
-160.24
-190.55
-217.09
-235.91
-241.29
-232.98
-215.17
-194.66
-176.90
-164.35
-157.46
-153.88
-149.71
-140.16
-124.71
-105.22
-83.36
-58.40
-27.95
9.50
54.09
104.38
158.34
210.85
252.44
274.93
276.97
263.97
243.25
220.73
199.64
181.15
164.06
146.43
127.07
105.68
82.54
59.23
37.19
19.36
9.21
8.67
17.04
31.25
45.94
54.16
49.24
29.52
-0.80
-34.28
-63.70
-86.31
-100.95
-107.75
-107.79
-102.64
-93.61
-81.96
-69.22
-57.04
-46.69
-38.21
-30.80
-22.19
-11.41
1.68
16.25
30.56
42.53
50.49
53.97
53.54
50.50
46.32
42.51
39.99
38.83
38.46
38.10
37.35
36.21
35.04
34.14
33.79
33.87
33.86
33.09
31.06
27.72
23.37
18.51
13.52
8.67
3.98
-0.70
-5.52
-10.54
-15.57
-20.34
-24.58
-28.22
-31.36
-34.31
-37.46
-41.28
-46.09
-51.96
-58.46
-64.70
-69.30
-70.79
-68.03
-60.68
-49.39
-35.66
-21.33
-7.95
3.65
13.43
21.76
29.02
35.25
40.15
43.44
45.04
45.34
44.97
44.53
44.34
44.35
44.33
44.04
43.50
42.83
42.28
41.91
41.63
41.15
40.15
38.38
35.67
32.07
27.71
22.86
17.84
12.96
8.50
4.58
1.20
-1.88
-4.99
-8.49
-12.56
-17.06
-21.54
-25.46
-28.50
-30.75
-32.82
-35.58
-39.80
-45.74
-53.05
-60.68
-67.21
-71.25
-71.67
-67.99
-60.42
-49.85
-37.55
-24.92
-13.08
-2.71
5.95
13.02
18.73
23.25
26.64
28.93
30.18
30.62
30.63
30.62
30.90
31.51
32.26
32.85
33.03
32.74
32.16
31.49
30.84
30.03
28.74
26.62
23.53
19.62
15.31
11.10
7.36
4.24
1.61
-0.84
-3.46
-6.48
-9.98
-13.83
-17.75
-21.44
-24.73
-27.63
-30.41
-33.48
-37.31
-42.26
-48.41
-55.40
-62.43
-68.22
-71.37
-70.65
-65.54
-56.45
-44.59
-31.66
-19.20
-8.15
1.22
9.12
15.77
21.18
25.10
27.27
27.72
26.94
25.71
24.88
25.02
26.20
28.16
30.35
32.28
33.64
34.41
34.74
34.86
34.93
34.94
34.77
34.17
32.98
31.08
28.57
25.64
22.54
19.50
16.59
13.77
10.85
7.62
3.92
-0.22
-4.63
-9.00
-13.02
-16.58
-19.73
-22.84
-26.44
-31.11
-37.26
-44.86
-53.33
-61.44
-67.64
-70.39
-68.76
-62.61
-52.78
-40.68
-27.91
-15.76
-4.91
4.46
12.55
19.59
25.68
30.73
34.60
37.21
38.68
39.33
39.54
39.67
39.94
40.37
40.93
41.52
42.09
42.62
43.07
43.31
43.18
42.50
41.10
38.95
36.07
32.59
28.72
24.76
20.96
17.60
14.78
12.38
10.11
7.52
4.26
0.20
-4.49
-9.36
-13.92
-17.80
-20.90
-23.44
-25.84
-28.62
-32.24
-37.00
-42.90
-49.60
-56.40
-62.26
-66.04
-66.71
-63.72
-57.09
-47.46
-35.88
-23.54
-11.53
-0.58
8.86
16.64
22.74
27.27
30.34
32.13
32.85
32.81
32.40
32.05
32.13
32.78
33.94
35.31
36.55
37.40
37.82
37.91
37.81
37.55
36.97
35.84
33.96
31.32
28.15
24.73
21.35
18.05
14.81
11.55
8.28
5.09
2.07
-0.77
-3.59
-6.57
-9.90
-13.56
-17.40
-21.18
-24.73
-28.01
-31.17
-34.49
-38.24
-42.66
-47.73
-53.18
-58.38
-62.42
-64.28
-63.10
-58.49
-50.60
-40.25
-28.67
-17.20
-6.98
1.30
7.40
11.48
13.93
15.13
15.48
15.31
14.90
14.50
14.35
14.63
15.44
16.75
18.47
20.31
21.94
22.96
23.10
22.29
20.68
18.55
16.26
14.03
11.92
9.77
7.37
4.53
1.16
-2.71
-6.94
-11.20
-15.22
-18.93
-22.33
-25.58
-28.82
-32.24
-36.08
-40.55
-45.68
-51.29
-56.87
-61.44
-63.78
-62.87
-58.25
-50.43
-40.58
-29.85
-19.34
-9.87
-1.78
4.91
10.28
14.35
16.68
17.03
16.18
14.97
13.91
13.48
13.91
15.08
16.51
16.72
14.60
11.19
7.65
4.57
2.64
2.17
2.80
3.52
1.68
-4.73
-14.20
-24.94
-35.84
-45.45
-52.46
-56.00
-55.58
-52.82
-49.30
-43.46
-35.25
-26.96
-20.71
-17.87
-18.72
-11.89
9.23
27.66
34.40
30.78
16.62
-5.62
-30.16
-49.29
-56.17
-49.40
-32.01
-7.43
18.64
39.92
53.07
57.60
54.73
46.10
32.21
14.23
-3.22
-15.84
-21.37
-18.93
-9.50
4.65
20.74
35.63
47.36
56.64
64.48
71.34
77.77
84.05
90.12
95.48
99.14
100.43
99.98
98.71
97.28
96.27
95.77
95.39
94.34
91.73
87.03
80.54
73.08
65.62
59.20
54.52
51.76
50.44
49.56
47.91
44.40
38.43
29.92
19.37
7.53
-4.82
-16.96
-28.25
-37.95
-45.32
-49.66
-50.72
-48.84
-44.98
-40.37
-36.06
-32.54
-29.67
-27.00
-24.11
-20.99
-17.92
-15.40
-13.69
-12.72
-12.07
-11.20
-9.69
-7.43
-4.66
-1.80
0.61
2.20
2.82
2.57
1.82
0.90
0.14
-0.38
-0.70
-1.03
-1.57
-2.49
-3.86
-5.55
-7.39
-9.21
-10.95
-12.69
-14.61
-16.87
-19.48
-22.36
-25.39
-28.52
-31.77
-35.06
-38.12
-40.44
-41.39
-40.53
-37.86
-33.83
-29.20
-24.69
-20.64
-17.08
-13.81
-10.64
-7.64
-5.05
-3.16
-2.03
-1.48
-1.10
-0.54
0.29
1.22
1.86
1.98
1.62
1.08
0.72
0.70
0.90
0.91
0.34
-1.04
-3.17
-5.70
-8.22
-10.39
-12.09
-13.41
-14.61
-16.01
-17.91
-20.44
-23.61
-27.24
-31.04
-34.66
-37.69
-39.77
-40.52
-39.74
-37.35
-33.51
-28.53
-22.86
-16.96
-11.17
-5.76
-0.83
3.54
7.34
10.48
12.93
14.67
15.71
16.15
16.10
15.71
15.13
14.52
14.00
13.63
13.39
13.16
12.79
12.11
11.01
9.38
7.26
4.78
2.21
-0.18
-2.18
-3.82
-5.35
-7.13
-9.54
-12.66
-16.29
-19.99
-23.34
-26.13
-28.51
-30.87
-33.70
-37.33
-41.70
-46.33
-50.40
-52.98
-53.35
-51.19
-46.68
-40.40
-33.11
-25.46
-17.93
-10.76
-4.05
2.06
7.41
11.79
15.04
17.16
18.32
18.84
19.09
19.37
19.81
20.34
20.76
20.84
20.46
19.76
19.03
18.56
18.50
18.67
18.71
18.16
16.68
14.31
11.39
8.42
5.84
3.86
2.31
0.85
-0.97
-3.38
-6.38
-9.72
-13.06
-16.08
-18.65
-20.88
-22.99
-25.35
-28.36
-32.33
-37.32
-43.05
-48.75
-53.33
-55.65
-54.90
-50.93
-44.29
-35.97
-27.03
-18.23
-9.84
-1.87
5.77
13.03
19.66
25.30
29.75
33.11
35.64
37.85
40.08
42.57
45.31
48.13
50.86
53.42
55.91
58.47
61.33
64.52
67.90
71.14
73.89
75.89
77.12
77.80
78.25
78.82
79.68
80.88
82.28
83.65
84.66
84.90
83.86
80.93
75.63
67.50
56.28
41.91
24.47
4.07
-19.16
-45.11
-73.65
-104.35
-136.38
-168.30
-198.22
-224.08
-244.15
-257.54
-264.30
-265.47
-262.55
-257.08
-250.27
-242.90
-235.49
-228.46
-222.40
-217.80
-214.92
-213.47
-212.57
-211.03
-207.72
-202.03
-194.00
-184.24
-173.56
-162.72
-152.17
-142.08
-132.51
-123.50
-115.21
-107.84
-101.47
-95.90
-90.74
-85.38
-79.39
-72.64
-65.45
-58.44
-52.22
-47.14
-43.01
-39.42
-35.97
-32.71
-30.25
-29.47
-30.95
-34.51
-39.08
-42.98
-44.65
-43.06
-38.15
-30.59
-21.43
-11.48
-1.36
8.62
18.25
27.21
35.36
43.00
50.95
59.87
69.54
78.06
82.30
79.26
67.83
49.85
29.73
12.62
2.17
-0.87
1.53
6.22
10.72
14.18
17.11
20.30
23.83
26.86
28.28
27.52
25.10
22.30
20.47
20.51
22.24
24.79
27.04
28.32
28.66
28.81
29.70
31.92
35.35
39.23
42.59
44.79
45.90
46.71
48.34
51.75
57.44
65.47
75.68
87.96
102.45
119.34
138.74
160.56
184.73
211.23
239.90
269.90
299.19
324.58
342.43
350.00
346.50
333.57
314.55
293.17
272.28
253.22
235.99
220.07
205.09
191.08
178.28
166.73
156.06
145.64
134.92
123.70
112.27
101.25
91.25
82.60
75.11
68.20
61.15
53.48
45.16
36.63
28.55
21.48
15.62
10.74
6.31
1.81
-3.06
-8.27
-13.51
-18.40
-22.69
-26.37
-29.71
-33.17
-37.22
-42.12
-47.85
-54.01
-59.88
-64.62
-67.46
-67.88
-65.75
-61.24
-54.85
-47.18
-38.88
-30.51
-22.55
-15.29
-8.88
-3.35
1.35
5.29
8.58
11.31
13.60
15.57
17.30
18.84
20.15
21.20
21.93
22.39
22.67
22.87
23.01
23.00
22.66
21.78
20.21
18.02
15.41
12.72
10.21
8.02
6.02
3.86
1.23
-2.11
-6.14
-10.60
-15.09
-19.22
-22.71
-25.52
-27.87
-30.21
-33.09
-36.95
-41.96
-47.87
-54.03
-59.55
-63.50
-65.19
-64.21
-60.48
-54.21
-45.84
-35.98
-25.41
-14.91
-5.20
3.28
10.31
15.96
20.47
24.06
26.93
29.21
30.92
32.16
32.98
33.54
33.96
34.45
35.13
36.11
37.36
38.72
39.89
40.57
40.48
39.51
37.84
35.77
33.70
31.94
30.51
29.15
27.38
24.72
20.84
15.80
9.95
3.80
-2.21
-7.86
-13.22
-18.53
-24.11
-30.17
-36.80
-43.94
-51.39
-58.76
-65.52
-70.99
-74.50
-75.49
-73.66
-68.99
-61.82
-52.77
-42.69
-32.57
-23.27
-15.41
-9.21
-4.48
-0.79
2.34
5.23
7.99
10.57
12.91
14.95
16.73
18.29
19.62
20.70
21.49
21.98
22.20
22.19
21.95
21.44
20.55
19.16
17.20
14.74
11.92
8.95
6.01
3.09
0.06
-3.27
-6.99
-11.00
-15.03
-18.82
-22.26
-25.48
-28.90
-32.90
-37.70
-43.22
-49.21
-55.28
-61.03
-66.02
-69.69
-71.37
-70.38
-66.34
-59.32
-49.91
-39.05
-27.71
-16.62
-6.19
3.38
11.96
19.37
25.45
30.19
33.82
36.77
39.50
42.33
45.28
48.21
50.89
53.21
55.22
57.09
59.00
61.02
63.07
64.90
66.30
67.07
67.16
66.67
65.83
64.94
64.39
64.51
65.56
67.65
70.64
74.28
78.29
82.56
87.24
92.72
99.59
108.34
119.37
132.90
148.87
166.88
186.00
204.79
221.49
234.58
243.32
248.09
250.21
251.32
252.67
254.54
256.24
256.62
254.59
249.72
242.26
232.91
222.33
210.71
197.69
182.47
164.13
142.16
116.61
88.17
57.73
26.13
-6.29
-39.76
-74.85
-112.23
-152.55
-196.38
-244.01
-294.96
-347.24
-397.01
-438.95
-467.73
-479.83
-475.04
-456.53
-429.58
-399.54
-370.06
-342.49
-316.58
-291.72
-267.93
-245.98
-226.79
-210.55
-196.52
-183.39
-170.06
-156.24
-142.53
-130.00
-119.40
-110.71
-103.09
-95.33
-86.39
-75.93
-64.45
-52.96
-42.63
-34.24
-28.01
-23.50
-19.85
-16.17
-11.90
-7.09
-2.38
1.42
3.74
4.63
4.67
4.69
5.27
6.43
7.69
8.44
8.33
7.42
6.14
4.98
4.26
3.97
3.94
3.99
4.01
4.01
3.92
3.60
2.80
1.39
-0.61
-2.92
-5.12
-6.85
-7.90
-8.43
-8.82
-9.56
-10.94
-12.90
-15.00
-16.54
-16.91
-15.73
-13.09
-9.39
-5.22
-1.15
2.42
5.28
7.41
8.92
9.98
10.74
11.31
11.61
11.54
11.02
10.07
8.86
7.63
6.65
6.13
6.20
6.87
8.03
9.44
10.73
11.57
11.71
11.15
10.03
8.62
7.11
5.64
4.33
3.32
2.77
2.65
2.79
2.75
2.18
0.90
-0.84
-2.64
-4.14
-5.24
-6.19
-7.36
-9.05
-11.24
-13.74
-16.21
-18.38
-20.06
-21.14
-21.56
-21.25
-20.19
-18.36
-15.85
-12.71
-9.04
-5.01
-0.86
3.01
6.26
8.67
10.31
11.46
12.49
13.69
15.07
16.41
17.39
17.80
17.68
17.38
17.36
18.03
19.53
21.66
23.94
25.91
27.29
28.10
28.57
28.93
29.20
29.17
28.58
27.23
25.23
22.92
20.68
18.82
17.35
16.06
14.72
13.15
11.33
9.31
7.12
4.74
2.14
-0.65
-3.44
-6.03
-8.32
-10.45
-12.67
-15.12
-17.63
-19.62
-20.35
-19.21
-15.98
-10.92
-4.61
2.33
9.41
16.30
22.69
28.28
32.82
36.27
38.89
41.20
43.70
46.69
50.08
53.56
56.87
60.04
63.47
67.73
73.26
80.20
88.28
96.99
105.62
113.27
118.73
120.49
117.04
107.34
91.55
71.26
49.28
28.78
12.39
1.41
-4.34
-5.99
-4.95
-2.32
1.22
5.19
8.82
10.86
9.77
4.26
-6.38
-22.11
-42.36
-66.54
-94.08
-124.21
-155.44
-185.24
-210.22
-227.09
-233.80
-230.29
-218.48
-201.42
-182.11
-162.63
-143.99
-126.55
-110.52
-96.27
-84.18
-74.38
-66.56
-60.10
-54.39
-49.10
-44.16
-39.59
-35.20
-30.56
-25.18
-18.91
-12.03
-5.27
0.53
4.82
7.51
9.07
10.12
11.20
12.56
14.14
15.74
17.19
18.46
19.52
20.43
21.19
21.80
22.20
22.26
21.76
20.42
18.03
14.56
10.32
5.83
1.71
-1.56
-3.78
-5.09
-5.70
-5.73
-5.12
-3.60
-0.91
3.02
7.90
13.07
17.65
20.90
22.44
22.45
21.63
20.86
20.86
21.80
23.35
24.81
25.56
25.35
24.44
23.38
22.72
22.70
23.11
23.54
23.55
22.91
21.69
20.09
18.36
16.66
15.08
13.67
12.48
11.48
10.53
9.46
8.13
6.60
5.09
3.93
3.29
3.07
2.85
2.02
0.08
-3.20
-7.66
-12.78
-17.86
-22.13
-24.94
-25.86
-24.86
-22.22
-18.51
-14.34
-10.18
-6.25
-2.59
0.87
4.07
6.84
8.93
10.25
10.93
11.32
11.94
13.15
15.04
17.30
19.35
20.56
20.66
19.83
18.69
18.02
18.34
19.65
21.46
23.05
23.93
24.03
23.71
23.41
23.38
23.45
23.23
22.39
20.93
19.13
17.39
15.92
14.67
13.39
11.85
9.98
7.91
5.75
3.51
1.07
-1.84
-5.37
-9.52
-14.05
-18.47
-22.17
-24.65
-25.61
-25.07
-23.30
-20.70
-17.53
-13.86
-9.65
-4.92
0.06
4.82
8.84
11.77
13.63
14.74
15.59
16.57
17.96
19.82
22.13
24.79
27.63
30.53
33.39
36.25
39.26
42.51
46.05
49.76
53.48
57.14
60.87
64.98
69.87
75.94
83.44
92.44
102.86
114.23
125.72
136.16
144.21
148.78
149.30
145.81
138.78
128.80
116.44
102.27
87.19
72.48
59.75
50.36
44.87
42.62
41.98
40.76
37.05
29.64
18.11
2.49
-17.00
-40.07
-66.09
-93.92
-121.72
-147.39
-169.10
-185.78
-197.34
-204.24
-207.10
-206.23
-201.74
-193.80
-183.14
-170.98
-158.73
-147.46
-137.51
-128.56
-119.99
-111.30
-102.30
-93.13
-84.00
-75.18
-66.95
-59.68
-53.83
-49.74
-47.43
-46.51
-46.36
-46.38
-46.22
-45.86
-45.44
-45.10
-44.91
-44.99
-45.66
-47.44
-50.80
-55.77
-61.65
-67.04
-70.23
-69.88
-65.67
-58.41
-49.73
-41.40
-34.54
-29.38
-25.25
-21.17
-16.36
-10.51
-3.82
3.29
10.48
17.55
24.37
30.83
36.66
41.61
45.49
48.38
50.53
52.31
53.99
55.66
57.34
58.87
60.12
60.94
61.20
60.73
59.48
57.50
54.98
52.19
49.31
46.34
43.17
39.67
35.91
32.09
28.48
25.21
22.18
19.10
15.64
11.60
6.92
1.60
-4.41
-11.17
-18.68
-26.68
-34.54
-41.42
-46.46
-49.08
-49.09
-46.69
-42.34
-36.52
-29.63
-21.90
-13.50
-4.56
4.66
13.71
22.05
29.16
34.73
38.85
41.89
44.42
46.92
49.49
51.93
53.85
54.98
55.31
55.14
54.83
54.59
54.32
53.69
52.37
50.24
47.46
44.38
41.28
38.28
35.24
31.99
28.42
24.60
20.76
17.05
13.52
10.04
6.52
2.95
-0.50
-3.67
-6.59
-9.67
-13.56
-18.95
-26.14
-34.84
-44.17
-52.96
-60.14
-65.04
-67.45
-67.43
-65.08
-60.42
-53.49
-44.56
-34.29
-23.55
-13.24
-3.94
4.19
11.28
17.54
23.00
27.56
31.06
33.49
35.06
36.15
37.17
38.43
40.02
41.79
43.44
44.62
45.01
44.42
42.91
40.73
38.25
35.76
33.39
31.04
28.48
25.49
21.96
17.97
13.70
9.32
4.86
0.18
-4.88
-10.41
-16.29
-22.33
-28.36
-34.45
-40.82
-47.76
-55.38
-63.40
-71.17
-77.78
-82.32
-84.06
-82.63
-78.11
-70.92
-61.71
-51.20
-39.95
-28.32
-16.58
-5.04
5.63
14.57
20.92
24.34
25.20
24.55
23.72
23.74
25.10
27.60
30.70
33.74
36.26
37.96
38.70
38.44
37.19
35.04
32.12
28.55
24.39
19.77
14.82
9.78
4.85
0.08
-4.68
-9.77
-15.53
-22.16
-29.72
-38.13
-47.28
-57.01
-67.09
-77.28
-87.40
-97.54
-108.13
-119.77
-132.82
-146.99
-161.10
-173.21
-181.05
-182.60
-176.52
-162.42
-140.86
-113.37
-82.25
-50.30
-20.23
5.91
27.19
43.88
56.99
67.64
76.62
84.26
90.73
96.40
101.83
107.49
113.27
118.22
120.81
119.57
113.66
103.18
88.86
71.56
51.69
28.96
2.69
-27.59
-61.37
-96.67
-130.15
-157.76
-176.06
-183.45
-180.91
-171.84
-161.07
-153.25
-151.50
-156.52
-166.65
-178.72
-189.23
-195.48
-196.29
-192.21
-185.04
-176.91
-169.20
-161.91
-153.62
-142.13
-125.32
-101.90
-71.72
-35.68
4.54
46.71
88.20
126.12
157.71
180.85
194.62
199.49
197.15
189.88
179.97
169.21
158.88
149.89
142.90
138.34
136.26
136.21
137.22
138.09
137.77
135.71
132.05
127.34
122.22
117.07
111.80
105.94
98.91
90.35
80.32
69.26
57.96
47.14
37.36
28.79
21.19
14.04
6.77
-1.16
-10.07
-20.08
-31.03
-42.34
-52.97
-61.34
-65.64
-64.28
-56.46
-42.58
-24.23
-3.78
16.35
34.36
49.45
61.76
71.91
80.52
87.86
93.79
98.07
100.60
101.63
101.69
101.38
101.10
100.94
100.76
100.34
99.59
98.57
97.40
96.08
94.45
92.20
88.94
84.38
78.39
70.99
62.33
52.66
42.37
31.83
21.52
11.81
2.96
-5.00
-12.31
-19.42
-26.94
-35.46
-45.29
-56.27
-67.51
-77.51
-84.37
-86.37
-82.40
-72.45
-57.49
-39.27
-19.71
-0.52
17.14
32.69
46.00
57.18
66.45
73.99
79.93
84.35
87.35
89.08
89.86
90.08
90.13
90.29
90.65
91.14
91.60
91.85
91.70
90.96
89.36
86.64
82.61
77.25
70.81
63.72
56.48
49.45
42.75
36.26
29.74
22.99
16.00
8.92
2.02
-4.55
-10.85
-17.17
-24.00
-31.85
-41.07
-51.58
-62.71
-73.13
-81.07
-84.69
-82.65
-74.58
-61.25
-44.36
-26.04
-8.29
7.55
20.88
31.70
40.40
47.33
52.75
56.72
59.31
60.60
60.87
60.50
59.87
59.30
58.94
58.84
58.90
58.97
58.87
58.37
57.24
55.30
52.48
48.81
44.43
39.53
34.23
28.59
22.66
16.45
10.04
3.60
-2.66
-8.56
-13.99
-18.97
-23.69
-28.51
-33.88
-40.21
-47.64
-55.69
-63.30
-68.92
-70.98
-68.53
-61.50
-50.81
-37.96
-24.48
-11.55
0.19
10.46
19.14
26.08
31.19
34.45
36.08
36.49
36.17
35.55
34.95
34.59
34.58
34.97
35.66
36.45
37.08
37.30
36.92
35.89
34.24
31.96
28.98
25.17
20.43
14.79
8.44
1.76
-4.79
-10.87
-16.33
-21.25
-25.95
-30.84
-36.35
-42.83
-50.43
-59.01
-67.95
-76.13
-82.10
-84.34
-81.79
-74.21
-62.34
-47.69
-32.13
-17.28
-4.16
6.92
16.16
23.91
30.41
35.67
39.54
41.92
42.85
42.65
41.76
40.66
39.70
39.03
38.63
38.37
38.04
37.52
36.71
35.54
33.93
31.78
28.99
25.53
21.40
16.72
11.65
6.33
0.87
-4.69
-10.31
-15.92
-21.39
-26.56
-31.32
-35.71
-39.94
-44.47
-49.72
-55.99
-63.10
-70.27
-76.17
-79.26
-78.24
-72.51
-62.47
-49.34
-34.78
-20.42
-7.44
3.53
12.32
19.03
23.85
27.05
28.95
29.95
30.43
30.72
30.96
31.21
31.46
31.73
32.03
32.38
32.74
32.97
32.85
32.15
30.71
28.43
25.38
21.70
17.60
13.24
8.71
3.99
-1.00
-6.29
-11.83
-17.39
-22.71
-27.57
-31.88
-35.82
-39.72
-44.00
-49.03
-54.92
-61.34
-67.50
-72.20
-74.16
-72.36
-66.46
-56.90
-44.86
-31.90
-19.49
-8.64
0.19
7.05
12.17
15.80
18.10
19.18
19.21
18.54
17.58
16.75
16.31
16.28
16.50
16.79
17.01
17.13
17.13
16.92
16.33
15.16
13.20
10.44
6.99
3.15
-0.71
-4.25
-7.31
-9.97
-12.55
-15.41
-18.63
-21.77
-23.86
-23.77
-20.79
-15.09
-7.80
-0.54
5.34
9.34
11.91
14.04
16.57
19.83
23.53
27.14
30.10
31.84
31.50
27.74
19.09
4.58
-15.32
-38.37
-60.99
-79.43
-91.04
-95.13
-92.97
-86.98
-79.70
-72.96
-67.52
-63.35
-60.10
-57.47
-55.46
-54.22
-53.77
-53.79
-53.58
-52.30
-49.30
-44.54
-38.70
-33.00
-28.78
-26.95
-27.66
-30.19
-33.22
-35.19
-34.75
-30.99
-23.59
-12.82
0.64
15.76
31.38
46.29
59.41
69.94
77.41
81.78
83.32
82.49
79.78
75.65
70.41
64.29
57.43
49.94
41.94
33.61
25.15
16.84
8.85
1.18
-6.46
-14.63
-23.89
-34.56
-46.45
-58.91
-70.99
-81.73
-90.48
-96.88
-100.89
-102.63
-102.34
-100.41
-97.33
-93.63
-89.60
-85.14
-79.64
-72.21
-62.00
-48.60
-32.21
-13.74
5.47
24.00
40.69
54.91
66.52
75.83
83.19
88.82
92.66
94.33
93.42
89.71
83.41
75.27
66.46
58.23
51.61
47.14
44.78
44.12
44.45
45.03
45.06
43.78
40.53
34.95
27.21
18.13
8.92
0.78
-5.61
-10.42
-14.66
-19.76
-26.97
-36.87
-49.14
-62.65
-75.76
-86.69
-93.97
-96.55
-94.08
-86.81
-75.60
-61.76
-46.75
-32.00
-18.61
-7.21
2.03
9.26
14.78
18.85
21.66
23.39
24.27
24.62
24.72
24.75
24.73
24.63
24.43
24.22
24.12
24.14
24.03
23.31
21.40
17.93
12.96
7.10
1.27
-3.57
-6.83
-8.46
-8.93
-9.05
-9.68
-11.54
-14.94
-19.76
-25.33
-30.58
-34.16
-34.69
-31.18
-23.28
-11.48
2.96
18.30
32.82
45.17
54.66
61.18
65.07
66.70
66.36
64.14
60.04
54.16
46.79
38.45
29.77
21.37
13.76
7.31
2.25
-1.34
-3.56
-4.64
-5.02
-5.21
-5.74
-7.06
-9.37
-12.62
-16.57
-20.83
-25.10
-29.20
-33.18
-37.27
-41.80
-46.92
-52.56
-58.27
-63.25
-66.54
-67.24
-64.77
-59.08
-50.60
-40.16
-28.75
-17.28
-6.49
3.10
11.14
17.42
21.87
24.56
25.73
25.74
25.04
24.10
23.31
22.97
23.23
24.09
25.38
26.75
27.75
27.91
26.87
24.53
21.06
16.91
12.63
8.69
5.33
2.47
-0.19
-3.06
-6.53
-10.89
-16.32
-22.78
-30.03
-37.42
-43.98
-48.52
-49.98
-47.79
-42.12
-33.86
-24.26
-14.56
-5.63
2.18
8.86
14.51
19.13
22.62
24.80
25.68
25.47
24.58
23.46
22.44
21.70
21.20
20.84
20.46
20.01
19.44
18.69
17.66
16.12
13.83
10.67
6.68
2.14
-2.53
-6.97
-10.97
-14.62
-18.27
-22.34
-27.22
-32.96
-39.32
-45.69
-51.21
-54.98
-56.18
-54.39
-49.66
-42.54
-33.91
-24.72
-15.75
-7.46
-0.06
6.46
12.10
16.86
20.67
23.52
25.41
26.48
26.93
27.00
26.93
26.95
27.20
27.74
28.55
29.49
30.38
31.04
31.31
31.13
30.54
29.64
28.52
27.22
25.61
23.48
20.61
16.89
12.44
7.53
2.50
-2.37
-6.93
-11.14
-15.01
-18.60
-21.95
-25.09
-28.06
-30.87
-33.55
-36.09
-38.56
-41.06
-43.82
-47.12
-51.28
-56.47
-62.60
-69.18
-75.23
-79.52
-80.84
-78.39
-72.18
-62.95
-52.04
-40.87
-30.52
-21.47
-13.70
-6.84
-0.47
5.72
11.90
18.09
24.26
30.34
36.26
41.93
47.29
52.26
56.79
60.85
64.35
67.21
69.27
70.31
70.09
68.44
65.33
60.95
55.73
50.20
44.92
40.29
36.51
33.57
31.30
29.48
27.93
26.55
25.29
24.20
23.29
22.49
21.67
20.65
19.25
17.37
14.91
11.80
7.93
3.20
-2.43
-8.87
-15.84
-22.94
-29.77
-36.07
-41.83
-47.23
-52.61
-58.29
-64.39
-70.76
-76.95
-82.24
-85.82
-86.91
-85.04
-80.15
-72.62
-63.22
-52.88
-42.54
-32.91
-24.41
-17.17
-11.11
-6.01
-1.62
2.26
5.76
8.92
11.68
13.98
15.80
17.18
18.25
19.17
20.06
20.96
21.83
22.58
23.05
23.16
22.92
22.37
21.62
20.70
19.62
18.31
16.75
14.97
13.08
11.22
9.43
7.69
5.89
3.90
1.69
-0.62
-2.88
-4.89
-6.60
-8.05
-9.41
-10.93
-12.80
-15.11
-17.77
-20.56
-23.19
-25.46
-27.36
-29.05
-30.77
-32.63
-34.45
-35.77
-35.97
-34.55
-31.34
-26.56
-20.70
-14.36
-8.07
-2.23
2.92
7.23
10.64
13.19
14.94
16.00
16.51
16.61
16.45
16.22
16.16
16.50
17.35
18.64
20.13
21.45
22.24
22.35
21.85
21.01
20.19
19.64
19.41
19.32
19.06
18.38
17.20
15.68
14.19
13.21
13.16
14.25
16.33
18.73
20.32
19.76
15.99
8.79
-0.99
-11.49
-20.62
-26.83
-29.78
-30.47
-30.69
-32.12
-35.68
-41.12
-47.35
-52.89
-56.47
-57.36
-55.39
-50.77
-43.85
-35.10
-25.01
-14.23
-3.55
6.07
13.75
18.85
21.20
21.17
19.55
17.43
15.93
16.04
18.37
22.85
28.63
34.15
37.61
37.64
33.83
26.83
17.96
8.61
-0.49
-9.32
-18.35
-28.00
-38.24
-48.61
-58.49
-67.43
-75.27
-82.00
-87.50
-91.49
-93.69
-94.07
-93.03
-91.28
-89.58
-88.30
-87.37
-86.21
-84.03
-80.17
-74.19
-66.02
-55.79
-43.85
-30.74
-17.21
-4.13
7.66
17.53
25.29
31.22
35.91
40.07
44.23
48.52
52.69
56.23
58.68
59.89
60.09
59.73
59.28
58.99
58.71
58.09
56.73
54.42
51.25
47.59
43.91
40.60
37.82
35.35
32.74
29.39
24.79
18.70
11.23
2.77
-6.20
-15.27
-24.24
-33.01
-41.49
-49.40
-56.25
-61.34
-64.01
-63.85
-60.84
-55.38
-48.18
-40.02
-31.61
-23.49
-15.96
-9.24
-3.44
1.34
5.03
7.69
9.43
10.47
11.07
11.47
11.85
12.28
12.68
12.83
12.46
11.35
9.45
6.87
3.92
0.94
-1.76
-4.06
-6.01
-7.75
-9.47
-11.33
-13.34
-15.45
-17.48
-19.27
-20.72
-21.87
-22.91
-24.14
-25.84
-28.18
-31.06
-34.01
-36.32
-37.17
-35.92
-32.27
-26.47
-19.12
-11.08
-3.18
3.96
10.05
15.00
18.89
21.81
23.83
25.01
25.47
25.37
24.97
24.51
24.18
24.05
24.10
24.25
24.43
24.58
24.68
24.66
24.35
23.56
22.07
19.77
16.71
13.14
9.39
5.77
2.46
-0.52
-3.34
-6.27
-9.51
-13.23
-17.46
-22.13
-27.05
-31.89
-36.10
-38.99
-39.86
-38.21
-33.95
-27.49
-19.62
-11.29
-3.32
3.82
9.93
15.05
19.20
22.40
24.61
25.83
26.24
26.11
25.84
25.74
26.00
26.62
27.45
28.28
28.93
29.29
29.35
29.14
28.65
27.79
26.35
24.07
20.81
16.62
11.82
6.87
2.23
-1.85
-5.38
-8.59
-11.81
-15.35
-19.42
-24.13
-29.47
-35.23
-40.95
-45.84
-48.97
-49.46
-46.82
-41.13
-32.99
-23.42
-13.48
-4.03
4.40
11.70
17.98
23.46
28.27
32.44
35.89
38.54
40.43
41.72
42.64
43.40
44.11
44.75
45.26
45.58
45.75
45.81
45.77
45.52
44.85
43.54
41.48
38.69
35.39
31.88
28.47
25.34
22.51
19.87
17.21
14.33
11.12
7.60
3.86
0.05
-3.66
-7.11
-10.24
-13.07
-15.80
-18.79
-22.43
-27.04
-32.61
-38.70
-44.47
-48.83
-50.79
-49.69
-45.46
-38.60
-30.02
-20.70
-11.50
-2.92
4.82
11.73
17.88
23.29
27.94
31.76
34.74
36.90
38.30
39.06
39.33
39.30
39.19
39.21
39.50
40.06
40.78
41.50
42.04
42.27
42.17
41.74
41.00
39.94
38.57
36.98
35.25
33.50
31.78
30.09
28.31
26.28
23.97
21.43
18.86
16.47
14.45
12.79
11.36
9.92
8.31
6.47
4.49
2.52
0.66
-1.08
-2.77
-4.50
-6.33
-8.32
-10.50
-12.95
-15.69
-18.64
-21.60
-24.32
-26.60
-28.47
-30.24
-32.37
-35.30
-39.19
-43.77
-48.35
-52.00
-53.79
-53.09
-49.67
-43.85
-36.37
-28.18
-20.19
-13.02
-6.94
-1.90
2.29
5.83
8.83
11.29
13.25
14.78
16.07
17.31
18.68
20.21
21.80
23.26
24.38
25.05
25.29
25.23
25.03
24.78
24.47
24.00
23.24
22.12
20.63
18.81
16.75
14.50
12.13
9.71
7.35
5.12
3.08
1.15
-0.80
-2.91
-5.28
-7.87
-10.55
-13.17
-15.62
-17.92
-20.21
-22.71
-25.59
-28.97
-32.77
-36.71
-40.29
-42.89
-43.83
-42.67
-39.27
-33.92
-27.28
-20.12
-13.16
-6.89
-1.50
2.96
6.58
9.42
11.53
12.99
13.88
14.34
14.48
14.43
14.28
14.16
14.16
14.38
14.82
15.42
16.04
16.52
16.72
16.54
15.90
14.75
13.06
10.88
8.39
5.84
3.51
1.56
-0.05
-1.52
-3.18
-5.20
-7.65
-10.32
-13.00
-15.45
-17.64
-19.69
-21.84
-24.35
-27.38
-30.92
-34.74
-38.41
-41.34
-42.91
-42.67
-40.44
-36.38
-30.94
-24.73
-18.30
-12.14
-6.55
-1.70
2.35
5.66
8.29
10.33
11.84
12.83
13.33
13.45
13.41
13.47
13.87
14.68
15.76
16.86
17.69
18.05
17.88
17.27
16.34
15.21
13.94
12.52
10.88
8.93
6.66
4.12
1.41
-1.31
-3.92
-6.42
-8.86
-11.36
-14.00
-16.80
-19.73
-22.73
-25.83
-29.14
-32.74
-36.56
-40.24
-43.17
-44.66
-44.16
-41.46
-36.82
-30.83
-24.22
-17.59
-11.32
-5.57
-0.38
4.19
8.05
11.13
13.41
14.99
16.05
16.79
17.41
17.96
18.43
18.70
18.72
18.52
18.21
17.95
17.86
17.94
17.95
17.61
16.63
14.93
12.71
10.27
7.95
5.83
3.82
1.63
-0.98
-4.02
-7.27
-10.37
-13.04
-15.20
-17.09
-19.14
-21.81
-25.37
-29.83
-34.82
-39.67
-43.57
-45.69
-45.46
-42.74
-37.81
-31.36
-24.22
-17.15
-10.68
-5.07
-0.38
3.37
6.13
7.85
8.51
8.26
7.46
6.59
6.18
6.60
8.01
10.27
13.05
15.94
18.52
20.48
21.68
22.09
21.83
21.07
19.95
18.61
17.06
15.25
13.09
10.51
7.52
4.24
0.84
-2.44
-5.43
-8.06
-10.44
-12.79
-15.40
-18.58
-22.51
-27.15
-32.20
-37.11
-41.13
-43.55
-43.82
-41.67
-37.22
-30.91
-23.41
-15.40
-7.54
-0.31
5.98
11.25
15.55
19.04
21.92
24.32
26.36
28.06
29.51
30.77
31.96
33.16
34.41
35.65
36.79
37.66
38.13
38.12
37.60
36.58
35.10
33.23
31.03
28.56
25.88
23.04
20.10
17.14
14.20
11.32
8.46
5.56
2.53
-0.70
-4.11
-7.61
-11.08
-14.39
-17.50
-20.52
-23.66
-27.20
-31.40
-36.39
-42.04
-47.95
-53.38
-57.43
-59.22
-58.08
-53.84
-46.83
-37.88
-28.07
-18.43
-9.70
-2.19
4.22
9.86
15.07
20.00
24.55
28.44
31.42
33.41
34.57
35.25
35.81
36.51
37.43
38.48
39.51
40.43
41.19
41.78
42.14
42.18
41.78
40.88
39.51
37.82
36.01
34.25
32.57
30.88
29.05
26.98
24.72
22.47
20.47
18.90
17.76
16.85
15.86
14.52
12.69
10.43
7.96
5.53
3.29
1.24
-0.79
-2.97
-5.48
-8.35
-11.50
-14.81
-18.13
-21.39
-24.59
-27.80
-31.13
-34.67
-38.52
-42.70
-47.22
-51.96
-56.64
-60.69
-63.36
-63.85
-61.58
-56.43
-48.82
-39.64
-29.89
-20.45
-11.86
-4.34
2.11
7.54
12.02
15.65
18.57
20.97
23.03
24.90
26.65
28.31
29.85
31.24
32.41
33.33
34.05
34.63
35.18
35.71
36.13
36.22
35.76
34.60
32.77
30.52
28.13
25.86
23.82
21.98
20.22
18.38
16.38
14.20
11.90
9.59
7.40
5.38
3.53
1.75
-0.11
-2.23
-4.68
-7.45
-10.45
-13.47
-16.37
-19.04
-21.54
-24.06
-26.91
-30.37
-34.57
-39.38
-44.34
-48.71
-51.60
-52.24
-50.14
-45.29
-38.14
-29.50
-20.32
-11.46
-3.52
3.15
8.50
12.61
15.63
17.71
19.06
19.88
20.42
20.91
21.50
22.27
23.26
24.39
25.61
26.82
27.93
28.84
29.47
29.76
29.65
29.14
28.22
26.91
25.22
23.17
20.80
18.11
15.15
11.94
8.55
5.15
1.93
-0.87
-3.16
-4.95
-6.49
-8.12
-10.11
-12.57
-15.38
-18.32
-21.17
-23.90
-26.70
-29.90
-33.77
-38.39
-43.45
-48.32
-52.19
-54.21
-53.82
-50.79
-45.35
-38.07
-29.72
-21.08
-12.80
-5.33
1.08
6.35
10.51
13.64
15.91
17.53
18.73
19.70
20.58
21.48
22.43
23.44
24.52
25.61
26.58
27.33
27.74
27.79
27.50
26.96
26.19
25.17
23.86
22.20
20.21
17.97
15.55
13.02
10.40
7.72
5.05
2.46
0.07
-2.15
-4.30
-6.53
-8.99
-11.69
-14.50
-17.21
-19.73
-22.10
-24.58
-27.54
-31.28
-35.88
-41.14
-46.48
-51.15
-54.27
-55.16
-53.43
-49.16
-42.78
-35.03
-26.66
-18.29
-10.36
-3.12
3.25
8.59
12.77
15.78
17.77
19.06
20.05
21.06
22.23
23.52
24.78
25.81
26.51
26.86
26.92
26.77
26.47
26.00
25.30
24.28
22.85
21.00
18.76
16.27
13.73
11.32
9.15
7.17
5.20
2.98
0.34
-2.78
-6.21
-9.71
-13.04
-16.09
-18.92
-21.76
-24.89
-28.53
-32.77
-37.45
-42.18
-46.36
-49.25
-50.17
-48.67
-44.68
-38.57
-31.03
-22.87
-14.85
-7.49
-1.06
4.35
8.71
12.03
14.33
15.72
16.44
16.82
17.19
17.80
18.70
19.77
20.80
21.59
22.03
22.10
21.82
21.28
20.57
19.78
18.95
17.98
16.71
14.91
12.43
9.29
5.71
2.02
-1.47
-4.61
-7.45
-10.15
-12.90
-15.79
-18.90
-22.31
-26.13
-30.46
-35.24
-40.13
-44.46
-47.34
-47.97
-45.88
-41.15
-34.39
-26.53
-18.48
-10.92
-4.14
1.86
7.17
11.79
15.56
18.32
19.99
20.77
21.06
21.32
21.86
22.78
23.96
25.17
26.24
27.12
27.80
28.26
28.46
28.31
27.73
26.68
25.18
23.28
21.02
18.47
15.70
12.86
10.09
7.51
5.13
2.81
0.33
-2.54
-5.89
-9.62
-13.43
-16.99
-20.07
-22.75
-25.38
-28.48
-32.51
-37.59
-43.43
-49.27
-54.11
-57.00
-57.25
-54.60
-49.27
-41.82
-33.10
-23.99
-15.31
-7.57
-0.96
4.64
9.53
14.01
18.21
22.06
25.38
28.02
29.96
31.39
32.60
33.81
35.10
36.36
37.41
38.08
38.33
38.22
37.87
37.29
36.38
34.94
32.78
29.87
26.38
22.62
18.91
15.50
12.50
9.88
7.48
5.11
2.58
-0.31
-3.61
-7.20
-10.88
-14.39
-17.59
-20.54
-23.53
-26.98
-31.26
-36.54
-42.65
-49.02
-54.77
-58.84
-60.29
-58.57
-53.67
-46.21
-37.11
-27.42
-17.93
-9.08
-0.99
6.39
13.12
19.14
24.30
28.49
31.69
34.00
35.63
36.80
37.71
38.46
39.11
39.67
40.16
40.58
40.95
41.23
41.34
41.19
40.69
39.78
38.51
36.97
35.26
33.50
31.67
29.71
27.51
24.95
22.00
18.73
15.33
11.97
8.82
5.89
3.12
0.41
-2.33
-5.12
-7.90
-10.57
-13.09
-15.54
-18.07
-20.89
-24.21
-28.18
-32.88
-38.29
-44.17
-50.05
-55.14
-58.51
-59.24
-56.82
-51.30
-43.31
-33.87
-24.06
-14.74
-6.36
0.96
7.28
12.65
17.12
20.71
23.45
25.48
26.97
28.09
28.97
29.67
30.25
30.72
31.13
31.52
31.92
32.29
32.55
32.53
32.03
30.90
29.04
26.52
23.48
20.16
16.80
13.58
10.60
7.84
5.21
2.60
-0.06
-2.80
-5.54
-8.18
-10.60
-12.77
-14.79
-16.89
-19.42
-22.77
-27.16
-32.49
-38.27
-43.63
-47.51
-48.93
-47.31
-42.67
-35.57
-27.00
-18.00
-9.44
-1.82
4.68
10.12
14.65
18.41
21.54
24.16
26.35
28.15
29.56
30.52
31.06
31.29
31.39
31.59
32.00
32.59
33.18
33.52
33.44
32.95
32.11
31.03
29.76
28.29
26.54
24.49
22.22
19.84
17.51
15.30
13.24
11.27
9.29
7.16
4.75
1.97
-1.26
-4.87
-8.74
-12.68
-16.49
-20.07
-23.40
-26.64
-30.07
-34.00
-38.65
-44.02
-49.71
-54.92
-58.62
-59.79
-57.76
-52.48
-44.57
-35.06
-25.11
-15.70
-7.37
-0.33
5.50
10.33
14.34
17.62
20.23
22.22
23.68
24.76
25.58
26.32
27.04
27.82
28.65
29.49
30.24
30.78
31.05
30.98
30.62
30.01
29.19
28.13
26.74
24.93
22.67
20.01
17.13
14.24
11.54
9.10
6.91
4.82
2.62
0.12
-2.74
-5.94
-9.30
-12.61
-15.73
-18.65
-21.42
-24.22
-27.25
-30.66
-34.58
-39.01
-43.78
-48.45
-52.28
-54.40
-54.00
-50.68
-44.57
-36.38
-27.16
-17.99
-9.73
-2.86
2.54
6.63
9.68
11.96
13.68
14.97
15.93
16.67
17.32
17.99
18.74
19.56
20.39
21.13
21.73
22.19
22.56
22.88
23.15
23.26
23.06
22.35
20.96
18.83
16.04
12.84
9.55
6.49
3.85
1.62
-0.36
-2.31
-4.42
-6.75
-9.20
-11.58
-13.74
-15.65
-17.44
-19.33
-21.55
-24.31
-27.70
-31.71
-36.15
-40.59
-44.36
-46.66
-46.77
-44.31
-39.43
-32.72
-25.01
-17.11
-9.60
-2.80
3.13
8.12
12.07
14.94
16.83
17.95
18.57
18.99
19.38
19.83
20.35
20.85
21.24
21.42
21.32
21.00
20.58
20.24
20.05
19.97
19.78
19.22
18.10
16.42
14.31
12.05
9.86
7.86
6.02
4.20
2.24
-0.04
-2.70
-5.73
-8.97
-12.21
-15.22
-17.88
-20.26
-22.61
-25.28
-28.59
-32.71
-37.55
-42.76
-47.77
-51.88
-54.36
-54.60
-52.25
-47.38
-40.44
-32.24
-23.66
-15.47
-8.18
-1.97
3.20
7.52
11.13
14.18
16.78
19.03
21.01
22.79
24.38
25.73
26.80
27.59
28.17
28.65
29.13
29.62
30.04
30.20
29.90
29.02
27.60
25.80
23.83
21.89
20.09
18.42
16.85
15.36
13.92
12.51
11.05
9.43
7.56
5.41
3.11
0.83
-1.27
-3.19
-5.10
-7.25
-9.82
-12.80
-16.00
-19.08
-21.78
-24.02
-25.90
-27.69
-29.65
-32.04
-35.03
-38.66
-42.82
-47.18
-51.13
-53.87
-54.62
-52.84
-48.43
-41.83
-33.84
-25.38
-17.29
-10.08
-3.93
1.22
5.53
9.19
12.29
14.94
17.17
19.06
20.66
22.03
23.21
24.25
25.17
25.99
26.74
27.40
27.97
28.43
28.67
28.58
28.05
27.07
25.71
24.14
22.59
21.19
19.98
18.87
17.75
16.55
15.29
14.09
13.04
12.13
11.25
10.20
8.79
6.92
4.67
2.26
-0.08
-2.16
-3.98
-5.68
-7.50
-9.68
-12.32
-15.37
-18.62
-21.78
-24.59
-26.94
-28.88
-30.65
-32.64
-35.22
-38.66
-42.84
-47.27
-51.09
-53.32
-53.16
-50.25
-44.83
-37.61
-29.58
-21.68
-14.55
-8.54
-3.66
0.25
3.37
5.87
7.83
9.35
10.52
11.51
12.51
13.65
14.96
16.38
17.76
18.97
19.94
20.69
21.31
21.86
22.29
22.45
22.17
21.29
19.83
17.92
15.81
13.74
11.87
10.23
8.75
7.25
5.60
3.67
1.41
-1.13
-3.85
-6.60
-9.22
-11.63
-13.80
-15.76
-17.65
-19.64
-21.90
-24.65
-28.03
-32.08
-36.56
-41.01
-44.70
-46.87
-46.83
-44.24
-39.18
-32.14
-23.92
-15.45
-7.59
-0.95
4.23
8.03
10.82
12.97
14.80
16.45
17.88
19.01
19.79
20.26
20.54
20.79
21.10
21.54
22.04
22.52
22.85
22.93
22.70
22.13
21.20
19.90
18.22
16.16
13.83
11.38
9.00
6.77
4.67
2.54
0.19
-2.46
-5.35
-8.27
-10.97
-13.34
-15.41
-17.35
-19.37
-21.67
-24.44
-27.86
-32.01
-36.84
-42.00
-46.80
-50.31
-51.68
-50.36
-46.34
-40.14
-32.61
-24.62
-16.90
-9.90
-3.81
1.32
5.50
8.84
11.48
13.58
15.31
16.79
18.07
19.13
20.00
20.71
21.34
21.98
22.69
23.44
24.18
24.80
25.14
25.01
24.26
22.79
20.66
18.07
15.35
12.74
10.37
8.12
5.72
2.91
-0.38
-3.98
-7.54
-10.73
-13.37
-15.57
-17.65
-20.03
-23.06
-26.92
-31.55
-36.69
-41.87
-46.50
-49.89
-51.35
-50.37
-46.75
-40.75
-33.06
-24.59
-16.27
-8.78
-2.44
2.79
7.16
10.95
14.34
17.35
19.89
21.83
23.15
23.94
24.38
24.68
24.94
25.19
25.33
25.25
24.89
24.29
23.49
22.54
21.41
20.03
18.37
16.45
14.44
12.47
10.66
8.94
7.13
5.05
2.61
-0.07
-2.75
-5.16
-7.15
-8.83
-10.52
-12.64
-15.60
-19.60
-24.55
-29.99
-35.16
-39.19
-41.22
-40.74
-37.65
-32.31
-25.39
-17.63
-9.74
-2.27
4.37
9.89
14.12
17.07
18.89
19.86
20.37
20.75
21.29
22.11
23.26
24.64
26.13
27.57
28.85
29.88
30.63
31.06
31.09
30.62
29.53
27.75
25.36
22.58
19.66
16.80
14.08
11.39
8.58
5.50
2.18
-1.28
-4.71
-8.03
-11.25
-14.52
-18.00
-21.84
-26.13
-30.87
-36.00
-41.25
-46.16
-49.97
-51.86
-51.09
-47.35
-40.87
-32.45
-23.14
-13.98
-5.66
1.58
7.87
13.48
18.65
23.39
27.55
30.87
33.17
34.48
35.05
35.23
35.40
35.80
36.41
37.06
37.47
37.46
37.00
36.24
35.38
34.53
33.68
32.60
31.07
28.93
26.28
23.34
20.42
17.72
15.29
12.97
10.55
7.78
4.57
0.98
-2.84
-6.69
-10.36
-13.72
-16.73
-19.50
-22.23
-25.23
-28.85
-33.35
-38.78
-44.87
-50.97
-56.16
-59.39
-59.81
-56.98
-51.03
-42.68
-32.98
-23.07
-13.78
-5.59
1.46
7.59
13.08
18.07
22.48
26.15
28.93
30.83
32.09
33.08
34.10
35.24
36.40
37.38
38.02
38.35
38.52
38.72
38.94
39.00
38.56
37.36
35.31
32.63
29.66
26.74
24.03
21.50
18.98
16.33
13.50
10.58
7.77
5.22
2.98
0.95
-1.10
-3.41
-6.15
-9.31
-12.77
-16.30
-19.76
-23.10
-26.45
-30.06
-34.16
-38.83
-43.92
-48.95
-53.19
-55.82
-56.12
-53.63
-48.38
-40.84
-31.83
-22.32
-13.21
-5.12
1.61
6.96
11.17
14.52
17.29
19.66
21.71
23.46
24.92
26.13
27.12
27.96
28.65
29.22
29.66
30.03
30.39
30.73
30.98
30.95
30.47
29.43
27.82
25.77
23.43
20.93
18.36
15.75
13.16
10.65
8.26
5.98
3.71
1.30
-1.33
-4.17
-7.08
-9.87
-12.43
-14.83
-17.28
-20.14
-23.70
-28.05
-32.92
-37.72
-41.61
-43.72
-43.40
-40.43
-35.10
-28.07
-20.23
-12.41
-5.23
0.95
6.01
10.00
13.03
15.24
16.78
17.78
18.36
18.61
18.66
18.58
18.49
18.45
18.54
18.76
19.01
19.17
19.10
18.65
17.75
16.36
14.51
12.24
9.60
6.60
3.28
-0.30
-3.98
-7.56
-10.83
-13.68
-16.20
-18.60
-21.23
-24.35
-28.12
-32.42
-36.92
-41.06
-44.15
-45.51
-44.55
-41.03
-35.17
-27.60
-19.25
-11.07
-3.71
2.53
7.69
11.91
15.28
17.70
19.05
19.33
18.79
17.96
17.41
17.52
18.33
19.48
20.48
20.90
20.57
19.67
18.50
17.32
16.12
14.70
12.65
9.69
5.78
1.20
-3.59
-8.07
-11.91
-15.10
-17.84
-20.53
-23.59
-27.32
-31.81
-36.85
-41.97
-46.36
-49.09
-49.29
-46.47
-40.74
-32.81
-23.84
-14.96
-7.03
-0.35
5.21
9.98
14.27
18.18
21.63
24.47
26.64
28.15
29.12
29.71
30.02
30.11
30.06
29.89
29.66
29.39
29.08
28.67
28.05
27.08
25.59
23.51
20.83
17.61
13.98
10.13
6.21
2.36
-1.35
-4.85
-8.12
-11.20
-14.14
-17.02
-19.94
-23.04
-26.46
-30.36
-34.84
-39.80
-44.87
-49.28
-52.05
-52.25
-49.30
-43.28
-34.89
-25.27
-15.58
-6.68
1.02
7.54
13.12
17.97
22.22
25.91
29.03
31.65
33.82
35.63
37.05
38.07
38.66
38.85
38.84
38.81
38.93
39.20
39.41
39.19
38.22
36.36
33.77
30.81
27.94
25.46
23.40
21.59
19.76
17.71
15.44
13.12
10.95
9.07
7.42
5.85
4.10
1.96
-0.67
-3.74
-7.13
-10.66
-14.17
-17.54
-20.73
-23.81
-26.96
-30.44
-34.57
-39.55
-45.29
-51.27
-56.59
-60.09
-60.74
-57.94
-51.75
-42.88
-32.49
-21.81
-11.83
-3.14
4.16
10.20
15.25
19.47
22.92
25.65
27.68
29.15
30.18
30.95
31.56
32.04
32.41
32.73
33.05
33.43
33.90
34.38
34.73
34.78
34.37
33.41
31.91
30.00
27.88
25.84
24.06
22.62
21.39
20.13
18.57
16.59
14.20
11.58
8.96
6.55
4.46
2.68
1.12
-0.37
-1.95
-3.78
-5.97
-8.56
-11.49
-14.61
-17.74
-20.67
-23.25
-25.45
-27.40
-29.37
-31.71
-34.70
-38.41
-42.55
-46.49
-49.36
-50.32
-48.78
-44.58
-38.02
-29.82
-20.86
-12.00
-3.93
2.92
8.40
12.56
15.61
17.80
19.43
20.71
21.82
22.84
23.82
24.71
25.50
26.13
26.55
26.78
26.81
26.65
26.34
25.88
25.32
24.71
24.05
23.36
22.58
21.66
20.52
19.14
17.50
15.65
13.63
11.54
9.43
7.40
5.50
3.78
2.21
0.71
-0.81
-2.47
-4.33
-6.40
-8.64
-10.96
-13.25
-15.40
-17.33
-19.09
-20.87
-22.94
-25.59
-28.87
-32.56
-36.09
-38.67
-39.51
-38.12
-34.47
-29.02
-22.58
-16.04
-10.09
-5.14
-1.26
1.68
3.89
5.57
6.87
7.92
8.81
9.62
10.40
11.13
11.79
12.28
12.61
12.74
12.73
12.68
12.72
12.91
13.27
13.68
13.93
13.75
13.02
11.76
10.18
8.55
7.09
5.86
4.73
3.47
1.93
0.03
-2.13
-4.36
-6.47
-8.33
-9.96
-11.41
-12.80
-14.21
-15.73
-17.47
-19.57
-22.17
-25.26
-28.65
-31.91
-34.39
-35.41
-34.50
-31.57
-26.91
-21.21
-15.20
-9.59
-4.84
-1.15
1.51
3.29
4.43
5.15
5.54
5.71
5.66
5.44
5.13
4.88
4.86
5.22
6.01
7.10
8.29
9.28
9.87
9.95
9.52
8.68
7.53
6.14
4.61
3.03
1.48
0.02
-1.39
-2.85
-4.50
-6.39
-8.45
-10.48
-12.25
-13.65
-14.74
-15.77
-17.10
-18.97
-21.41
-24.20
-26.91
-29.03
-30.07
-29.71
-27.84
-24.60
-20.31
-15.43
-10.44
-5.78
-1.76
1.40
3.69
5.16
5.98
6.36
6.52
6.63
6.79
7.03
7.34
7.71
8.12
8.59
9.13
9.66
10.08
10.22
9.97
9.28
8.18
6.82
5.33
3.79
2.26
0.71
-0.85
-2.44
-4.04
-5.67
-7.36
-9.17
-11.10
-13.12
-15.18
-17.25
-19.38
-21.71
-24.41
-27.53
-30.84
-33.88
-35.95
-36.41
-34.92
-31.52
-26.69
-21.14
-15.58
-10.55
-6.31
-2.88
-0.13
2.14
4.10
5.81
7.27
8.43
9.18
9.52
9.51
9.36
9.30
9.55
10.15
10.96
11.76
12.28
12.36
11.98
11.20
10.10
8.75
7.17
5.34
3.29
1.11
-1.11
-3.25
-5.24
-7.06
-8.73
-10.30
-11.80
-13.28
-14.79
-16.43
-18.36
-20.74
-23.59
-26.77
-29.89
-32.37
-33.68
-33.43
-31.55
-28.24
-23.86
-18.80
-13.42
-8.03
-2.93
1.56
5.16
7.71
9.26
10.02
10.33
10.54
10.89
11.49
12.28
13.11
13.84
14.39
14.76
15.08
15.49
16.04
16.69
17.24
17.47
17.22
16.43
15.15
13.52
11.69
9.80
7.96
6.22
4.55
2.86
1.02
-1.10
-3.53
-6.17
-8.82
-11.26
-13.38
-15.22
-17.04
-19.22
-22.09
-25.78
-30.11
-34.49
-38.10
-40.06
-39.81
-37.22
-32.60
-26.62
-20.00
-13.33
-7.01
-1.31
3.57
7.47
10.30
12.12
13.17
13.81
14.40
15.12
16.02
17.02
17.94
18.69
19.23
19.63
20.00
20.46
21.05
21.69
22.19
22.29
21.80
20.61
18.77
16.49
14.06
11.69
9.54
7.61
5.77
3.89
1.86
-0.36
-2.72
-5.11
-7.45
-9.71
-11.98
-14.47
-17.43
-21.05
-25.31
-29.89
-34.14
-37.21
-38.31
-36.97
-33.23
-27.62
-20.98
-14.18
-7.83
-2.23
2.66
6.97
10.76
13.97
16.42
17.98
18.66
18.67
18.35
18.02
17.91
18.08
18.47
18.99
19.57
20.12
20.60
20.91
20.91
20.49
19.62
18.34
16.72
14.85
12.71
10.29
7.61
4.78
2.00
-0.53
-2.74
-4.78
-6.92
-9.49
-12.68
-16.51
-20.81
-25.29
-29.62
-33.35
-36.00
-37.02
-36.02
-32.79
-27.57
-20.92
-13.63
-6.47
-0.04
5.34
9.62
12.92
15.44
17.34
18.75
19.70
20.22
20.35
20.21
20.01
19.94
20.17
20.74
21.54
22.43
23.15
23.56
23.47
22.78
21.40
19.37
16.82
13.98
11.12
8.37
5.77
3.21
0.51
-2.42
-5.57
-8.78
-11.87
-14.73
-17.43
-20.19
-23.31
-26.99
-31.23
-35.68
-39.72
-42.57
-43.48
-42.02
-38.18
-32.38
-25.36
-17.92
-10.73
-4.21
1.49
6.42
10.67
14.29
17.26
19.54
21.08
21.91
22.18
22.12
21.96
21.96
22.25
22.87
23.67
24.47
25.01
25.10
24.64
23.64
22.21
20.48
18.59
16.59
14.40
11.92
9.01
5.65
1.98
-1.76
-5.27
-8.31
-10.87
-13.13
-15.37
-17.93
-21.05
-24.81
-29.17
-33.84
-38.35
-42.01
-44.05
-43.75
-40.78
-35.28
-27.95
-19.78
-11.75
-4.54
1.60
6.69
10.95
14.49
17.34
19.46
20.91
21.82
22.45
23.00
23.62
24.26
24.85
25.28
25.51
25.59
25.56
25.42
25.11
24.50
23.47
21.97
20.11
18.07
16.09
14.32
12.72
11.12
9.30
7.09
4.44
1.43
-1.76
-4.94
-7.97
-10.81
-13.50
-16.24
-19.32
-23.03
-27.49
-32.51
-37.53
-41.68
-44.03
-43.89
-41.05
-35.82
-28.96
-21.38
-13.89
-7.01
-0.92
4.36
8.87
12.58
15.42
17.36
18.52
19.15
19.57
20.09
20.86
21.88
23.05
24.22
25.29
26.12
26.62
26.68
26.26
25.37
24.06
22.42
20.49
18.30
15.89
13.30
10.64
8.02
5.50
3.12
0.84
-1.41
-3.64
-5.85
-8.04
-10.24
-12.59
-15.32
-18.65
-22.68
-27.25
-31.89
-35.82
-38.18
-38.27
-35.76
-30.79
-23.96
-16.16
-8.29
-1.09
4.97
9.74
13.28
15.79
17.48
18.57
19.24
19.63
19.89
20.13
20.41
20.83
21.39
22.11
22.98
23.96
24.94
25.75
26.17
25.98
25.03
23.34
21.09
18.52
15.85
13.23
10.66
8.05
5.30
2.36
-0.79
-4.03
-7.24
-10.29
-13.13
-15.83
-18.62
-21.76
-25.54
-30.09
-35.27
-40.59
-45.26
-48.36
-49.08
-46.96
-42.11
-35.16
-27.11
-18.99
-11.56
-5.11
0.43
5.33
9.80
13.86
17.42
20.39
22.78
24.74
26.41
27.83
28.95
29.63
29.83
29.61
29.17
28.77
28.58
28.70
29.01
29.22
29.00
27.98
26.01
23.15
19.75
16.31
13.20
10.56
8.20
5.75
2.85
-0.62
-4.51
-8.41
-11.92
-14.73
-16.84
-18.50
-20.21
-22.53
-25.87
-30.32
-35.49
-40.56
-44.51
-46.35
-45.47
-41.77
-35.64
-27.79
-19.09
-10.32
-2.09
5.18
11.32
16.30
20.21
23.18
25.36
26.88
27.94
28.74
29.47
30.27
31.16
32.06
32.81
33.30
33.48
33.42
33.22
32.93
32.57
32.04
31.23
30.05
28.44
26.45
24.21
21.86
19.51
17.17
14.76
12.22
9.58
6.98
4.59
2.54
0.76
-0.94
-2.84
-5.14
-7.92
-11.06
-14.37
-17.61
-20.68
-23.59
-26.53
-29.80
-33.71
-38.36
-43.54
-48.60
-52.55
-54.38
-53.33
-49.22
-42.48
-34.02
-24.91
-16.07
-8.10
-1.26
4.44
9.11
12.88
15.85
18.08
19.68
20.83
21.70
22.48
23.29
24.16
25.01
25.72
26.16
26.30
26.19
25.92
25.64
25.37
25.06
24.58
23.75
22.44
20.58
18.26
15.67
13.04
10.58
8.40
6.40
4.40
2.21
-0.29
-3.03
-5.79
-8.36
-10.68
-12.88
-15.24
-18.10
-21.71
-26.11
-31.12
-36.28
-40.97
-44.42
-45.87
-44.80
-41.07
-35.02
-27.37
-19.01
-10.74
-3.12
3.56
9.20
13.73
17.06
19.18
20.18
20.33
20.01
19.63
19.47
19.65
20.14
20.83
21.59
22.32
22.93
23.39
23.69
23.80
23.66
23.12
21.97
20.10
17.53
14.51
11.42
8.56
6.11
3.97
1.90
-0.33
-2.85
-5.61
-8.48
-11.31
-14.04
-16.68
-19.34
-22.13
-25.20
-28.72
-32.77
-37.31
-42.01
-46.25
-49.21
-50.08
-48.32
-43.83
-37.04
-28.74
-19.87
-11.33
-3.72
2.63
7.65
11.51
14.41
16.63
18.41
19.89
21.13
22.13
22.90
23.47
23.94
24.44
24.99
25.54
25.95
26.09
25.89
25.42
24.76
23.95
22.94
21.54
19.60
17.07
14.10
10.93
7.82
4.89
2.14
-0.55
-3.27
-6.02
-8.75
-11.37
-13.86
-16.32
-18.93
-21.89
-25.36
-29.43
-34.01
-38.78
-43.14
-46.26
-47.30
-45.70
-41.35
-34.69
-26.56
-17.96
-9.74
-2.47
3.63
8.54
12.37
15.25
17.34
18.80
19.75
20.30
20.56
20.62
20.62
20.70
21.01
21.57
22.30
23.02
23.49
23.56
23.18
22.38
21.19
19.61
17.63
15.25
12.62
9.92
7.31
4.88
2.53
0.11
-2.53
-5.39
-8.31
-11.07
-13.53
-15.73
-17.89
-20.35
-23.39
-27.19
-31.64
-36.42
-40.94
-44.48
-46.30
-45.79
-42.71
-37.25
-30.01
-21.88
-13.76
-6.37
-0.13
4.83
8.61
11.34
13.18
14.22
14.63
14.62
14.51
14.63
15.22
16.35
17.85
19.38
20.57
21.15
21.05
20.40
19.43
18.29
17.04
15.58
13.80
11.61
9.01
6.10
3.07
0.07
-2.75
-5.37
-7.82
-10.20
-12.62
-15.17
-17.95
-21.03
-24.55
-28.49
-32.69
-36.64
-39.58
-40.71
-39.46
-35.71
-29.87
-22.73
-15.13
-7.82
-1.23
4.40
8.99
12.57
15.19
16.93
17.90
18.20
17.94
17.30
16.55
16.01
15.97
16.54
17.62
18.83
19.81
20.25
20.04
19.29
18.13
16.69
14.99
12.97
10.59
7.85
4.80
1.50
-1.95
-5.46
-8.90
-12.16
-15.16
-17.97
-20.77
-23.90
-27.65
-32.15
-37.23
-42.34
-46.69
-49.40
-49.75
-47.40
-42.46
-35.45
-27.19
-18.57
-10.32
-2.90
3.53
9.02
13.71
17.70
20.99
23.53
25.28
26.31
26.79
26.99
27.18
27.52
28.01
28.52
28.83
28.74
28.15
27.04
25.50
23.60
21.40
18.83
15.79
12.21
8.16
3.84
-0.43
-4.36
-7.77
-10.71
-13.40
-16.18
-19.43
-23.38
-28.10
-33.36
-38.66
-43.24
-46.23
-46.89
-44.77
-39.96
-32.98
-24.69
-15.99
-7.64
-0.09
6.50
12.14
16.88
20.71
23.56
25.37
26.22
26.35
26.12
25.85
25.72
25.70
25.58
25.17
24.40
23.41
22.46
21.72
21.16
20.54
19.47
17.59
14.79
11.20
7.18
3.17
-0.49
-3.68
-6.52
-9.32
-12.50
-16.42
-21.22
-26.69
-32.22
-36.94
-39.88
-40.33
-37.96
-32.99
-26.03
-17.93
-9.46
-1.25
6.33
13.07
18.85
23.60
27.27
29.90
31.57
32.48
32.83
32.83
32.65
32.39
32.12
31.86
31.62
31.37
31.07
30.69
30.19
29.50
28.51
27.12
25.19
22.68
19.65
16.28
12.80
9.43
6.24
3.20
0.15
-3.02
-6.34
-9.75
-13.11
-16.34
-19.46
-22.55
-25.84
-29.57
-33.96
-39.05
-44.60
-49.97
-54.23
-56.34
-55.47
-51.37
-44.44
-35.71
-26.47
-17.87
-10.63
-4.88
-0.30
3.57
7.12
10.45
13.47
15.99
17.98
19.60
21.23
23.25
25.90
29.16
32.83
36.64
40.35
43.80
46.91
49.55
51.52
52.58
52.53
51.30
49.02
45.87
42.07
37.79
33.10
28.07
22.84
17.62
12.65
8.16
4.20
0.63
-2.86
-6.65
-11.01
-15.90
-20.90
-25.29
-28.23
-29.00
-27.22
-22.95
-16.61
-8.85
-0.44
7.88
15.47
21.80
26.57
29.74
31.55
32.40
32.83
33.25
33.93
34.95
36.28
37.80
39.35
40.79
41.93
42.62
42.68
41.98
40.46
38.19
35.25
31.80
27.95
23.71
19.05
13.94
8.35
2.27
-4.35
-11.57
-19.40
-27.72
-36.22
-44.38
-51.71
-57.89
-62.93
-67.15
-70.94
-74.43
-77.37
-79.09
-78.86
-76.18
-71.13
-64.34
-56.74
-49.25
-42.50
-36.72
-31.89
-27.79
-24.28
-21.28
-18.71
-16.44
-14.23
-11.81
-8.86
-5.17
-0.56
5.00
11.37
18.26
25.16
31.52
36.85
40.85
43.44
44.76
45.00
44.35
42.88
40.59
37.42
33.31
28.24
22.27
15.55
8.34
0.95
-6.30
-13.13
-19.42
-25.13
-30.34
-35.23
-40.00
-44.81
-49.61
-54.12
-57.75
-59.74
-59.39
-56.27
-50.43
-42.40
-33.06
-23.40
-14.26
-6.20
0.58
6.21
10.93
15.02
18.68
22.02
25.08
27.95
30.73
33.50
36.14
38.32
39.61
39.70
38.49
36.17
33.13
29.74
26.26
22.76
19.26
15.73
12.17
8.55
4.81
0.90
-3.19
-7.38
-11.49
-15.31
-18.66
-21.42
-23.57
-25.16
-26.29
-27.20
-28.12
-29.31
-30.81
-32.47
-33.84
-34.40
-33.66
-31.39
-27.70
-22.98
-17.76
-12.60
-7.89
-3.81
-0.36
2.55
5.00
6.95
8.32
8.99
8.97
8.46
7.82
7.47
7.70
8.58
9.88
11.19
12.09
12.31
11.83
10.85
9.65
8.38
7.02
5.31
2.98
-0.07
-3.65
-7.33
-10.58
-13.05
-14.74
-15.96
-17.23
-19.04
-21.67
-25.15
-29.22
-33.44
-37.27
-40.10
-41.33
-40.50
-37.48
-32.52
-26.28
-19.59
-13.20
-7.57
-2.78
1.38
5.22
8.90
12.44
15.69
18.41
20.46
21.81
22.57
22.94
23.18
23.51
24.10
25.00
26.09
27.15
27.91
28.16
27.76
26.67
24.92
22.59
19.81
16.72
13.44
10.08
6.65
3.18
-0.25
-3.48
-6.31
-8.57
-10.29
-11.68
-13.16
-15.15
-17.93
-21.55
-25.83
-30.44
-34.92
-38.70
-41.15
-41.67
-39.87
-35.73
-29.71
-22.58
-15.25
-8.41
-2.41
2.79
7.39
11.58
15.38
18.64
21.15
22.79
23.62
23.86
23.82
23.73
23.70
23.67
23.51
23.15
22.62
22.02
21.50
21.09
20.73
20.24
19.43
18.19
16.54
14.56
12.43
10.32
8.35
6.58
4.95
3.36
1.71
-0.08
-2.00
-4.01
-6.05
-8.09
-10.11
-12.15
-14.21
-16.26
-18.28
-20.31
-22.49
-25.04
-28.13
-31.78
-35.66
-39.16
-41.47
-41.92
-40.18
-36.40
-31.14
-25.15
-19.12
-13.47
-8.37
-3.84
0.17
3.67
6.62
8.98
10.76
12.01
12.86
13.47
14.01
14.67
15.55
16.71
18.07
19.45
20.58
21.20
21.13
20.31
18.86
17.03
15.10
13.27
11.61
10.04
8.39
6.43
4.08
1.40
-1.39
-4.01
-6.21
-7.96
-9.43
-10.97
-12.91
-15.48
-18.66
-22.23
-25.83
-29.04
-31.46
-32.67
-32.32
-30.23
-26.44
-21.30
-15.42
-9.52
-4.23
0.09
3.37
5.73
7.35
8.40
8.95
9.04
8.76
8.24
7.60
6.96
6.34
5.69
5.00
4.32
3.79
3.56
3.69
4.05
4.29
4.02
2.93
1.03
-1.42
-3.96
-6.15
-7.78
-8.91
-9.91
-11.39
-14.08
-18.61
-25.18
-33.36
-42.00
-49.46
-54.09
-54.82
-51.48
-44.80
-36.05
-26.65
-17.80
-10.24
-4.22
0.52
4.58
8.79
13.82
20.02
27.18
34.76
42.10
48.73
54.42
59.07
62.48
64.23
63.88
61.20
56.49
50.49
44.18
38.46
33.87
30.54
28.33
26.98
26.25
25.96
25.95
26.10
26.28
26.38
26.31
25.94
25.06
23.36
20.54
16.47
11.33
5.58
-0.13
-5.20
-9.30
-12.47
-15.03
-17.48
-20.30
-23.82
-28.11
-33.02
-38.16
-42.94
-46.69
-48.76
-48.72
-46.45
-42.18
-36.39
-29.80
-23.13
-17.12
-12.28
-8.88
-6.87
-5.85
-5.33
-4.85
-4.11
-3.07
-1.90
-0.78
0.14
0.82
1.28
1.59
1.81
2.04
2.36
2.82
3.39
3.93
4.20
3.98
3.15
1.79
0.12
-1.58
-3.04
-4.13
-4.89
-5.45
-5.97
-6.60
-7.38
-8.36
-9.51
-10.75
-11.89
-12.65
-12.65
-11.56
-9.25
-5.87
-1.85
2.26
5.96
9.00
11.42
13.50
15.53
17.65
19.78
21.66
23.03
23.76
23.94
23.84
23.74
23.83
24.04
24.17
23.95
23.24
22.08
20.68
19.27
17.98
16.72
15.28
13.41
10.95
7.93
4.55
1.07
-2.27
-5.36
-8.17
-10.69
-12.94
-14.95
-16.78
-18.68
-20.89
-23.61
-26.73
-29.83
-32.22
-33.16
-32.24
-29.43
-25.19
-20.23
-15.20
-10.53
-6.36
-2.61
0.82
3.94
6.67
8.81
10.26
10.97
11.11
10.99
10.91
11.10
11.55
12.08
12.42
12.34
11.84
11.10
10.39
9.91
9.60
9.19
8.34
6.78
4.56
1.94
-0.63
-2.87
-4.72
-6.40
-8.28
-10.63
-13.58
-17.02
-20.78
-24.71
-28.67
-32.44
-35.65
-37.81
-38.42
-37.19
-34.14
-29.65
-24.33
-18.77
-13.41
-8.45
-3.94
0.17
3.79
6.77
8.87
9.97
10.16
9.78
9.37
9.39
10.10
11.38
12.85
14.06
14.72
14.75
14.26
13.44
12.35
10.99
9.27
7.19
4.83
2.39
0.06
-2.05
-3.91
-5.61
-7.35
-9.32
-11.68
-14.55
-18.00
-21.98
-26.23
-30.31
-33.54
-35.20
-34.78
-32.08
-27.44
-21.57
-15.25
-9.19
-3.72
1.11
5.47
9.47
13.09
16.17
18.55
20.13
21.02
21.44
21.64
21.82
22.09
22.41
22.71
22.85
22.77
22.42
21.83
21.01
20.03
18.94
17.76
16.50
15.08
13.40
11.36
8.91
6.13
3.15
0.16
-2.70
-5.38
-7.92
-10.40
-12.92
-15.57
-18.43
-21.55
-24.95
-28.44
-31.64
-33.93
-34.67
-33.39
-30.04
-24.98
-18.89
-12.52
-6.39
-0.79
4.26
8.80
12.80
16.17
18.76
20.55
21.65
22.33
22.91
23.67
24.71
25.98
27.34
28.62
29.70
30.56
31.19
31.55
31.54
31.01
29.91
28.27
26.26
24.08
21.95
19.97
18.15
16.44
14.74
12.96
11.06
9.06
7.06
5.19
3.58
2.19
0.84
-0.75
-2.87
-5.58
-8.68
-11.83
-14.68
-17.10
-19.25
-21.45
-24.04
-27.16
-30.69
-34.25
-37.35
-39.44
-40.00
-38.71
-35.44
-30.39
-24.09
-17.22
-10.53
-4.53
0.51
4.64
8.02
10.81
13.08
14.75
15.79
16.23
16.26
16.13
16.10
16.22
16.45
16.60
16.53
16.21
15.77
15.38
15.13
14.95
14.62
13.88
12.57
10.72
8.55
6.29
4.18
2.27
0.49
-1.27
-3.11
-5.06
-7.08
-9.08
-10.98
-12.72
-14.31
-15.80
-17.39
-19.38
-22.04
-25.48
-29.42
-33.25
-36.07
-37.07
-35.82
-32.43
-27.45
-21.66
-15.77
-10.21
-5.18
-0.70
3.23
6.63
9.50
11.84
13.75
15.29
16.54
17.55
18.37
19.09
19.79
20.46
21.06
21.53
21.78
21.81
21.65
21.34
20.88
20.24
19.37
18.25
16.92
15.42
13.81
12.11
10.31
8.41
6.43
4.42
2.43
0.48
-1.43
-3.36
-5.38
-7.57
-10.03
-12.82
-15.99
-19.46
-23.04
-26.43
-29.16
-30.78
-30.87
-29.22
-25.89
-21.21
-15.69
-9.92
-4.42
0.45
4.49
7.65
9.99
11.65
12.83
13.71
14.43
15.07
15.61
16.00
16.18
16.18
16.06
15.94
15.88
15.91
15.97
15.92
15.63
15.03
14.11
12.97
11.74
10.47
9.14
7.63
5.78
3.55
1.00
-1.64
-4.11
-6.25
-8.03
-9.60
-11.17
-13.00
-15.22
-17.91
-21.01
-24.42
-27.94
-31.26
-34.01
-35.72
-35.98
-34.50
-31.28
-26.58
-20.92
-14.90
-9.03
-3.66
1.11
5.26
8.84
11.83
14.20
16.01
17.41
18.68
20.11
21.88
24.01
26.41
28.93
31.47
33.97
36.34
38.50
40.27
41.50
42.20
42.50
42.60
42.68
42.78
42.83
42.62
41.87
40.20
37.20
32.51
25.99
17.83
8.55
-1.16
-10.71
-19.81
-28.49
-36.90
-45.02
-52.49
-58.62
-62.74
-64.41
-63.66
-61.00
-57.11
-52.65
-48.02
-43.41
-38.80
-34.24
-29.82
-25.79
-22.35
-19.61
-17.53
-15.86
-14.36
-12.76
-10.93
-8.84
-6.62
-4.41
-2.39
-0.65
0.83
2.16
3.47
4.85
6.22
7.40
8.19
8.48
8.27
7.70
6.96
6.13
5.22
4.19
2.98
1.62
0.16
-1.37
-3.00
-4.81
-6.77
-8.66
-10.03
-10.30
-8.97
-5.76
-0.77
5.66
13.01
20.84
28.79
36.64
44.08
50.67
55.84
58.96
59.63
57.82
53.97
48.80
43.13
37.55
32.36
27.55
22.94
18.41
13.96
9.69
5.76
2.23
-0.96
-3.95
-6.86
-9.76
-12.58
-15.20
-17.56
-19.65
-21.54
-23.32
-24.97
-26.44
-27.61
-28.40
-28.88
-29.26
-29.86
-31.00
-32.92
-35.68
-39.10
-42.78
-46.12
-48.44
-49.06
-47.62
-44.13
-38.98
-32.84
-26.45
-20.38
-14.98
-10.37
-6.56
-3.54
-1.28
0.20
1.00
1.30
1.42
1.71
2.47
3.86
5.81
8.07
10.33
12.33
13.93
15.13
16.00
16.59
16.86
16.70
16.01
14.75
12.99
10.89
8.71
6.68
4.96
3.65
2.70
1.99
1.32
0.52
-0.55
-1.98
-3.81
-6.01
-8.43
-10.78
-12.56
-13.18
-12.08
-8.91
-3.73
3.04
10.74
18.57
25.77
31.72
35.89
37.96
37.84
35.69
31.96
27.26
22.18
17.22
12.70
8.76
5.54
3.12
1.55
0.76
0.55
0.66
0.82
0.82
0.57
-0.01
-0.97
-2.38
-4.30
-6.72
-9.51
-12.47
-15.32
-17.84
-19.96
-21.72
-23.36
-25.17
-27.47
-30.49
-34.22
-38.39
-42.45
-45.61
-47.08
-46.29
-43.04
-37.65
-30.78
-23.31
-15.97
-9.27
-3.42
1.57
5.74
9.18
11.94
14.09
15.73
16.97
17.88
18.54
19.01
19.38
19.72
20.09
20.43
20.66
20.63
20.24
19.45
18.28
16.74
14.86
12.60
9.94
6.90
3.53
-0.03
-3.62
-7.10
-10.35
-13.33
-16.13
-19.00
-22.24
-26.13
-30.70
-35.57
-39.99
-42.96
-43.63
-41.54
-36.84
-30.23
-22.67
-15.07
-8.07
-1.91
3.44
8.13
12.25
15.76
18.50
20.32
21.20
21.37
21.24
21.33
21.97
23.20
24.68
25.85
26.22
25.57
24.10
22.28
20.65
19.51
18.81
18.22
17.25
15.53
12.94
9.61
5.91
2.24
-1.07
-3.80
-5.98
-7.84
-9.80
-12.34
-15.85
-20.39
-25.48
-30.12
-33.00
-32.75
-28.48
-20.19
-8.95
3.24
13.95
21.09
23.65
21.91
17.24
11.43
5.96
1.50
-2.10
-5.37
-8.78
-12.34
-15.72
-18.41
-20.09
-20.72
-20.44
-19.40
-17.64
-15.17
-12.08
-8.69
-5.56
-3.34
-2.50
-3.15
-4.99
-7.42
-9.75
-11.41
-12.06
-11.67
-10.46
-8.95
-7.82
-7.85
-9.61
-13.29
-18.43
-24.05
-28.88
-31.73
-31.87
-29.17
-24.07
-17.37
-9.94
-2.55
4.27
10.23
15.24
19.36
22.65
25.15
26.82
27.66
27.71
27.21
26.48
25.86
25.54
25.48
25.43
25.09
24.27
23.02
21.56
20.16
18.92
17.66
15.95
13.37
9.72
5.15
0.17
-4.56
-8.55
-11.60
-13.91
-15.97
-18.32
-21.47
-25.67
-30.90
-36.78
-42.55
-47.26
-49.90
-49.75
-46.53
-40.55
-32.56
-23.48
-14.16
-5.19
3.10
10.57
17.13
22.70
27.16
30.43
32.58
33.77
34.29
34.41
34.31
34.08
33.75
33.32
32.79
32.17
31.48
30.73
29.90
28.93
27.73
26.14
23.97
21.03
17.27
12.80
7.96
3.17
-1.21
-5.02
-8.35
-11.55
-14.99
-19.02
-23.82
-29.32
-35.20
-40.87
-45.52
-48.29
-48.47
-45.75
-40.39
-33.03
-24.58
-15.84
-7.36
0.61
7.99
14.71
20.61
25.48
29.12
31.51
32.81
33.38
33.60
33.81
34.13
34.54
34.88
35.00
34.80
34.28
33.50
32.63
31.69
30.64
29.33
27.52
25.06
21.90
18.17
14.20
10.34
6.86
3.87
1.26
-1.23
-3.93
-7.14
-11.05
-15.69
-20.75
-25.61
-29.27
-30.63
-28.86
-23.78
-16.09
-7.21
1.31
8.36
13.78
18.31
23.09
29.00
36.08
43.59
50.32
55.16
57.38
56.70
53.17
47.20
39.74
32.35
26.88
24.75
25.99
28.78
29.87
25.89
14.88
-2.66
-23.93
-45.00
-62.43
-74.42
-80.97
-83.30
-82.90
-80.90
-77.92
-74.42
-70.96
-68.34
-67.22
-67.82
-69.62
-71.36
-71.46
-68.54
-61.80
-51.37
-38.18
-23.65
-9.28
3.78
14.92
24.08
31.48
37.36
41.72
44.46
45.44
44.81
43.13
41.17
39.75
39.33
39.96
41.25
42.57
43.33
43.18
42.06
40.18
37.90
35.56
33.34
31.21
28.93
26.19
22.75
18.62
14.02
9.33
4.90
0.84
-3.03
-7.06
-11.69
-17.22
-23.70
-30.88
-38.22
-44.96
-50.24
-53.25
-53.35
-50.28
-44.25
-35.89
-26.15
-16.08
-6.57
1.83
8.90
14.74
19.53
23.43
26.49
28.67
29.96
30.47
30.47
30.31
30.34
30.71
31.45
32.41
33.43
34.39
35.16
35.65
35.66
35.03
33.65
31.48
28.68
25.48
22.07
18.56
14.96
11.26
7.47
3.66
-0.05
-3.60
-7.02
-10.40
-13.91
-17.74
-22.08
-27.08
-32.76
-38.95
-45.15
-50.53
-54.08
-54.85
-52.29
-46.46
-38.07
-28.18
-17.90
-8.05
0.94
8.91
15.85
21.71
26.39
29.83
32.10
33.33
33.79
33.73
33.38
32.95
32.64
32.54
32.75
33.23
33.83
34.47
35.00
35.33
35.34
34.82
33.55
31.40
28.42
24.86
21.18
17.77
14.86
12.38
10.08
7.55
4.52
0.90
-3.18
-7.46
-11.71
-15.73
-19.49
-23.04
-26.55
-30.22
-34.28
-38.86
-43.93
-49.21
-54.11
-57.85
-59.63
-58.80
-55.08
-48.66
-40.14
-30.35
-20.17
-10.34
-1.38
6.41
12.90
18.04
21.86
24.44
25.95
26.60
26.62
26.23
25.67
25.11
24.73
24.68
25.00
25.66
26.49
27.25
27.65
27.48
26.62
25.06
22.90
20.31
17.51
14.71
12.05
9.57
7.18
4.75
2.10
-0.84
-4.02
-7.24
-10.26
-12.90
-15.25
-17.61
-20.48
-24.30
-29.21
-34.91
-40.60
-45.25
-47.82
-47.63
-44.52
-38.78
-31.13
-22.45
-13.61
-5.36
1.75
7.44
11.64
14.45
16.06
16.67
16.50
15.81
14.89
14.07
13.65
13.74
14.25
14.92
15.43
15.60
15.45
15.16
14.85
14.51
13.89
12.69
10.66
7.79
4.30
0.53
-3.22
-6.80
-10.23
-13.71
-17.45
-21.61
-26.27
-31.32
-36.37
-40.82
-43.91
-44.89
-43.30
-39.09
-32.70
-24.90
-16.57
-8.41
-0.92
5.67
11.27
15.78
19.06
21.02
21.72
21.44
20.69
20.00
19.77
20.08
20.72
21.31
21.50
21.15
20.39
19.44
18.48
17.50
16.27
14.45
11.80
8.29
4.14
-0.25
-4.48
-8.31
-11.75
-15.09
-18.77
-23.20
-28.54
-34.56
-40.59
-45.66
-48.73
-49.07
-46.46
-41.32
-34.51
-27.11
-20.05
-13.90
-8.81
-4.63
-1.01
2.35
5.61
8.71
11.48
13.69
15.23
16.14
16.59
16.82
17.00
17.17
17.28
17.29
17.23
17.17
17.18
17.21
17.05
16.37
14.92
12.56
9.40
5.71
1.86
-1.84
-5.19
-8.17
-10.92
-13.71
-16.86
-20.68
-25.35
-30.76
-36.37
-41.35
-44.64
-45.37
-43.08
-37.92
-30.58
-22.03
-13.23
-4.87
2.63
9.09
14.43
18.61
21.66
23.68
24.86
25.43
25.63
25.65
25.64
25.70
25.88
26.13
26.33
26.34
26.01
25.32
24.31
23.07
21.62
19.91
17.81
15.15
11.86
7.95
3.59
-0.95
-5.35
-9.33
-12.76
-15.70
-18.46
-21.46
-25.14
-29.67
-34.91
-40.26
-44.82
-47.60
-47.76
-44.90
-39.18
-31.31
-22.26
-13.05
-4.43
3.15
9.54
14.77
18.88
21.88
23.73
24.52
24.46
23.93
23.40
23.17
23.39
23.88
24.29
24.29
23.73
22.75
21.68
20.80
20.19
19.64
18.71
16.95
14.12
10.33
5.95
1.50
-2.60
-6.13
-9.16
-12.01
-15.06
-18.68
-23.05
-28.13
-33.62
-39.01
-43.57
-46.46
-46.92
-44.46
-39.13
-31.53
-22.66
-13.63
-5.31
1.90
8.00
13.18
17.57
21.10
23.51
24.60
24.43
23.36
22.03
21.04
20.77
21.21
22.00
22.67
22.84
22.41
21.54
20.49
19.43
18.34
17.01
15.18
12.70
9.58
6.01
2.25
-1.44
-4.90
-8.04
-10.89
-13.63
-16.51
-19.82
-23.80
-28.47
-33.55
-38.51
-42.62
-45.15
-45.50
-43.36
-38.80
-32.18
-24.18
-15.57
-7.10
0.60
7.10
12.13
15.62
17.62
18.33
18.09
17.40
16.75
16.52
16.86
17.67
18.64
19.42
19.77
19.61
19.09
18.43
17.81
17.26
16.67
15.83
14.50
12.57
10.03
7.03
3.77
0.45
-2.86
-6.14
-9.55
-13.25
-17.38
-21.97
-26.85
-31.69
-35.92
-38.93
-40.15
-39.15
-35.81
-30.29
-23.07
-14.83
-6.34
1.62
8.50
13.93
17.77
20.08
21.04
20.90
19.98
18.65
17.26
16.12
15.37
14.99
14.84
14.76
14.66
14.59
14.62
14.77
14.92
14.73
13.82
11.90
8.91
5.10
0.89
-3.26
-7.10
-10.63
-14.09
-17.83
-22.15
-27.18
-32.74
-38.36
-43.29
-46.61
-47.53
-45.55
-40.73
-33.64
-25.18
-16.31
-7.75
0.08
7.00
12.93
17.78
21.36
23.59
24.50
24.37
23.64
22.81
22.27
22.23
22.68
23.35
23.91
24.05
23.63
22.71
21.50
20.28
19.19
18.15
16.91
15.11
12.52
9.08
5.00
0.62
-3.71
-7.73
-11.38
-14.76
-18.13
-21.79
-26.04
-31.03
-36.68
-42.60
-48.08
-52.27
-54.31
-53.61
-49.98
-43.67
-35.34
-25.84
-16.10
-6.90
1.25
8.07
13.54
17.78
20.96
23.27
24.86
25.85
26.39
26.63
26.78
27.03
27.53
28.32
29.30
30.30
31.16
31.77
32.08
32.11
31.84
31.14
29.90
27.96
25.35
22.18
18.69
15.16
11.85
9.03
6.88
5.43
4.49
3.59
2.06
-0.87
-5.91
-13.53
-23.80
-36.30
-49.98
-63.34
-74.65
-82.44
-85.82
-84.72
-79.77
-71.96
-62.25
-51.34
-39.69
-27.67
-15.80
-4.78
4.66
12.00
17.04
20.01
21.49
22.20
22.77
23.64
24.92
26.49
28.15
29.74
31.16
32.36
33.21
33.48
32.87
31.17
28.46
25.08
21.54
18.33
15.70
13.58
11.63
9.45
6.77
3.54
-0.04
-3.68
-7.10
-10.20
-13.09
-16.07
-19.47
-23.58
-28.49
-34.01
-39.67
-44.69
-48.16
-49.21
-47.26
-42.24
-34.67
-25.46
-15.70
-6.33
2.08
9.32
15.38
20.24
23.78
25.84
26.37
25.63
24.16
22.65
21.68
21.54
22.15
23.18
24.23
24.99
25.35
25.31
24.94
24.31
23.37
22.07
20.29
17.96
15.06
11.70
8.06
4.36
0.76
-2.64
-5.88
-9.06
-12.35
-15.99
-20.23
-25.24
-30.99
-37.14
-42.95
-47.48
-49.80
-49.30
-45.88
-39.93
-32.19
-23.43
-14.39
-5.62
2.41
9.35
14.93
19.02
21.69
23.16
23.76
23.84
23.70
23.61
23.76
24.25
25.07
26.07
27.01
27.68
27.99
27.93
27.62
27.09
26.29
25.06
23.22
20.64
17.31
13.39
9.04
4.51
0.08
-4.07
-7.82
-11.17
-14.33
-17.64
-21.48
-26.16
-31.77
-38.04
-44.35
-49.74
-53.15
-53.66
-50.85
-44.88
-36.53
-26.86
-16.95
-7.53
1.08
8.81
15.73
21.76
26.74
30.45
32.87
34.20
34.92
35.61
36.79
38.72
41.30
44.02
46.14
46.85
45.50
41.80
35.78
27.85
18.71
9.27
0.40
-7.25
-13.40
-18.22
-22.09
-25.44
-28.39
-30.77
-32.18
-32.34
-31.29
-29.51
-27.73
-26.67
-26.79
-28.24
-30.89
-34.52
-38.86
-43.57
-48.14
-51.74
-53.35
-51.98
-47.07
-38.71
-27.82
-15.78
-4.10
6.14
14.45
20.95
26.08
30.28
33.79
36.61
38.64
39.87
40.39
40.39
40.09
39.65
39.13
38.56
37.99
37.52
37.23
37.12
37.03
36.66
35.67
33.79
31.02
27.58
23.88
20.32
17.21
14.62
12.37
10.14
7.58
4.45
0.73
-3.37
-7.54
-11.52
-15.23
-18.86
-22.76
-27.33
-32.79
-39.14
-46.04
-52.88
-58.76
-62.67
-63.62
-60.96
-54.61
-45.15
-33.73
-21.77
-10.58
-1.01
6.59
12.32
16.53
19.60
21.81
23.35
24.38
25.03
25.49
25.94
26.49
27.17
27.94
28.73
29.42
29.93
30.12
29.82
28.87
27.17
24.80
21.99
19.00
16.02
13.05
9.90
6.38
2.43
-1.79
-5.90
-9.56
-12.60
-15.15
-17.56
-20.30
-23.80
-28.31
-33.83
-40.01
-46.11
-51.06
-53.67
-52.98
-48.61
-40.92
-30.97
-20.13
-9.67
-0.40
7.39
13.74
18.85
22.85
25.77
27.62
28.48
28.57
28.23
27.81
27.57
27.68
28.15
28.86
29.62
30.24
30.54
30.43
29.87
28.82
27.24
25.04
22.17
18.62
14.51
10.04
5.41
0.80
-3.68
-7.98
-12.06
-15.95
-19.76
-23.73
-28.23
-33.51
-39.53
-45.79
-51.29
-54.84
-55.34
-52.20
-45.52
-36.12
-25.22
-14.13
-3.88
4.92
12.13
17.87
22.36
25.72
27.96
29.09
29.23
28.64
27.78
27.12
27.06
27.87
29.62
32.17
35.17
37.96
39.66
39.36
36.29
30.14
21.20
10.34
-1.20
-12.06
-21.15
-27.91
-32.39
-35.14
-36.97
-38.61
-40.56
-42.97
-45.73
-48.75
-52.07
-55.84
-60.15
-64.75
-68.85
-71.31
-70.97
-67.02
-59.39
-48.73
-36.19
-23.08
-10.50
0.85
10.68
18.89
25.47
30.39
33.67
35.50
36.24
36.41
36.58
37.11
38.14
39.54
40.94
42.05
42.65
42.71
42.31
41.49
40.24
38.47
36.19
33.47
30.48
27.39
24.21
20.80
16.95
12.52
7.54
2.30
-2.83
-7.48
-11.50
-14.95
-18.09
-21.31
-25.02
-29.63
-35.33
-41.98
-48.95
-55.17
-59.32
-60.24
-57.26
-50.53
-40.89
-29.66
-18.16
-7.40
2.10
10.24
17.21
23.17
28.17
32.13
34.94
36.56
37.21
37.32
37.39
37.80
38.67
39.85
41.06
42.02
42.62
42.87
42.83
42.55
41.92
40.79
39.03
36.58
33.53
30.08
26.45
22.89
19.51
16.29
13.15
9.91
6.46
2.71
-1.32
-5.57
-9.91
-14.16
-18.18
-21.85
-25.22
-28.51
-32.13
-36.55
-42.06
-48.64
-55.78
-62.53
-67.70
-70.13
-68.99
-64.01
-55.58
-44.65
-32.47
-20.32
-9.20
0.35
8.16
14.33
19.03
22.38
24.47
25.43
25.54
25.20
24.86
24.94
25.59
26.72
28.07
29.32
30.34
31.12
31.82
32.51
33.10
33.25
32.56
30.74
27.81
24.10
20.09
16.24
12.75
9.59
6.53
3.39
0.05
-3.42
-6.86
-10.13
-13.18
-16.11
-19.19
-22.77
-27.15
-32.47
-38.53
-44.78
-50.28
-53.95
-54.82
-52.29
-46.35
-37.56
-26.95
-15.72
-4.91
4.71
12.81
19.30
24.24
27.66
29.60
30.16
29.65
28.54
27.42
26.78
26.83
27.49
28.49
29.47
30.20
30.56
30.54
30.11
29.19
27.68
25.55
22.89
19.86
16.65
13.36
9.95
6.31
2.35
-1.98
-6.55
-11.11
-15.37
-19.13
-22.36
-25.29
-28.37
-32.13
-37.01
-43.13
-50.14
-57.19
-63.09
-66.52
-66.41
-62.31
-54.48
-43.83
-31.67
-19.36
-7.95
1.95
10.18
16.86
22.24
26.57
29.97
32.52
34.23
35.11
35.27
34.81
33.94
32.86
31.81
30.94
30.41
30.27
30.50
30.94
31.34
31.35
30.67
29.12
26.65
23.43
19.74
15.85
12.01
8.34
4.81
1.30
-2.31
-6.13
-10.13
-14.22
-18.27
-22.20
-26.05
-30.04
-34.54
-39.89
-46.24
-53.30
-60.21
-65.70
-68.39
-67.23
-61.93
-53.00
-41.65
-29.36
-17.47
-6.89
1.98
9.16
14.85
19.29
22.64
25.02
26.53
27.31
27.57
27.57
27.60
27.86
28.44
29.27
30.14
30.77
30.93
30.49
29.44
27.88
25.98
23.84
21.48
18.81
15.69
11.99
7.76
3.15
-1.54
-5.95
-9.85
-13.20
-16.20
-19.27
-22.88
-27.42
-33.00
-39.35
-45.82
-51.45
-55.21
-56.18
-53.88
-48.32
-40.08
-30.12
-19.49
-9.14
0.24
8.27
14.76
19.61
22.78
24.28
24.30
23.24
21.71
20.39
19.82
20.24
21.48
23.12
24.64
25.69
26.13
26.06
25.66
25.01
24.03
22.48
20.13
16.82
12.60
7.72
2.58
-2.39
-6.88
-10.70
-13.93
-16.81
-19.70
-22.96
-26.94
-31.85
-37.74
-44.45
-51.43
-57.82
-62.46
-64.22
-62.27
-56.43
-47.24
-35.83
-23.62
-11.89
-1.53
7.11
14.11
19.76
24.36
28.05
30.85
32.71
33.65
33.82
33.49
33.01
32.68
32.73
33.24
34.12
35.18
36.09
36.54
36.24
35.04
32.93
30.03
26.57
22.81
18.93
15.06
11.15
7.07
2.67
-2.10
-7.16
-12.26
-17.07
-21.38
-25.16
-28.67
-32.36
-36.76
-42.24
-48.81
-56.00
-62.82
-67.95
-70.08
-68.36
-62.61
-53.49
-42.17
-29.98
-18.01
-6.92
3.05
11.85
19.48
25.87
30.93
34.64
37.09
38.55
39.34
39.79
40.21
40.75
41.48
42.33
43.15
43.79
44.14
44.14
43.77
42.98
41.66
39.69
36.99
33.65
29.87
25.95
22.11
18.51
15.18
12.04
8.98
5.89
2.65
-0.81
-4.51
-8.35
-12.23
-15.96
-19.46
-22.78
-26.13
-29.83
-34.19
-39.44
-45.64
-52.59
-59.83
-66.64
-71.99
-74.78
-74.02
-69.17
-60.42
-48.66
-35.29
-21.84
-9.48
1.16
9.96
17.14
22.96
27.56
30.97
33.22
34.43
34.89
34.95
34.94
35.09
35.44
35.97
36.55
37.13
37.66
38.07
38.30
38.12
37.28
35.54
32.83
29.26
25.13
20.75
16.34
12.03
7.83
3.80
-0.00
-3.54
-6.92
-10.35
-14.01
-17.97
-22.00
-25.69
-28.61
-30.57
-31.72
-32.55
-33.71
-35.84
-39.33
-44.24
-50.28
-56.71
-62.58
-66.78
-68.41
-66.94
-62.31
-54.97
-45.66
-35.28
-24.71
-14.69
-5.77
1.73
7.79
12.53
16.21
19.05
21.22
22.82
23.94
24.73
25.45
26.34
27.59
29.21
30.96
32.47
33.36
33.42
32.59
31.10
29.20
27.17
25.10
22.94
20.51
17.59
14.00
9.72
4.85
-0.38
-5.76
-11.09
-16.27
-21.28
-26.07
-30.64
-35.00
-39.26
-43.58
-48.03
-52.45
-56.25
-58.47
-58.08
-54.40
-47.35
-37.66
-26.46
-15.02
-4.29
5.22
13.39
20.28
25.94
30.37
33.49
35.30
35.95
35.72
35.08
34.47
34.29
34.74
35.78
37.15
38.46
39.31
39.41
38.65
37.08
34.86
32.22
29.34
26.32
23.14
19.71
15.87
11.51
6.62
1.35
-4.04
-9.27
-14.10
-18.40
-22.21
-25.69
-29.10
-32.78
-37.09
-42.26
-48.24
-54.53
-60.17
-63.91
-64.57
-61.45
-54.57
-44.77
-33.37
-21.74
-10.93
-1.42
6.76
13.83
19.99
25.28
29.64
33.00
35.35
36.83
37.65
38.06
38.29
38.52
38.96
39.73
40.85
42.19
43.47
44.33
44.41
43.50
41.52
38.57
34.91
30.83
26.70
22.79
19.25
16.05
12.94
9.63
5.86
1.56
-3.18
-8.11
-12.95
-17.48
-21.63
-25.45
-29.13
-32.94
-37.28
-42.48
-48.69
-55.65
-62.56
-68.21
-71.25
-70.59
-65.82
-57.31
-46.16
-33.81
-21.66
-10.73
-1.47
6.12
12.35
17.58
22.09
26.00
29.28
31.87
33.73
34.89
35.45
35.62
35.61
35.55
35.49
35.40
35.22
34.90
34.41
33.75
32.82
31.46
29.48
26.78
23.44
19.73
16.03
12.57
9.41
6.35
3.13
-0.46
-4.43
-8.55
-12.55
-16.20
-19.45
-22.51
-25.75
-29.60
-34.43
-40.32
-47.01
-53.80
-59.63
-63.29
-63.77
-60.51
-53.62
-43.85
-32.40
-20.53
-9.29
0.71
9.24
16.32
22.08
26.58
29.86
31.96
33.01
33.25
33.01
32.68
32.57
32.90
33.70
34.84
36.09
37.14
37.69
37.47
36.31
34.18
31.18
27.55
23.60
19.62
15.78
12.09
8.46
4.73
0.79
-3.35
-7.58
-11.76
-15.79
-19.66
-23.39
-27.02
-30.64
-34.35
-38.28
-42.46
-46.72
-50.53
-53.05
-53.30
-50.58
-44.77
-36.48
-26.85
-17.22
-8.62
-1.58
3.86
8.02
11.20
13.57
15.19
16.02
16.14
15.76
15.22
14.88
15.06
15.94
17.55
19.81
22.48
25.30
27.98
30.25
31.86
32.65
32.53
31.49
29.61
27.07
24.07
20.83
17.59
14.50
11.71
9.22
7.00
4.89
2.71
0.26
-2.57
-5.76
-9.21
-12.72
-16.14
-19.42
-22.68
-26.22
-30.41
-35.56
-41.80
-48.86
-56.06
-62.30
-66.29
-66.94
-63.64
-56.56
-46.54
-34.89
-22.98
-11.90
-2.28
5.66
12.04
17.08
21.03
24.07
26.32
27.85
28.78
29.26
29.58
30.01
30.74
31.78
32.85
33.60
33.74
33.20
32.17
30.99
29.92
29.00
28.05
26.77
24.88
22.26
19.03
15.41
11.68
8.05
4.65
1.49
-1.50
-4.39
-7.25
-10.11
-13.00
-15.92
-18.93
-22.10
-25.55
-29.40
-33.77
-38.76
-44.37
-50.34
-56.12
-60.83
-63.42
-63.01
-59.20
-52.20
-42.81
-32.20
-21.49
-11.50
-2.66
4.92
11.28
16.43
20.32
22.90
24.24
24.60
24.43
24.23
24.42
25.12
26.17
27.30
28.19
28.72
28.93
28.97
28.94
28.85
28.52
27.71
26.26
24.10
21.39
18.40
15.40
12.57
9.86
7.10
4.03
0.55
-3.31
-7.30
-11.09
-14.46
-17.36
-19.96
-22.57
-25.62
-29.46
-34.34
-40.17
-46.48
-52.38
-56.68
-58.28
-56.43
-51.03
-42.61
-32.18
-20.93
-9.96
-0.08
8.23
14.75
19.52
22.73
24.64
25.58
25.83
25.71
25.48
25.40
25.67
26.37
27.43
28.61
29.60
30.14
30.11
29.59
28.83
28.05
27.34
26.55
25.36
23.44
20.70
17.31
13.71
10.34
7.47
5.04
2.75
0.25
-2.67
-6.01
-9.57
-13.14
-16.57
-19.84
-23.02
-26.25
-29.68
-33.49
-37.88
-42.95
-48.64
-54.56
-59.98
-63.89
-65.26
-63.32
-57.83
-49.20
-38.42
-26.76
-15.45
-5.39
2.97
9.58
14.68
18.57
21.54
23.79
25.49
26.75
27.70
28.49
29.24
30.06
30.93
31.80
32.52
33.00
33.23
33.28
33.23
33.06
32.64
31.74
30.11
27.65
24.47
20.86
17.24
13.98
11.27
9.06
7.05
4.87
2.20
-1.07
-4.78
-8.63
-12.25
-15.40
-18.12
-20.67
-23.43
-26.79
-31.01
-36.14
-42.06
-48.38
-54.45
-59.37
-62.17
-62.01
-58.41
-51.52
-42.08
-31.25
-20.28
-10.21
-1.66
5.22
10.56
14.66
17.80
20.16
21.89
23.14
24.07
24.89
25.74
26.65
27.54
28.30
28.85
29.19
29.41
29.59
29.72
29.64
29.10
27.90
26.00
23.50
20.64
17.69
14.78
11.95
9.11
6.18
3.09
-0.15
-3.45
-6.73
-9.92
-13.05
-16.20
-19.50
-23.08
-27.11
-31.69
-36.79
-42.18
-47.28
-51.25
-53.08
-51.98
-47.64
-40.41
-31.16
-21.01
-11.03
-1.91
5.99
12.57
17.79
21.62
24.04
25.15
25.19
24.52
23.61
22.86
22.54
22.81
23.62
24.81
26.09
27.19
27.82
27.80
27.04
25.60
23.60
21.22
18.57
15.69
12.49
8.82
4.63
0.01
-4.72
-9.17
-13.05
-16.32
-19.21
-22.12
-25.45
-29.51
-34.40
-40.04
-46.09
-51.89
-56.41
-58.45
-56.95
-51.49
-42.55
-31.55
-20.33
-10.54
-3.10
2.07
5.73
8.85
12.05
15.45
18.68
21.26
22.91
23.68
23.88
23.85
23.84
23.87
23.90
23.89
23.93
24.14
24.57
25.08
25.32
24.84
23.29
20.64
17.16
13.36
9.72
6.54
3.81
1.30
-1.29
-4.12
-7.21
-10.43
-13.57
-16.50
-19.24
-21.97
-25.02
-28.77
-33.55
-39.40
-45.96
-52.38
-57.47
-59.98
-58.98
-54.22
-46.16
-35.84
-24.54
-13.40
-3.13
5.95
13.84
20.61
26.27
30.78
34.08
36.20
37.33
37.76
37.83
37.82
37.91
38.19
38.62
39.06
39.39
39.46
39.25
38.72
37.89
36.72
35.10
32.89
30.03
26.60
22.84
19.07
15.54
12.29
9.16
5.83
2.06
-2.14
-6.55
-10.77
-14.46
-17.56
-20.25
-22.99
-26.25
-30.38
-35.51
-41.47
-47.84
-54.02
-59.16
-62.36
-62.76
-59.81
-53.46
-44.29
-33.37
-21.95
-11.13
-1.61
6.39
12.94
18.24
22.48
25.70
27.91
29.17
29.60
29.46
29.02
28.59
28.43
28.70
29.42
30.51
31.74
32.78
33.29
33.02
31.83
29.79
27.11
24.04
20.82
17.58
14.37
11.16
7.93
4.66
1.33
-2.05
-5.49
-8.93
-12.34
-15.63
-18.83
-22.02
-25.46
-29.46
-34.21
-39.65
-45.29
-50.28
-53.57
-54.27
-51.82
-46.22
-38.02
-28.13
-17.60
-7.36
1.87
9.71
16.00
20.73
23.96
25.75
26.26
25.79
24.78
23.76
23.22
23.45
24.46
25.99
27.63
29.02
29.92
30.27
30.11
29.52
28.50
26.99
24.91
22.22
18.94
15.17
11.06
6.68
2.12
-2.58
-7.37
-12.09
-16.54
-20.53
-23.96
-27.02
-30.11
-33.79
-38.49
-44.32
-50.83
-57.06
-61.75
-63.68
-62.04
-56.68
-48.14
-37.43
-25.77
-14.19
-3.44
6.07
14.21
20.98
26.51
30.95
34.46
37.21
39.23
40.55
41.15
41.12
40.64
39.99
39.42
39.02
38.73
38.38
37.78
36.81
35.42
33.62
31.38
28.68
25.57
22.17
18.65
15.12
11.58
7.88
3.87
-0.56
-5.33
-10.22
-14.94
-19.25
-23.07
-26.52
-29.92
-33.72
-38.37
-44.10
-50.76
-57.63
-63.55
-67.16
-67.29
-63.40
-55.77
-45.39
-33.70
-22.11
-11.63
-2.73
4.62
10.71
15.79
20.00
23.26
25.49
26.68
26.99
26.74
26.34
26.14
26.35
27.05
28.14
29.41
30.59
31.40
31.67
31.36
30.54
29.33
27.81
25.97
23.79
21.21
18.26
15.05
11.69
8.38
5.38
3.04
1.72
1.60
2.51
3.82
4.57
3.70
0.41
-5.58
-13.91
-23.59
-33.15
-40.95
-45.50
-45.87
-41.99
-34.64
-25.28
-15.54
-6.70
0.57
6.20
10.47
13.69
15.98
17.32
17.70
17.22
16.17
14.94
13.89
13.25
13.13
13.46
14.14
14.99
15.84
16.53
16.87
16.73
15.99
14.61
12.62
10.13
7.25
4.11
0.79
-2.67
-6.23
-9.88
-13.55
-17.20
-20.77
-24.28
-27.84
-31.68
-36.11
-41.35
-47.31
-53.46
-58.84
-62.22
-62.50
-59.04
-51.96
-42.03
-30.51
-18.70
-7.64
2.03
10.13
16.71
21.98
26.12
29.25
31.45
32.78
33.40
33.54
33.47
33.44
33.58
33.92
34.35
34.74
34.99
35.01
34.73
34.01
32.72
30.73
28.04
24.78
21.15
17.34
13.46
9.52
5.49
1.34
-2.88
-7.11
-11.30
-15.45
-19.59
-23.80
-28.16
-32.81
-37.97
-43.81
-50.31
-57.01
-62.98
-66.97
-67.78
-64.64
-57.58
-47.39
-35.35
-22.92
-11.28
-1.12
7.27
13.99
19.23
23.25
26.22
28.33
29.78
30.79
31.55
32.26
33.06
34.00
35.04
36.04
36.80
37.13
36.90
36.09
34.76
33.05
31.06
28.81
26.20
23.18
19.67
15.75
11.54
7.19
2.82
-1.51
-5.73
-9.79
-13.62
-17.18
-20.55
-23.98
-27.88
-32.62
-38.32
-44.63
-50.69
-55.26
-57.11
-55.39
-49.92
-41.27
-30.54
-19.03
-7.92
2.05
10.48
17.31
22.62
26.51
29.10
30.53
31.01
30.89
30.55
30.35
30.46
30.87
31.34
31.59
31.42
30.88
30.16
29.47
28.92
28.33
27.40
25.77
23.31
20.11
16.49
12.79
9.22
5.77
2.28
-1.45
-5.50
-9.77
-14.06
-18.14
-21.90
-25.44
-29.02
-33.10
-38.08
-44.14
-51.00
-57.87
-63.50
-66.56
-65.98
-61.38
-53.14
-42.29
-30.19
-18.13
-7.04
2.59
10.65
17.23
22.50
26.66
29.88
32.33
34.19
35.60
36.67
37.49
38.10
38.53
38.78
38.85
38.70
38.27
37.55
36.51
35.18
33.56
31.60
29.23
26.36
22.97
19.15
15.10
11.06
7.25
3.73
0.40
-2.95
-6.50
-10.33
-14.29
-18.13
-21.56
-24.51
-27.22
-30.18
-33.99
-39.12
-45.64
-53.09
-60.51
-66.66
-70.28
-70.47
-66.83
-59.62
-49.64
-38.00
-25.92
-14.45
-4.31
4.16
10.96
16.25
20.28
23.20
25.13
26.19
26.57
26.61
26.68
27.12
28.05
29.32
30.64
31.65
32.09
31.84
30.91
29.45
27.58
25.41
22.98
20.22
17.05
13.39
9.29
4.88
0.40
-3.92
-7.93
-11.61
-15.06
-18.49
-22.16
-26.32
-31.22
-36.93
-43.29
-49.71
-55.22
-58.64
-58.90
-55.36
-48.10
-37.90
-26.04
-13.95
-2.79
6.73
14.40
20.29
24.62
27.57
29.32
30.05
30.04
29.66
29.26
29.12
29.35
29.90
30.65
31.47
32.28
33.04
33.69
34.10
34.05
33.29
31.65
29.10
25.81
22.09
18.20
14.32
10.43
6.40
2.15
-2.28
-6.71
-10.88
-14.66
-18.11
-21.57
-25.50
-30.35
-36.31
-43.23
-50.49
-57.18
-62.16
-64.43
-63.27
-58.45
-50.29
-39.59
-27.48
-15.18
-3.75
6.06
13.94
19.95
24.42
27.71
30.16
31.92
33.06
33.66
33.85
33.86
33.90
34.08
34.37
34.65
34.79
34.73
34.51
34.18
33.72
33.00
31.78
29.84
27.02
23.39
19.17
14.77
10.58
6.84
3.57
0.53
-2.59
-6.07
-9.95
-14.06
-18.08
-21.82
-25.28
-28.77
-32.75
-37.64
-43.65
-50.58
-57.83
-64.42
-69.17
-70.96
-69.03
-63.26
-54.17
-42.85
-30.63
-18.72
-7.96
1.27
8.94
15.24
20.39
24.55
27.84
30.35
32.17
33.44
34.34
35.06
35.75
36.48
37.20
37.80
38.14
38.17
37.90
37.37
36.59
35.51
33.97
31.85
29.09
25.80
22.22
18.66
15.40
12.55
10.04
7.66
5.07
2.02
-1.60
-5.65
-9.86
-13.86
-17.43
-20.52
-23.37
-26.40
-30.14
-35.02
-41.20
-48.44
-56.03
-62.86
-67.59
-69.02
-66.41
-59.74
-49.77
-37.82
-25.40
-13.76
-3.68
4.65
11.37
16.74
20.94
23.95
25.70
26.19
25.69
24.73
23.95
23.89
24.78
26.47
28.49
30.23
31.24
31.34
30.63
29.38
27.84
26.06
23.93
21.23
17.83
13.74
9.18
4.41
-0.28
-4.71
-8.81
-12.57
-16.02
-19.30
-22.65
-26.40
-30.89
-36.27
-42.36
-48.58
-53.99
-57.55
-58.37
-55.92
-50.21
-41.74
-31.39
-20.21
-9.24
0.74
9.20
15.98
21.12
24.82
27.28
28.73
29.39
29.54
29.50
29.52
29.76
30.20
30.73
31.21
31.60
31.96
32.38
32.86
33.18
32.96
31.81
29.49
26.09
21.95
17.55
13.30
9.33
5.58
1.78
-2.28
-6.71
-11.39
-16.05
-20.41
-24.28
-27.68
-30.85
-34.24
-38.32
-43.39
-49.36
-55.67
-61.27
-64.90
-65.40
-62.12
-55.09
-45.11
-33.44
-21.45
-10.26
-0.51
7.64
14.35
19.91
24.52
28.23
30.95
32.64
33.42
33.60
33.59
33.77
34.30
35.07
35.84
36.33
36.45
36.31
36.09
35.91
35.67
35.09
33.77
31.45
28.13
24.08
19.73
15.56
11.90
8.77
5.93
2.97
-0.46
-4.48
-8.88
-13.29
-17.33
-20.92
-24.26
-27.75
-31.78
-36.60
-42.24
-48.53
-55.14
-61.52
-66.79
-69.88
-69.73
-65.66
-57.75
-46.87
-34.42
-21.86
-10.30
-0.29
8.07
14.91
20.32
24.31
26.89
28.20
28.59
28.58
28.68
29.18
30.08
31.14
32.04
32.57
32.72
32.64
32.49
32.37
32.17
31.67
30.59
28.71
26.01
22.66
18.98
15.33
11.95
8.93
6.14
3.30
0.19
-3.27
-6.98
-10.66
-14.05
-17.04
-19.78
-22.58
-25.91
-30.17
-35.58
-42.01
-48.90
-55.31
-60.05
-62.00
-60.41
-55.15
-46.77
-36.33
-25.08
-14.12
-4.19
4.33
11.37
16.89
20.92
23.44
24.52
24.34
23.29
21.90
20.73
20.24
20.57
21.61
22.93
24.08
24.67
24.57
23.90
22.89
21.68
20.30
18.57
16.28
13.28
9.61
5.44
1.07
-3.19
-7.11
-10.62
-13.83
-16.95
-20.29
-24.11
-28.57
-33.72
-39.41
-45.19
-50.35
-53.96
-55.11
-53.15
-47.95
-39.93
-30.00
-19.23
-8.60
1.20
9.78
16.96
22.66
26.89
29.74
31.39
32.14
32.26
32.03
31.66
31.27
30.95
30.74
30.66
30.72
30.85
30.95
30.79
30.06
28.53
26.10
22.93
19.36
15.78
12.41
9.19
5.88
2.19
-1.97
-6.44
-10.89
-14.98
-18.56
-21.67
-24.54
-27.47
-30.83
-34.92
-39.91
-45.75
-52.02
-57.92
-62.36
-64.22
-62.71
-57.60
-49.29
-38.73
-27.13
-15.64
-5.16
3.84
11.24
17.24
22.10
26.04
29.22
31.67
33.40
34.51
35.16
35.60
36.02
36.52
37.07
37.55
37.80
37.72
37.27
36.44
35.18
33.44
31.14
28.25
24.82
20.97
16.85
12.62
8.38
4.18
-0.00
-4.20
-8.43
-12.72
-17.00
-21.27
-25.58
-30.14
-35.25
-41.13
-47.66
-54.18
-59.56
-62.46
-61.76
-57.06
-48.77
-38.01
-26.19
-14.61
-4.12
4.84
12.21
18.08
22.57
25.76
27.80
28.87
29.23
29.17
28.94
28.76
28.74
28.96
29.38
29.97
30.63
31.22
31.60
31.54
30.83
29.34
27.05
24.09
20.70
17.11
13.45
9.73
5.85
1.73
-2.63
-7.06
-11.32
-15.22
-18.65
-21.71
-24.66
-27.83
-31.59
-36.22
-41.80
-48.06
-54.32
-59.52
-62.46
-62.13
-58.07
-50.47
-40.20
-28.50
-16.63
-5.61
3.91
11.66
17.64
21.93
24.72
26.20
26.69
26.53
26.10
25.76
25.72
26.04
26.66
27.43
28.20
28.80
29.07
28.84
27.96
26.40
24.25
21.66
18.79
15.69
12.29
8.55
4.49
0.31
-3.73
-7.36
-10.52
-13.33
-16.09
-19.19
-23.01
-27.82
-33.68
-40.36
-47.24
-53.38
-57.60
-58.85
-56.47
-50.43
-41.36
-30.37
-18.73
-7.56
2.34
10.60
17.14
22.05
25.53
27.74
28.88
29.23
29.09
28.80
28.62
28.67
29.00
29.60
30.46
31.57
32.86
34.14
35.04
35.14
34.13
31.92
28.74
24.99
21.06
17.21
13.48
9.75
5.86
1.73
-2.65
-7.17
-11.70
-16.10
-20.28
-24.25
-28.14
-32.17
-36.66
-41.89
-47.91
-54.43
-60.73
-65.74
-68.31
-67.46
-62.77
-54.46
-43.40
-30.88
-18.22
-6.49
3.69
12.19
19.11
24.70
29.11
32.46
34.85
36.48
37.63
38.64
39.77
41.11
42.55
43.89
44.90
45.50
45.72
45.68
45.46
45.06
44.30
42.99
40.99
38.28
35.02
31.47
27.83
24.23
20.67
17.09
13.47
9.89
6.52
3.51
0.90
-1.48
-3.94
-6.85
-10.41
-14.63
-19.29
-24.04
-28.58
-32.75
-36.61
-40.37
-44.36
-48.92
-54.27
-60.36
-66.69
-72.29
-75.85
-76.08
-72.16
-64.09
-52.72
-39.48
-25.95
-13.36
-2.38
6.88
14.60
21.02
26.22
30.16
32.78
34.21
34.74
34.83
34.92
35.29
35.98
36.85
37.71
38.49
39.19
39.85
40.43
40.74
40.52
39.54
37.74
35.28
32.44
29.45
26.46
23.46
20.41
17.29
14.15
11.12
8.29
5.65
3.07
0.39
-2.53
-5.73
-9.14
-12.64
-16.10
-19.42
-22.59
-25.71
-28.94
-32.53
-36.75
-41.78
-47.65
-54.08
-60.37
-65.45
-68.05
-67.09
-62.01
-53.05
-41.21
-27.96
-14.84
-3.06
6.73
14.39
20.11
24.12
26.60
27.71
27.63
26.73
25.54
24.67
24.58
25.39
26.91
28.70
30.28
31.38
31.99
32.27
32.41
32.40
32.04
31.02
29.11
26.31
22.87
19.15
15.46
11.94
8.53
5.06
1.36
-2.60
-6.71
-10.77
-14.55
-17.95
-20.99
-23.87
-26.90
-30.41
-34.72
-39.99
-46.20
-52.93
-59.38
-64.35
-66.54
-64.92
-59.08
-49.50
-37.37
-24.27
-11.73
-0.82
8.05
14.98
20.38
24.66
28.05
30.62
32.27
33.00
32.98
32.56
32.17
32.11
32.51
33.19
33.88
34.34
34.46
34.30
34.00
33.64
33.09
32.13
30.44
27.84
24.35
20.22
15.88
11.78
8.23
5.32
2.92
0.72
-1.59
-4.24
-7.33
-10.79
-14.45
-18.12
-21.60
-24.77
-27.65
-30.47
-33.62
-37.60
-42.80
-49.23
-56.38
-63.17
-68.17
-70.02
-67.77
-61.33
-51.37
-39.20
-26.36
-14.19
-3.64
4.95
11.62
16.68
20.44
23.16
24.97
26.03
26.56
26.89
27.34
28.13
29.25
30.48
31.53
32.18
32.39
32.30
32.12
31.99
31.88
31.58
30.80
29.31
27.00
24.00
20.57
17.09
13.87
11.05
8.54
6.09
3.40
0.27
-3.27
-6.96
-10.42
-13.37
-15.71
-17.59
-19.34
-21.32
-23.86
-27.15
-31.31
-36.35
-42.16
-48.38
-54.27
-58.82
-60.88
-59.53
-54.45
-46.02
-35.34
-23.82
-12.83
-3.33
4.24
9.86
13.82
16.45
18.00
18.67
18.62
18.03
17.19
16.43
16.08
16.41
17.45
19.07
21.01
22.98
24.74
26.12
26.94
26.98
25.99
23.83
20.56
16.53
12.29
8.37
5.09
2.42
0.04
-2.48
-5.47
-9.00
-12.85
-16.66
-20.06
-22.84
-25.05
-26.98
-29.12
-32.00
-36.01
-41.33
-47.68
-54.39
-60.39
-64.44
-65.42
-62.63
-56.06
-46.36
-34.70
-22.48
-10.90
-0.79
7.47
13.93
18.84
22.54
25.36
27.55
29.32
30.81
32.15
33.42
34.69
35.99
37.29
38.54
39.60
40.36
40.76
40.78
40.44
39.73
38.57
36.82
34.34
31.09
27.21
22.94
18.58
14.41
10.58
7.11
3.89
0.76
-2.49
-6.02
-9.92
-14.10
-18.40
-22.56
-26.43
-29.95
-33.32
-36.93
-41.22
-46.53
-52.85
-59.65
-65.91
-70.31
-71.59
-68.94
-62.30
-52.38
-40.46
-27.94
-15.96
-5.23
3.96
11.62
17.83
22.67
26.19
28.54
29.97
30.85
31.58
32.43
33.51
34.73
35.93
36.96
37.77
38.41
38.96
39.40
39.60
39.38
38.58
37.18
35.25
32.91
30.27
27.37
24.23
20.89
17.47
14.14
11.04
8.21
5.55
2.87
-0.00
-3.17
-6.60
-10.18
-13.77
-17.28
-20.72
-24.15
-27.68
-31.40
-35.42
-39.86
-44.89
-50.54
-56.57
-62.34
-66.79
-68.70
-67.08
-61.57
-52.56
-41.11
-28.60
-16.30
-5.15
4.37
12.05
17.87
21.83
24.01
24.65
24.21
23.29
22.59
22.65
23.73
25.76
28.42
31.23
33.79
35.82
37.25
38.10
38.42
38.24
37.48
36.10
34.03
31.31
28.06
24.46
20.70
16.89
13.03
9.04
4.80
0.26
-4.50
-9.28
-13.80
-17.85
-21.34
-24.44
-27.52
-31.07
-35.61
-41.42
-48.42
-56.05
-63.28
-68.77
-71.24
-69.82
-64.28
-55.15
-43.55
-30.80
-18.17
-6.55
3.57
12.02
18.82
24.11
28.02
30.76
32.62
33.91
34.96
35.96
36.99
37.96
38.74
39.26
39.51
39.58
39.57
39.46
39.14
38.37
36.88
34.53
31.34
27.52
23.37
19.20
15.19
11.41
7.82
4.31
0.80
-2.75
-6.37
-10.05
-13.78
-17.58
-21.51
-25.72
-30.46
-36.00
-42.53
-49.92
-57.53
-64.25
-68.72
-69.75
-66.66
-59.60
-49.44
-37.51
-25.18
-13.52
-3.16
5.69
13.08
19.19
24.19
28.24
31.45
33.94
35.83
37.25
38.38
39.37
40.35
41.35
42.37
43.35
44.27
45.11
45.76
46.07
45.79
44.73
42.82
40.26
37.36
34.44
31.67
29.01
26.34
23.51
20.55
17.61
14.98
13.05
12.18
12.67
14.46
17.08
19.51
20.45
18.60
13.14
3.96
-8.39
-22.94
-38.50
-53.94
-68.15
-80.09
-88.71
-93.11
-92.76
-87.62
-78.26
-65.82
-51.77
-37.59
-24.53
-13.36
-4.28
2.89
8.52
12.96
16.37
18.79
20.27
21.02
21.38
21.84
22.80
24.40
26.54
28.83
30.78
31.92
32.01
31.03
29.13
26.55
23.47
20.00
16.12
11.87
7.33
2.72
-1.66
-5.60
-9.00
-11.97
-14.74
-17.57
-20.58
-23.75
-26.92
-29.97
-32.86
-35.75
-38.91
-42.69
-47.40
-53.16
-59.85
-66.98
-73.62
-78.57
-80.56
-78.60
-72.36
-62.31
-49.57
-35.69
-22.13
-9.95
0.32
8.72
15.51
21.04
25.53
29.01
31.48
33.06
34.06
34.95
36.17
37.99
40.32
42.84
45.13
46.90
48.08
48.81
49.23
49.37
49.07
48.01
45.92
42.73
38.67
34.20
29.82
25.95
22.67
19.77
16.87
13.57
9.65
5.10
0.16
-4.89
-9.72
-14.16
-18.15
-21.79
-25.36
-29.25
-33.90
-39.72
-46.78
-54.69
-62.46
-68.65
-71.77
-70.72
-65.16
-55.66
-43.52
-30.31
-17.44
-5.82
4.25
12.89
20.42
27.08
32.88
37.65
41.18
43.36
44.34
44.49
44.31
44.20
44.39
44.91
45.64
46.42
47.18
47.88
48.47
48.78
48.60
47.68
45.94
43.42
40.40
37.17
34.01
31.06
28.34
25.81
23.40
21.03
18.58
15.96
13.15
10.20
7.24
4.36
1.49
-1.57
-5.09
-9.19
-13.78
-18.50
-22.97
-26.87
-30.22
-33.37
-36.87
-41.27
-46.82
-53.33
-60.02
-65.72
-69.11
-69.10
-65.16
-57.53
-47.05
-34.97
-22.56
-10.85
-0.51
8.15
15.08
20.39
24.29
27.01
28.79
29.85
30.44
30.82
31.30
32.16
33.55
35.44
37.53
39.44
40.76
41.27
40.98
40.06
38.74
37.19
35.43
33.39
30.94
28.04
24.71
21.10
17.43
13.92
10.73
7.87
5.20
2.50
-0.48
-3.85
-7.54
-11.34
-15.02
-18.41
-21.48
-24.35
-27.22
-30.31
-33.91
-38.27
-43.61
-49.97
-56.99
-63.80
-69.19
-71.74
-70.38
-64.69
-55.16
-43.01
-29.86
-17.20
-6.06
3.13
10.43
16.18
20.78
24.55
27.65
30.23
32.31
33.94
35.17
36.03
36.58
36.86
36.95
36.91
36.83
36.78
36.80
36.86
36.85
36.51
35.57
33.82
31.22
27.97
24.41
20.92
17.70
14.79
12.08
9.41
6.75
4.13
1.62
-0.84
-3.40
-6.30
-9.69
-13.52
-17.53
-21.39
-24.87
-27.97
-31.00
-34.41
-38.65
-43.97
-50.28
-57.10
-63.53
-68.41
-70.54
-69.03
-63.61
-54.76
-43.58
-31.50
-19.83
-9.44
-0.66
6.55
12.41
17.08
20.60
22.96
24.24
24.69
24.70
24.69
24.97
25.68
26.76
27.97
29.07
29.92
30.49
30.91
31.26
31.54
31.54
30.98
29.57
27.17
23.91
20.12
16.21
12.54
9.35
6.64
4.28
2.00
-0.41
-3.11
-6.09
-9.17
-12.11
-14.70
-16.94
-19.00
-21.21
-23.97
-27.58
-32.19
-37.76
-44.04
-50.56
-56.60
-61.19
-63.38
-62.33
-57.67
-49.64
-39.09
-27.21
-15.33
-4.50
4.67
11.99
17.59
21.74
24.64
26.44
27.28
27.36
26.99
26.57
26.45
26.82
27.67
28.82
29.98
30.94
31.57
31.85
31.83
31.52
30.81
29.50
27.38
24.37
20.57
16.36
12.18
8.39
5.11
2.15
-0.83
-4.14
-7.82
-11.68
-15.39
-18.70
-21.62
-24.41
-27.47
-31.19
-35.80
-41.32
-47.54
-54.07
-60.22
-65.11
-67.76
-67.32
-63.40
-56.22
-46.58
-35.68
-24.64
-14.31
-5.11
2.88
9.73
15.51
20.24
23.96
26.76
28.78
30.23
31.27
32.09
32.83
33.61
34.53
35.59
36.70
37.68
38.35
38.56
38.25
37.45
36.22
34.64
32.71
30.42
27.76
24.74
21.46
18.05
14.66
11.39
8.31
5.38
2.51
-0.44
-3.65
-7.26
-11.26
-15.51
-19.74
-23.63
-27.05
-30.10
-33.16
-36.74
-41.27
-46.94
-53.52
-60.38
-66.53
-70.84
-72.27
-70.11
-64.18
-54.96
-43.46
-30.98
-18.80
-7.91
1.17
8.36
13.88
18.06
21.25
23.73
25.69
27.26
28.54
29.65
30.68
31.71
32.75
33.80
34.80
35.70
36.49
37.14
37.56
37.64
37.16
35.95
33.95
31.22
28.00
24.60
21.28
18.25
15.56
13.18
10.98
8.80
6.48
3.96
1.26
-1.52
-4.25
-6.90
-9.55
-12.32
-15.32
-18.59
-22.04
-25.57
-29.19
-33.09
-37.54
-42.81
-48.92
-55.50
-61.73
-66.50
-68.62
-67.20
-61.98
-53.39
-42.53
-30.76
-19.34
-9.12
-0.47
6.61
12.24
16.49
19.37
20.93
21.41
21.25
21.06
21.38
22.52
24.45
26.85
29.25
31.24
32.58
33.28
33.53
33.53
33.33
32.77
31.61
29.60
26.67
23.03
19.01
15.05
11.42
8.21
5.26
2.33
-0.81
-4.27
-7.92
-11.55
-14.90
-17.88
-20.61
-23.40
-26.70
-30.85
-36.08
-42.23
-48.82
-54.98
-59.61
-61.58
-60.04
-54.73
-46.08
-35.15
-23.34
-11.94
-1.89
6.41
12.99
18.16
22.22
25.37
27.65
29.05
29.66
29.70
29.57
29.72
30.46
31.80
33.49
35.08
36.21
36.71
36.68
36.32
35.74
34.88
33.54
31.49
28.66
25.19
21.40
17.65
14.18
11.03
8.08
5.07
1.79
-1.86
-5.87
-10.07
-14.25
-18.17
-21.66
-24.70
-27.48
-30.32
-33.69
-38.01
-43.48
-49.93
-56.66
-62.60
-66.48
-67.20
-64.19
-57.56
-48.04
-36.80
-25.04
-13.75
-3.56
5.22
12.49
18.29
22.66
25.70
27.61
28.71
29.41
30.05
30.87
31.92
33.05
34.05
34.71
34.94
34.80
34.43
34.00
33.56
33.05
32.26
30.94
28.89
25.96
22.20
17.78
13.00
8.14
3.46
-0.93
-5.01
-8.77
-12.16
-15.02
-17.16
-18.43
-18.85
-18.62
-18.12
-17.72
-17.64
-17.94
-18.49
-19.12
-19.75
-20.46
-21.48
-23.14
-25.72
-29.38
-34.07
-39.43
-44.82
-49.40
-52.25
-52.60
-50.01
-44.44
-36.27
-26.25
-15.31
-4.42
5.60
14.21
21.22
26.66
30.71
33.55
35.26
35.95
35.85
35.37
35.05
35.29
36.22
37.61
39.04
40.14
40.81
41.18
41.51
41.87
42.09
41.71
40.20
37.25
32.88
27.45
21.53
15.70
10.28
5.36
0.79
-3.68
-8.24
-12.89
-17.44
-21.58
-25.03
-27.78
-30.08
-32.47
-35.47
-39.49
-44.59
-50.48
-56.52
-61.88
-65.67
-67.08
-65.51
-60.73
-52.91
-42.66
-30.91
-18.69
-6.93
3.68
12.66
19.75
24.78
27.80
29.03
28.96
28.23
27.48
27.14
27.37
28.00
28.71
29.17
29.13
28.58
27.60
26.36
24.99
23.52
21.87
19.85
17.24
13.85
9.65
4.73
-0.65
-6.15
-11.42
-16.19
-20.36
-24.04
-27.53
-31.26
-35.61
-40.71
-46.31
-51.66
-55.75
-57.55
-56.29
-51.77
-44.41
-35.03
-24.67
-14.28
-4.59
3.98
11.22
17.02
21.29
24.06
25.45
25.77
25.45
24.97
24.73
24.99
25.80
27.09
28.68
30.37
31.95
33.23
33.97
33.92
32.90
30.81
27.71
23.84
19.58
15.34
11.47
8.13
5.13
2.09
-1.60
-6.42
-12.57
-19.78
-27.31
-34.06
-38.83
-40.67
-39.09
-34.17
-26.55
-17.23
-7.29
2.32
10.96
18.31
24.30
28.98
32.45
34.74
35.85
35.76
34.54
32.42
29.84
27.42
25.81
25.50
26.63
28.90
31.65
34.05
35.43
35.38
33.87
31.11
27.46
23.24
18.74
14.19
9.77
5.56
1.55
-2.38
-6.38
-10.55
-14.86
-19.13
-23.14
-26.65
-29.59
-31.97
-33.98
-35.82
-37.69
-39.72
-41.97
-44.47
-47.18
-50.15
-53.56
-57.67
-62.68
-68.52
-74.63
-79.94
-83.07
-82.69
-78.02
-69.10
-56.88
-42.83
-28.53
-15.25
-3.68
6.04
14.11
20.85
26.54
31.38
35.54
39.11
42.18
44.79
46.87
48.36
49.18
49.36
49.03
48.40
47.71
47.15
46.88
46.87
47.05
47.20
47.06
46.43
45.20
43.45
41.38
39.25
37.21
35.30
33.40
31.39
29.25
27.09
25.15
23.64
22.64
21.97
21.26
20.08
18.12
15.31
11.83
8.06
4.44
1.34
-1.09
-2.94
-4.57
-6.42
-8.91
-12.26
-16.37
-20.94
-25.54
-29.76
-33.42
-36.61
-39.63
-42.94
-47.00
-52.13
-58.35
-65.22
-71.83
-76.88
-79.01
-77.16
-70.97
-60.89
-48.08
-34.08
-20.39
-8.15
2.03
10.04
16.14
20.79
24.51
27.70
30.63
33.38
35.87
37.97
39.61
40.79
41.61
42.18
42.54
42.71
42.74
42.73
42.79
42.96
43.11
43.02
42.45
41.31
39.69
37.80
35.88
34.01
32.15
30.15
27.82
25.11
22.08
18.93
15.90
13.18
10.85
8.81
6.81
4.52
1.69
-1.76
-5.73
-9.94
-14.07
-17.83
-21.08
-23.82
-26.27
-28.81
-31.99
-36.27
-41.79
-48.18
-54.50
-59.39
-61.53
-60.00
-54.61
-45.99
-35.29
-23.86
-12.84
-2.98
5.42
12.38
18.09
22.76
26.60
29.79
32.48
34.77
36.73
38.37
39.64
40.51
41.01
41.25
41.38
41.59
41.93
42.38
42.71
42.61
41.71
39.78
36.79
32.91
28.47
23.81
19.17
14.60
10.05
5.35
0.36
-4.99
-10.64
-16.48
-22.34
-28.03
-33.46
-38.64
-43.76
-49.12
-55.03
-61.61
-68.62
-75.39
-80.84
-83.83
-83.41
-79.17
-71.38
-60.96
-49.21
-37.40
-26.54
-17.17
-9.43
-3.16
1.84
5.79
8.80
11.01
12.58
13.75
14.77
15.84
17.06
18.40
19.72
20.84
21.63
22.03
22.02
21.62
20.85
19.71
18.19
16.29
14.04
11.46
8.59
5.47
2.17
-1.22
-4.61
-7.97
-11.32
-14.76
-18.42
-22.46
-26.96
-31.90
-37.05
-41.89
-45.68
-47.55
-46.76
-42.98
-36.41
-27.81
-18.25
-8.82
-0.35
6.70
12.21
16.29
19.17
21.07
22.18
22.69
22.73
22.44
21.98
21.47
21.07
20.83
20.75
20.75
20.73
20.59
20.29
19.84
19.25
18.47
17.38
15.83
13.66
10.86
7.53
3.92
0.32
-3.03
-6.06
-8.81
-11.44
-14.16
-17.15
-20.57
-24.53
-29.07
-34.07
-39.15
-43.69
-46.86
-47.84
-46.02
-41.28
-34.05
-25.26
-16.07
-7.57
-0.45
5.05
9.11
12.03
13.98
15.01
15.08
14.24
12.81
11.30
10.24
9.99
10.55
11.61
12.69
13.41
13.58
13.27
12.65
11.88
10.93
9.65
7.83
5.34
2.26
-1.15
-4.51
-7.47
-9.91
-11.92
-13.79
-15.87
-18.43
-21.69
-25.67
-30.30
-35.28
-40.15
-44.21
-46.70
-46.93
-44.46
-39.29
-31.93
-23.24
-14.25
-5.90
1.20
6.82
11.06
14.16
16.34
17.71
18.30
18.15
17.44
16.54
15.88
15.84
16.59
17.97
19.65
21.18
22.20
22.49
22.06
21.03
19.63
18.02
16.31
14.51
12.56
10.32
7.70
4.61
1.12
-2.63
-6.41
-10.02
-13.33
-16.34
-19.18
-22.10
-25.39
-29.35
-34.13
-39.62
-45.32
-50.36
-53.66
-54.27
-51.63
-45.89
-37.77
-28.37
-18.81
-9.86
-1.89
5.05
11.05
16.17
20.28
23.26
25.05
25.81
25.95
26.01
26.44
27.39
28.75
30.15
31.27
31.94
32.23
32.31
32.35
32.35
32.18
31.67
30.66
29.12
27.11
24.69
21.93
18.92
15.76
12.61
9.63
6.87
4.24
1.54
-1.45
-4.81
-8.45
-12.15
-15.65
-18.86
-21.85
-24.90
-28.33
-32.40
-37.24
-42.76
-48.69
-54.51
-59.45
-62.63
-63.18
-60.52
-54.57
-45.82
-35.26
-24.09
-13.40
-3.97
3.91
10.24
15.21
19.00
21.69
23.35
24.15
24.36
24.41
24.67
25.32
26.27
27.27
28.06
28.54
28.86
29.23
29.80
30.56
31.26
31.58
31.28
30.21
28.42
26.04
23.22
20.20
17.16
14.24
11.44
8.63
5.61
2.19
-1.61
-5.68
-9.78
-13.76
-17.55
-21.28
-25.18
-29.50
-34.41
-39.90
-45.74
-51.32
-55.83
-58.30
-57.95
-54.38
-47.74
-38.70
-28.27
-17.56
-7.53
1.15
8.10
13.24
16.72
18.85
19.99
20.47
20.58
20.53
20.51
20.69
21.17
21.93
22.86
23.76
24.44
24.87
25.10
25.22
25.26
25.07
24.45
23.21
21.31
18.88
16.10
13.14
10.06
6.80
3.31
-0.41
-4.28
-8.10
-11.71
-15.03
-18.11
-21.18
-24.60
-28.79
-33.98
-40.05
-46.40
-51.98
-55.57
-56.17
-53.32
-47.25
-38.76
-28.92
-18.79
-9.17
-0.54
6.86
12.94
17.70
21.20
23.53
24.86
25.44
25.58
25.62
25.90
26.65
27.89
29.51
31.26
32.86
34.14
35.01
35.43
35.29
34.44
32.72
30.08
26.69
22.90
19.20
15.95
13.30
11.06
8.83
6.16
2.76
-1.35
-5.89
-10.45
-14.66
-18.37
-21.67
-24.88
-28.43
-32.72
-38.05
-44.50
-51.74
-59.05
-65.31
-69.29
-69.95
-66.82
-60.17
-50.85
-40.05
-28.93
-18.35
-8.84
-0.66
6.14
11.57
15.77
18.94
21.33
23.22
24.82
26.28
27.68
29.10
30.55
31.97
33.23
34.19
34.78
35.03
35.05
34.94
34.65
33.96
32.63
30.45
27.48
24.00
20.45
17.20
14.41
11.97
9.65
7.15
4.31
1.13
-2.23
-5.57
-8.67
-11.45
-13.99
-16.57
-19.57
-23.39
-28.32
-34.40
-41.39
-48.67
-55.33
-60.31
-62.57
-61.33
-56.38
-48.09
-37.45
-25.76
-14.26
-3.90
4.91
12.17
18.14
23.12
27.32
30.78
33.50
35.52
36.99
38.14
39.19
40.29
41.46
42.67
43.83
44.88
45.79
46.51
46.90
46.77
45.96
44.39
42.16
39.48
36.61
33.73
30.89
28.00
24.96
21.70
18.28
14.83
11.50
8.36
5.39
2.48
-0.53
-3.77
-7.21
-10.77
-14.24
-17.47
-20.41
-23.18
-26.10
-29.58
-34.01
-39.58
-46.07
-52.82
-58.74
-62.62
-63.40
-60.57
-54.25
-45.23
-34.65
-23.70
-13.34
-4.15
3.60
9.88
14.73
18.26
20.61
22.00
22.73
23.16
23.64
24.40
25.51
26.86
28.23
29.42
30.34
31.01
31.53
31.95
32.18
31.99
31.08
29.28
26.62
23.40
20.04
16.90
14.17
11.76
9.41
6.80
3.73
0.17
-3.69
-7.59
-11.26
-14.55
-17.53
-20.38
-23.43
-27.02
-31.46
-36.86
-43.02
-49.30
-54.67
-57.92
-57.99
-54.34
-47.20
-37.46
-26.42
-15.31
-5.07
3.84
11.28
17.28
21.89
25.18
27.27
28.44
29.06
29.54
30.19
31.17
32.46
33.88
35.19
36.18
36.77
36.98
36.93
36.74
36.42
35.79
34.58
32.50
29.46
25.63
21.43
17.38
13.90
11.11
8.82
6.59
3.99
0.76
-3.04
-7.16
-11.25
-15.08
-18.55
-21.78
-25.02
-28.52
-32.60
-37.48
-43.25
-49.71
-56.24
-61.83
-65.25
-65.44
-61.84
-54.64
-44.68
-33.28
-21.71
-10.97
-1.60
6.32
12.86
18.19
22.39
25.47
27.49
28.57
28.99
29.11
29.30
29.76
30.49
31.31
31.95
32.22
32.07
31.66
31.15
30.65
30.03
29.03
27.33
24.85
21.73
18.34
15.10
12.26
9.81
7.57
5.26
2.68
-0.22
-3.36
-6.58
-9.69
-12.57
-15.18
-17.58
-19.93
-22.48
-25.51
-29.33
-34.11
-39.78
-45.93
-51.79
-56.25
-58.20
-56.78
-51.72
-43.46
-33.08
-21.88
-11.13
-1.66
6.16
12.39
17.28
21.07
23.93
25.89
26.98
27.29
27.05
26.59
26.26
26.30
26.75
27.50
28.32
29.00
29.44
29.62
29.56
29.24
28.56
27.32
25.41
22.83
19.79
16.63
13.70
11.24
9.22
7.47
5.64
3.47
0.84
-2.18
-5.36
-8.49
-11.40
-14.06
-16.57
-19.12
-21.96
-25.32
-29.41
-34.31
-39.90
-45.72
-50.99
-54.69
-55.81
-53.67
-48.14
-39.73
-29.47
-18.63
-8.38
0.50
7.70
13.26
17.45
20.53
22.69
24.07
24.82
25.13
25.32
25.66
26.37
27.49
28.90
30.38
31.68
32.65
33.21
33.36
33.10
32.41
31.24
29.55
27.34
24.64
21.61
18.40
15.18
12.12
9.24
6.48
3.57
0.24
-3.77
-8.45
-13.56
-18.65
-23.27
-27.14
-30.21
-32.73
-35.08
-37.74
-41.13
-45.59
-51.11
-57.31
-63.31
-67.90
-69.82
-68.16
-62.69
-53.98
-43.20
-31.70
-20.69
-10.87
-2.43
4.70
10.70
15.59
19.30
21.81
23.31
24.23
25.08
26.27
27.84
29.56
31.06
32.06
32.55
32.74
32.93
33.28
33.74
34.04
33.80
32.70
30.58
27.51
23.75
19.73
15.86
12.47
9.65
7.23
4.89
2.24
-0.93
-4.61
-8.59
-12.55
-16.22
-19.54
-22.62
-25.72
-29.20
-33.36
-38.33
-43.97
-49.76
-54.92
-58.42
-59.33
-57.04
-51.48
-43.18
-33.09
-22.36
-12.01
-2.75
5.05
11.35
16.25
19.94
22.58
24.32
25.36
25.95
26.41
26.99
27.84
28.93
30.11
31.21
32.13
32.89
33.56
34.23
34.84
35.17
34.93
33.85
31.79
28.86
25.32
21.57
17.94
14.61
11.62
8.77
5.83
2.58
-1.08
-5.06
-9.09
-12.88
-16.24
-19.15
-21.89
-24.87
-28.55
-33.23
-38.89
-45.13
-51.20
-56.13
-58.93
-58.83
-55.49
-49.09
-40.32
-30.24
-19.99
-10.52
-2.44
4.05
9.03
12.71
15.31
17.02
18.03
18.53
18.75
18.91
19.15
19.54
20.09
20.72
21.36
21.89
22.19
22.16
21.75
20.98
19.93
18.69
17.26
15.54
13.41
10.81
7.83
4.63
1.37
-1.88
-5.17
-8.60
-12.22
-15.99
-19.80
-23.61
-27.55
-31.84
-36.66
-41.94
-47.22
-51.67
-54.35
-54.44
-51.53
-45.71
-37.61
-28.14
-18.32
-9.04
-0.85
6.02
11.60
16.01
19.39
21.81
23.30
23.98
24.10
24.05
24.26
24.99
26.31
27.96
29.58
30.78
31.33
31.21
30.52
29.41
28.00
26.31
24.31
21.98
19.26
16.13
12.54
8.51
4.13
-0.37
-4.72
-8.68
-12.15
-15.26
-18.35
-21.82
-26.01
-31.09
-37.00
-43.36
-49.51
-54.57
-57.55
-57.65
-54.45
-48.12
-39.39
-29.31
-18.96
-9.14
-0.28
7.51
14.27
20.03
24.76
28.38
30.90
32.51
33.44
33.98
34.30
34.48
34.51
34.37
34.13
33.89
33.73
33.66
33.51
33.02
31.89
29.96
27.24
23.95
20.39
16.90
13.69
10.79
8.10
5.39
2.45
-0.84
-4.42
-8.10
-11.60
-14.74
-17.53
-20.21
-23.25
-27.14
-32.19
-38.39
-45.29
-52.01
-57.48
-60.59
-60.53
-56.99
-50.22
-41.02
-30.52
-19.82
-9.77
-0.86
6.84
13.44
19.09
23.87
27.73
30.61
32.54
33.68
34.35
34.87
35.51
36.34
37.27
38.15
38.80
39.15
39.21
39.03
38.68
38.14
37.33
36.14
34.45
32.28
29.69
26.89
24.06
21.34
18.78
16.34
13.90
11.34
8.59
5.65
2.55
-0.67
-4.01
-7.45
-10.97
-14.47
-17.86
-21.09
-24.32
-27.87
-32.14
-37.44
-43.69
-50.36
-56.39
-60.55
-61.74
-59.36
-53.50
-44.85
-34.51
-23.68
-13.38
-4.30
3.24
9.21
13.77
17.15
19.61
21.38
22.69
23.77
24.86
26.12
27.62
29.26
30.87
32.22
33.18
33.73
33.98
34.01
33.87
33.49
32.72
31.43
29.56
27.15
24.30
21.18
17.93
14.72
11.62
8.66
5.76
2.80
-0.35
-3.73
-7.26
-10.78
-14.14
-17.36
-20.62
-24.26
-28.63
-33.88
-39.86
-46.01
-51.42
-55.09
-56.06
-53.78
-48.22
-39.89
-29.76
-18.98
-8.63
0.58
8.34
14.68
19.82
23.94
27.14
29.40
30.70
31.16
31.06
30.82
30.86
31.47
32.67
34.20
35.70
36.79
37.25
37.08
36.40
35.36
34.02
32.36
30.35
28.04
25.54
23.08
20.82
18.79
16.93
15.05
13.01
10.71
8.14
5.32
2.32
-0.78
-3.92
-7.01
-10.04
-13.04
-16.08
-19.23
-22.49
-25.83
-29.26
-32.88
-36.93
-41.60
-46.93
-52.51
-57.46
-60.62
-60.89
-57.63
-50.93
-41.54
-30.73
-19.74
-9.59
-0.81
6.44
12.25
16.82
20.34
22.97
24.84
26.13
26.98
27.56
27.99
28.39
28.85
29.44
30.17
30.98
31.79
32.44
32.82
32.81
32.37
31.48
30.15
28.40
26.22
23.69
20.90
18.02
15.25
12.72
10.48
8.44
6.46
4.32
1.92
-0.79
-3.74
-6.83
-9.92
-12.88
-15.66
-18.29
-20.90
-23.70
-26.96
-30.93
-35.77
-41.37
-47.30
-52.84
-57.08
-59.15
-58.41
-54.71
-48.35
-40.06
-30.76
-21.36
-12.61
-5.00
1.23
6.05
9.53
11.84
13.23
13.99
14.40
14.73
15.16
15.76
16.49
17.31
18.15
18.94
19.67
20.34
20.94
21.42
21.70
21.59
20.88
19.39
17.06
14.09
10.83
7.71
5.05
2.90
1.01
-0.93
-3.22
-5.90
-8.82
-11.70
-14.34
-16.73
-19.05
-21.60
-24.67
-28.42
-32.83
-37.58
-42.08
-45.53
-47.11
-46.19
-42.58
-36.55
-28.79
-20.22
-11.71
-3.87
2.92
8.55
13.01
16.28
18.41
19.50
19.78
19.59
19.28
19.13
19.27
19.64
20.09
20.47
20.77
21.04
21.36
21.75
22.04
21.99
21.33
19.92
17.81
15.22
12.43
9.71
7.15
4.71
2.25
-0.42
-3.39
-6.61
-9.95
-13.19
-16.16
-18.79
-21.22
-23.76
-26.84
-30.86
-35.98
-42.04
-48.45
-54.30
-58.63
-60.60
-59.73
-56.00
-49.85
-42.08
-33.67
-25.52
-18.32
-12.38
-7.64
-3.78
-0.41
2.79
5.94
9.01
11.85
14.30
16.34
17.97
19.28
20.36
21.34
22.38
23.65
25.35
27.53
30.06
32.54
34.43
35.15
34.38
32.18
28.96
25.37
21.97
19.10
16.72
14.55
12.24
9.54
6.37
2.85
-0.79
-4.30
-7.59
-10.69
-13.80
-17.20
-21.17
-25.90
-31.40
-37.45
-43.56
-48.99
-52.87
-54.39
-53.04
-48.76
-42.01
-33.61
-24.58
-15.80
-7.91
-1.19
4.29
8.65
12.05
14.69
16.75
18.39
19.76
21.00
22.19
23.41
24.65
25.83
26.83
27.54
27.91
27.94
27.69
27.20
26.45
25.42
24.04
22.29
20.14
17.60
14.74
11.70
8.70
5.96
3.60
1.59
-0.26
-2.25
-4.57
-7.29
-10.26
-13.23
-16.00
-18.52
-20.87
-23.31
-26.15
-29.67
-34.05
-39.21
-44.77
-49.97
-53.85
-55.45
-54.11
-49.71
-42.68
-33.88
-24.31
-14.90
-6.27
1.25
7.57
12.71
16.74
19.69
21.67
22.81
23.35
23.61
23.92
24.52
25.46
26.65
27.90
29.04
29.95
30.65
31.18
31.54
31.64
31.33
30.43
28.85
26.62
23.94
21.11
18.46
16.25
14.62
13.56
12.88
12.28
11.43
10.06
8.05
5.42
2.21
-1.53
-5.86
-10.88
-16.53
-22.45
-27.91
-32.01
-33.98
-33.56
-31.13
-27.57
-23.98
-21.22
-19.76
-19.63
-20.52
-21.92
-23.26
-23.94
-23.41
-21.37
-17.92
-13.62
-9.39
-6.11
-4.34
-4.00
-4.52
-5.03
-4.75
-3.26
-0.56
3.06
7.19
11.41
15.42
18.96
21.81
23.77
24.75
24.76
23.89
22.30
20.05
17.14
13.53
9.27
4.57
-0.19
-4.53
-8.08
-10.67
-12.37
-13.37
-14.01
-14.64
-15.59
-17.10
-19.32
-22.14
-25.20
-27.90
-29.55
-29.65
-27.98
-24.67
-20.08
-14.62
-8.66
-2.50
3.56
9.21
14.14
18.12
21.07
23.13
24.53
25.49
26.10
26.32
26.02
25.18
23.92
22.54
21.40
20.76
20.63
20.77
20.76
20.16
18.74
16.49
13.61
10.35
6.93
3.43
-0.16
-3.83
-7.60
-11.40
-15.17
-18.86
-22.40
-25.66
-28.53
-30.86
-32.64
-33.98
-35.18
-36.57
-38.47
-40.98
-43.82
-46.35
-47.67
-46.87
-43.39
-37.25
-29.11
-20.05
-11.18
-3.32
3.21
8.48
12.70
15.98
18.30
19.56
19.80
19.30
18.52
17.98
18.04
18.82
20.15
21.73
23.20
24.29
24.81
24.70
23.95
22.59
20.65
18.17
15.23
11.93
8.43
4.87
1.42
-1.78
-4.62
-7.08
-9.25
-11.41
-13.93
-17.23
-21.48
-26.54
-31.85
-36.51
-39.54
-40.14
-37.98
-33.24
-26.58
-18.95
-11.23
-4.07
2.24
7.65
12.23
15.99
18.86
20.75
21.65
21.77
21.44
21.07
20.94
21.12
21.49
21.79
21.80
21.45
20.81
20.06
19.31
18.54
17.53
15.96
13.52
10.09
5.89
1.36
-2.98
-6.68
-9.68
-12.24
-14.87
-18.18
-22.59
-28.22
-34.81
-41.78
-48.28
-53.32
-55.99
-55.59
-51.87
-45.13
-36.10
-25.87
-15.46
-5.65
3.11
10.77
17.45
23.27
28.26
32.32
35.32
37.20
38.07
38.21
37.99
37.78
37.77
37.98
38.26
38.37
38.07
37.26
35.90
34.06
31.85
29.35
26.64
23.73
20.62
17.30
13.76
10.04
6.21
2.34
-1.51
-5.32
-9.10
-12.90
-16.83
-21.01
-25.65
-30.90
-36.72
-42.70
-48.07
-51.77
-52.83
-50.63
-45.22
-37.25
-27.72
-17.70
-8.01
0.87
8.80
15.77
21.85
27.08
31.43
34.89
37.45
39.12
39.99
40.25
40.14
39.96
39.94
40.18
40.57
40.93
41.05
40.84
40.34
39.60
38.59
37.14
35.01
32.05
28.38
24.35
20.41
16.85
13.72
10.73
7.48
3.66
-0.76
-5.57
-10.33
-14.65
-18.29
-21.26
-23.81
-26.37
-29.43
-33.37
-38.34
-44.09
-50.01
-55.15
-58.50
-59.18
-56.68
-51.08
-42.95
-33.23
-22.99
-13.12
-4.20
3.50
9.92
15.12
19.14
22.04
23.95
25.07
25.73
26.23
26.80
27.53
28.34
29.10
29.69
30.01
30.01
29.66
28.97
27.93
26.58
24.91
22.94
20.66
18.04
15.11
11.92
8.58
5.23
1.98
-1.16
-4.19
-7.13
-10.04
-12.91
-15.77
-18.77
-22.12
-26.09
-30.86
-36.32
-41.94
-46.83
-49.87
-50.13
-47.13
-41.05
-32.66
-23.11
-13.58
-4.96
2.27
8.03
12.50
15.88
18.33
19.91
20.64
20.58
19.92
18.99
18.16
17.75
17.96
18.79
20.02
21.41
22.66
23.54
23.90
23.67
22.86
21.49
19.60
17.19
14.31
11.04
7.53
4.04
0.81
-2.00
-4.38
-6.55
-8.87
-11.75
-15.50
-20.32
-26.13
-32.60
-39.23
-45.25
-49.85
-52.23
-51.83
-48.45
-42.30
-33.97
-24.27
-14.08
-4.21
4.75
12.39
18.51
23.13
26.46
28.85
30.70
32.37
34.06
35.81
37.48
38.88
39.91
40.66
41.53
43.03
45.72
49.95
55.68
62.28
68.53
72.81
73.46
69.35
60.26
47.14
31.83
16.57
3.34
-6.71
-13.43
-17.48
-19.91
-21.65
-23.23
-24.70
-25.82
-26.34
-26.21
-25.76
-25.56
-26.13
-27.53
-29.28
-30.46
-30.17
-27.97
-24.13
-19.44
-14.83
-10.80
-7.32
-3.95
-0.23
3.81
7.67
10.50
11.57
10.63
8.03
4.59
1.19
-1.50
-3.26
-4.28
-4.91
-5.51
-6.18
-6.79
-7.04
-6.67
-5.60
-4.02
-2.29
-0.83
0.02
0.17
-0.26
-0.93
-1.47
-1.58
-1.23
-0.62
-0.10
-0.04
-0.59
-1.73
-3.24
-4.90
-6.65
-8.53
-10.72
-13.36
-16.55
-20.33
-24.81
-30.06
-36.15
-42.89
-49.77
-55.94
-60.38
-62.21
-60.97
-56.77
-50.24
-42.35
-34.04
-26.07
-18.87
-12.55
-7.07
-2.33
1.73
5.14
7.96
10.32
12.44
14.49
16.55
18.57
20.39
21.84
22.83
23.39
23.58
23.50
23.11
22.37
21.18
19.49
17.32
14.74
11.85
8.76
5.58
2.38
-0.74
-3.76
-6.67
-9.49
-12.25
-14.99
-17.77
-20.70
-23.93
-27.66
-32.04
-37.06
-42.42
-47.54
-51.57
-53.68
-53.20
-49.89
-43.97
-36.11
-27.18
-18.05
-9.39
-1.57
5.27
11.11
16.00
19.92
22.87
24.91
26.19
26.95
27.50
28.04
28.70
29.42
30.06
30.47
30.57
30.38
29.99
29.48
28.77
27.66
25.95
23.55
20.62
17.52
14.62
12.13
9.97
7.84
5.43
2.56
-0.76
-4.31
-7.86
-11.27
-14.50
-17.57
-20.56
-23.57
-26.80
-30.50
-34.93
-40.14
-45.77
-51.01
-54.76
-55.90
-53.69
-48.08
-39.71
-29.70
-19.30
-9.48
-0.80
6.53
12.55
17.33
20.91
23.32
24.71
25.31
25.46
25.45
25.48
25.61
25.81
26.04
26.22
26.29
26.20
25.95
25.60
25.22
24.86
24.48
23.91
22.97
21.52
19.58
17.30
14.91
12.57
10.26
7.87
5.21
2.21
-1.09
-4.49
-7.80
-10.87
-13.69
-16.39
-19.17
-22.26
-25.85
-30.06
-34.85
-39.98
-44.91
-48.89
-51.04
-50.63
-47.26
-41.07
-32.72
-23.25
-13.77
-5.17
2.03
7.78
12.29
15.85
18.64
20.69
22.01
22.63
22.73
22.63
22.62
22.91
23.54
24.37
25.21
25.84
26.15
26.08
25.65
24.92
23.91
22.60
20.93
18.82
16.23
13.18
9.77
6.14
2.44
-1.25
-4.86
-8.37
-11.77
-15.06
-18.29
-21.54
-25.03
-28.99
-33.64
-38.92
-44.49
-49.64
-53.43
-54.94
-53.54
-49.09
-41.98
-33.07
-23.38
-13.88
-5.30
2.00
7.97
12.75
16.57
19.60
21.92
23.54
24.52
24.98
25.18
25.36
25.72
26.28
26.97
27.59
27.99
28.03
27.68
26.91
25.70
24.07
22.00
19.54
16.67
13.43
9.86
6.04
2.08
-1.86
-5.67
-9.30
-12.78
-16.26
-19.91
-23.91
-28.42
-33.55
-39.26
-45.29
-51.08
-55.74
-58.28
-57.90
-54.23
-47.55
-38.64
-28.63
-18.61
-9.34
-1.22
5.73
11.66
16.68
20.76
23.78
25.63
26.39
26.38
26.10
26.01
26.36
27.14
28.05
28.77
29.09
29.04
28.74
28.30
27.68
26.71
25.15
22.88
19.98
16.69
13.31
10.03
6.85
3.62
0.16
-3.60
-7.53
-11.37
-14.88
-17.97
-20.82
-23.77
-27.24
-31.50
-36.50
-41.81
-46.59
-49.79
-50.42
-47.87
-42.12
-33.79
-23.94
-13.71
-4.10
4.37
11.45
17.22
21.79
25.27
27.76
29.34
30.14
30.35
30.25
30.13
30.24
30.69
31.40
32.20
32.85
33.18
33.11
32.63
31.73
30.39
28.53
26.11
23.15
19.75
16.07
12.24
8.36
4.49
0.69
-2.98
-6.46
-9.71
-12.77
-15.76
-18.87
-22.36
-26.47
-31.38
-37.03
-43.07
-48.79
-53.22
-55.39
-54.57
-50.50
-43.52
-34.43
-24.28
-14.09
-4.60
3.77
10.98
17.14
22.39
26.77
30.20
32.56
33.79
34.04
33.62
32.95
32.37
32.05
31.95
31.87
31.64
31.19
30.56
29.82
28.90
27.65
25.83
23.32
20.19
16.69
13.17
9.89
6.93
4.18
1.42
-1.48
-4.55
-7.64
-10.60
-13.29
-15.74
-18.11
-20.70
-23.88
-28.00
-33.18
-39.21
-45.41
-50.70
-53.84
-53.78
-50.03
-42.81
-33.04
-22.00
-10.94
-0.76
8.09
15.56
21.78
26.95
31.14
34.37
36.64
38.04
38.75
39.07
39.34
39.82
40.59
41.56
42.54
43.31
43.72
43.75
43.49
43.02
42.44
41.86
41.44
41.28
41.26
41.03
39.95
37.27
32.42
25.24
16.01
5.40
-5.77
-16.77
-27.08
-36.38
-44.53
-51.44
-57.10
-61.50
-64.69
-66.67
-67.41
-66.73
-64.41
-60.23
-54.15
-46.44
-37.67
-28.58
-19.88
-12.03
-5.16
0.88
6.31
11.21
15.46
18.80
21.01
22.04
22.13
21.69
21.19
20.98
21.13
21.54
22.04
22.50
22.92
23.37
23.86
24.27
24.35
23.81
22.47
20.35
17.65
14.62
11.44
8.16
4.74
1.12
-2.70
-6.59
-10.36
-13.80
-16.78
-19.33
-21.66
-24.13
-27.18
-31.18
-36.30
-42.32
-48.62
-54.21
-57.91
-58.68
-55.92
-49.65
-40.54
-29.71
-18.38
-7.63
1.90
9.94
16.60
22.12
26.73
30.58
33.69
36.12
37.97
39.42
40.72
42.03
43.35
44.54
45.46
46.05
46.49
47.09
48.10
49.51
50.93
51.77
51.46
49.72
46.78
43.21
39.73
36.81
34.53
32.54
30.31
27.37
23.59
19.11
14.24
9.20
4.02
-1.42
-7.31
-13.77
-20.77
-28.25
-36.14
-44.31
-52.46
-59.95
-65.82
-69.04
-68.88
-65.22
-58.62
-50.18
-41.11
-32.41
-24.58
-17.69
-11.60
-6.13
-1.24
2.95
6.25
8.56
9.89
10.48
10.66
10.82
11.26
12.11
13.39
14.97
16.68
18.32
19.72
20.72
21.16
20.95
20.02
18.42
16.25
13.71
11.07
8.55
6.32
4.39
2.66
0.98
-0.81
-2.78
-4.96
-7.36
-10.01
-12.92
-16.08
-19.39
-22.69
-25.82
-28.75
-31.64
-34.82
-38.63
-43.25
-48.49
-53.72
-57.93
-59.99
-58.99
-54.56
-47.08
-37.49
-27.08
-17.02
-8.09
-0.59
5.57
10.58
14.57
17.53
19.42
20.31
20.46
20.29
20.22
20.53
21.20
22.08
22.87
23.44
23.77
23.98
24.23
24.56
24.89
24.95
24.50
23.32
21.41
18.93
16.22
13.61
11.34
9.50
7.95
6.43
4.60
2.22
-0.74
-4.15
-7.68
-11.00
-13.87
-16.24
-18.30
-20.44
-23.09
-26.63
-31.24
-36.77
-42.73
-48.29
-52.43
-54.21
-52.96
-48.57
-41.45
-32.50
-22.76
-13.24
-4.69
2.48
8.17
12.45
15.51
17.60
18.95
19.78
20.26
20.56
20.77
20.98
21.29
21.79
22.56
23.58
24.76
25.84
26.52
26.50
25.55
23.65
21.00
17.94
14.84
11.95
9.30
6.71
3.91
0.68
-3.02
-7.02
-11.09
-14.98
-18.53
-21.76
-24.78
-27.88
-31.37
-35.56
-40.56
-46.14
-51.64
-56.04
-58.26
-57.46
-53.35
-46.36
-37.39
-27.61
-18.06
-9.51
-2.30
3.54
8.19
11.91
14.91
17.33
19.23
20.70
21.87
22.94
24.16
25.70
27.51
29.43
31.17
32.45
33.13
33.19
32.70
31.74
30.33
28.51
26.32
23.87
21.30
18.73
16.16
13.53
10.68
7.46
3.83
-0.14
-4.26
-8.33
-12.25
-16.08
-20.03
-24.45
-29.62
-35.64
-42.26
-48.87
-54.51
-58.16
-58.96
-56.48
-50.85
-42.76
-33.21
-23.27
-13.81
-5.38
1.82
7.78
12.59
16.33
19.01
20.64
21.31
21.21
20.66
20.04
19.69
19.74
20.14
20.66
21.05
21.17
21.03
20.74
20.41
19.99
19.30
18.07
16.13
13.48
10.35
7.06
3.83
0.80
-2.10
-5.01
-8.05
-11.31
-14.79
-18.45
-22.30
-26.34
-30.60
-35.08
-39.64
-43.97
-47.56
-49.74
-49.83
-47.36
-42.23
-34.75
-25.68
-15.95
-6.47
2.04
9.19
14.82
18.97
21.71
23.17
23.49
22.95
21.91
20.85
20.18
20.19
20.90
22.10
23.44
24.57
25.30
25.57
25.45
24.97
24.14
22.84
20.93
18.33
15.01
11.13
6.89
2.54
-1.68
-5.60
-9.20
-12.56
-15.90
-19.53
-23.82
-28.98
-35.00
-41.46
-47.58
-52.27
-54.50
-53.53
-49.19
-41.91
-32.65
-22.59
-12.79
-3.95
3.64
10.01
15.34
19.72
23.16
25.59
27.06
27.79
28.19
28.66
29.48
30.67
32.02
33.22
34.02
34.33
34.24
33.94
33.55
33.06
32.29
30.97
28.92
26.10
22.69
19.01
15.35
11.87
8.56
5.18
1.54
-2.46
-6.75
-11.07
-15.14
-18.81
-22.20
-25.69
-29.76
-34.78
-40.76
-47.23
-53.19
-57.38
-58.62
-56.18
-50.09
-41.08
-30.44
-19.52
-9.36
-0.44
7.32
14.27
20.71
26.68
31.90
36.02
38.81
40.41
41.28
42.08
43.43
45.74
49.03
53.02
57.14
60.70
62.94
63.15
60.71
55.19
46.52
35.11
21.96
8.51
-3.60
-13.02
-19.01
-21.61
-21.51
-19.62
-16.86
-13.85
-11.09
-9.03
-8.14
-8.77
-10.98
-14.39
-18.38
-22.29
-25.84
-29.21
-32.91
-37.43
-42.94
-49.06
-54.98
-59.63
-62.05
-61.60
-58.10
-51.88
-43.61
-34.24
-24.72
-15.82
-8.02
-1.49
3.85
8.12
11.46
13.97
15.77
17.07
18.19
19.43
20.97
22.79
24.66
26.27
27.44
28.16
28.56
28.83
29.03
29.03
28.55
27.32
25.26
22.51
19.38
16.26
13.37
10.78
8.30
5.69
2.78
-0.46
-3.85
-7.18
-10.26
-13.09
-15.88
-18.94
-22.61
-27.12
-32.45
-38.26
-43.97
-48.69
-51.51
-51.65
-48.74
-42.91
-34.75
-25.20
-15.23
-5.68
2.87
10.09
15.86
20.17
23.08
24.78
25.47
25.51
25.27
25.12
25.32
25.99
27.05
28.20
29.07
29.34
28.88
27.76
26.18
24.36
22.41
20.30
17.97
15.37
12.54
9.56
6.51
3.40
0.19
-3.17
-6.64
-10.13
-13.53
-16.81
-20.10
-23.73
-28.06
-33.32
-39.40
-45.77
-51.47
-55.37
-56.52
-54.36
-48.96
-40.90
-31.11
-20.59
-10.19
-0.57
7.94
15.17
21.11
25.83
29.43
32.05
33.84
34.97
35.64
36.08
36.47
36.97
37.63
38.41
39.24
39.99
40.58
40.93
41.00
40.73
40.08
38.95
37.30
35.07
32.32
29.31
26.46
24.34
23.40
23.71
24.80
25.73
25.31
22.49
16.59
7.36
-5.07
-20.35
-37.75
-56.15
-73.96
-89.21
-100.02
-105.04
-103.88
-97.11
-86.09
-72.46
-57.83
-43.47
-30.26
-18.73
-9.07
-1.22
5.10
10.33
14.91
19.20
23.32
27.19
30.54
33.16
35.00
36.31
37.47
38.85
40.53
42.29
43.66
44.20
43.67
42.18
40.05
37.63
35.12
32.51
29.63
26.34
22.65
18.79
15.09
11.89
9.32
7.24
5.27
2.95
-0.03
-3.70
-7.81
-11.91
-15.61
-18.71
-21.32
-23.79
-26.61
-30.27
-35.10
-41.17
-48.20
-55.41
-61.70
-65.78
-66.52
-63.35
-56.44
-46.68
-35.37
-23.83
-13.05
-3.61
4.36
10.91
16.18
20.28
23.31
25.40
26.75
27.63
28.31
29.02
29.89
30.90
31.95
32.93
33.76
34.42
34.99
35.46
35.79
35.81
35.28
33.97
31.76
28.66
24.89
20.83
16.88
13.38
10.44
7.93
5.51
2.79
-0.50
-4.36
-8.56
-12.71
-16.42
-19.51
-22.04
-24.39
-27.11
-30.75
-35.66
-41.75
-48.47
-54.82
-59.58
-61.59
-60.12
-55.00
-46.73
-36.35
-25.12
-14.29
-4.73
3.08
9.10
13.52
16.63
18.71
19.96
20.62
20.92
21.13
21.47
22.07
22.92
23.90
24.83
25.50
25.85
25.86
25.63
25.25
24.79
24.18
23.22
21.63
19.13
15.68
11.44
6.86
2.48
-1.27
-4.18
-6.44
-8.49
-10.88
-14.06
-18.23
-23.29
-28.91
-34.56
-39.64
-43.51
-45.54
-45.17
-42.06
-36.11
-27.58
-17.03
-5.13
7.40
19.91
31.66
41.65
48.68
51.48
49.20
41.85
30.59
17.50
5.11
-4.35
-9.62
-10.63
-8.31
-4.07
0.75
5.26
9.09
12.12
14.31
15.46
15.30
13.62
10.45
6.14
1.24
-3.66
-8.12
-11.94
-15.17
-17.93
-20.42
-22.87
-25.58
-28.86
-33.06
-38.33
-44.54
-51.07
-56.91
-60.80
-61.61
-58.67
-51.99
-42.30
-30.85
-18.99
-7.93
1.58
9.27
15.22
19.77
23.27
26.05
28.27
30.00
31.21
31.98
32.44
32.79
33.24
33.88
34.61
35.16
35.23
34.61
33.23
31.25
28.87
26.24
23.38
20.20
16.50
12.20
7.33
2.14
-3.00
-7.73
-11.76
-15.11
-17.98
-20.78
-23.95
-27.91
-32.85
-38.74
-45.22
-51.57
-56.80
-59.79
-59.63
-55.84
-48.63
-38.81
-27.65
-16.45
-6.24
2.39
9.37
14.90
19.33
22.92
25.80
28.04
29.72
30.99
32.05
33.10
34.20
35.28
36.12
36.54
36.46
35.96
35.21
34.37
33.47
32.38
30.84
28.66
25.83
22.48
18.94
15.47
12.24
9.20
6.23
3.17
-0.09
-3.50
-7.00
-10.50
-13.95
-17.42
-21.07
-25.13
-29.84
-35.39
-41.69
-48.27
-54.22
-58.41
-59.72
-57.48
-51.67
-42.88
-32.18
-20.76
-9.65
0.40
8.94
15.76
20.79
24.05
25.70
26.04
25.53
24.70
24.05
23.98
24.66
26.02
27.74
29.40
30.54
30.89
30.36
29.16
27.60
26.03
24.60
23.24
21.62
19.31
15.96
11.50
6.16
0.45
-5.04
-9.88
-13.93
-17.36
-20.66
-24.39
-29.08
-34.95
-41.80
-48.96
-55.30
-59.57
-60.62
-57.84
-51.27
-41.68
-30.32
-18.56
-7.50
2.15
10.17
16.67
21.84
25.89
28.95
31.14
32.59
33.55
34.26
34.93
35.68
36.43
37.08
37.56
37.85
38.05
38.22
38.29
38.02
37.06
35.07
31.92
27.78
23.05
18.27
13.84
9.96
6.52
3.23
-0.28
-4.21
-8.55
-13.06
-17.41
-21.25
-24.49
-27.30
-30.11
-33.52
-38.00
-43.73
-50.40
-57.15
-62.74
-65.79
-65.25
-60.59
-52.09
-40.71
-27.82
-14.86
-2.94
7.27
15.65
22.35
27.67
31.82
34.94
37.10
38.42
39.10
39.41
39.59
39.75
39.82
39.64
39.10
38.25
37.28
36.45
35.89
35.46
34.82
33.54
31.36
28.29
24.62
20.84
17.32
14.20
11.31
8.32
4.86
0.81
-3.68
-8.24
-12.45
-16.05
-19.14
-22.10
-25.53
-29.97
-35.68
-42.52
-49.91
-56.92
-62.47
-65.50
-65.24
-61.37
-54.09
-44.17
-32.71
-20.93
-9.91
-0.32
7.53
13.67
18.29
21.56
23.62
24.58
24.63
24.14
23.57
23.36
23.82
24.96
26.51
28.05
29.17
29.66
29.50
28.83
27.78
26.41
24.62
22.20
19.03
15.16
10.83
6.47
2.45
-0.99
-3.88
-6.52
-9.36
-12.83
-17.23
-22.66
-28.99
-35.89
-42.86
-49.16
-53.90
-56.13
-55.05
-50.34
-42.30
-31.85
-20.31
-9.02
0.98
9.15
15.39
19.92
23.05
25.03
26.10
26.47
26.43
26.24
26.19
26.43
26.99
27.79
28.68
29.48
30.06
30.30
30.14
29.50
28.29
26.51
24.15
21.28
17.99
14.34
10.36
6.10
1.62
-2.91
-7.32
-11.42
-15.15
-18.60
-21.96
-25.56
-29.71
-34.71
-40.67
-47.43
-54.45
-60.75
-65.11
-66.41
-63.91
-57.58
-48.13
-36.75
-24.80
-13.42
-3.34
5.14
12.04
17.56
21.93
25.33
27.92
29.78
31.03
31.80
32.23
32.47
32.61
32.70
32.71
32.65
32.51
32.30
31.97
31.40
30.40
28.87
26.76
24.15
21.15
17.84
14.20
10.14
5.66
0.90
-3.85
-8.25
-12.09
-15.42
-18.58
-22.04
-26.28
-31.58
-37.99
-45.20
-52.58
-59.14
-63.70
-65.09
-62.57
-56.08
-46.36
-34.76
-22.76
-11.59
-1.89
6.29
13.25
19.30
24.55
28.86
32.00
33.87
34.60
34.58
34.32
34.26
34.60
35.31
36.12
36.73
36.90
36.59
35.88
34.89
33.60
31.86
29.34
25.78
21.10
15.54
9.59
3.86
-1.17
-5.34
-8.80
-11.96
-15.23
-18.93
-23.24
-28.22
-33.87
-40.10
-46.63
-52.90
-58.01
-60.91
-60.69
-56.86
-49.59
-39.68
-28.35
-16.90
-6.35
2.73
10.19
16.14
20.68
23.85
25.59
25.95
25.17
23.78
22.43
21.62
21.58
22.15
22.92
23.48
23.58
23.21
22.52
21.62
20.43
18.75
16.28
12.92
8.78
4.24
-0.23
-4.28
-7.78
-10.90
-14.03
-17.60
-21.99
-27.31
-33.42
-39.89
-46.06
-51.09
-54.08
-54.24
-51.09
-44.65
-35.51
-24.74
-13.58
-3.22
5.61
12.62
17.93
21.75
24.31
25.65
25.84
25.10
23.87
22.78
22.33
22.73
23.80
25.07
26.04
26.42
26.16
25.40
24.29
22.86
20.98
18.46
15.10
10.91
6.06
0.88
-4.23
-8.91
-12.98
-16.52
-19.86
-23.52
-28.00
-33.70
-40.57
-48.10
-55.28
-60.84
-63.48
-62.32
-57.17
-48.55
-37.60
-25.69
-14.05
-3.51
5.61
13.36
19.97
25.58
30.14
33.42
35.22
35.54
34.75
33.50
32.49
32.19
32.67
33.59
34.40
34.64
34.10
32.84
31.08
29.04
26.75
24.09
20.87
16.98
12.43
7.40
2.22
-2.80
-7.40
-11.48
-15.10
-18.49
-22.00
-26.00
-30.83
-36.63
-43.22
-50.02
-56.05
-60.16
-61.28
-58.75
-52.53
-43.22
-31.88
-19.73
-7.90
2.82
12.00
19.53
25.51
30.11
33.55
35.99
37.63
38.64
39.23
39.58
39.84
40.08
40.30
40.43
40.47
40.41
40.34
40.36
40.40
40.31
39.75
38.39
36.03
32.71
28.77
24.71
21.04
17.94
15.32
12.77
9.83
6.21
1.98
-2.51
-6.75
-10.30
-13.06
-15.23
-17.33
-19.95
-23.57
-28.36
-34.07
-40.00
-45.10
-48.11
-47.92
-43.89
-36.19
-25.89
-14.73
-4.69
2.60
6.39
6.96
5.43
3.20
1.44
0.70
0.93
1.77
2.89
4.21
5.87
8.00
10.56
13.18
15.38
16.76
17.21
16.95
16.37
15.79
15.32
14.80
13.93
12.50
10.47
8.05
5.55
3.26
1.24
-0.61
-2.52
-4.70
-7.15
-9.80
-12.46
-14.97
-17.31
-19.56
-21.93
-24.70
-28.14
-32.43
-37.46
-42.78
-47.48
-50.43
-50.54
-47.17
-40.37
-30.95
-20.16
-9.35
0.43
8.54
14.82
19.28
22.07
23.33
23.28
22.25
20.69
19.12
17.99
17.64
18.18
19.47
21.20
22.92
24.21
24.71
24.34
23.20
21.56
19.69
17.75
15.68
13.32
10.49
7.19
3.60
0.01
-3.30
-6.23
-8.88
-11.47
-14.34
-17.73
-21.76
-26.33
-31.11
-35.46
-38.59
-39.61
-37.83
-33.05
-25.60
-16.37
-6.48
2.95
11.14
17.64
22.34
25.30
26.62
26.43
24.92
22.42
19.39
16.39
13.90
12.21
11.30
10.87
10.55
10.01
9.18
8.25
7.44
6.88
6.36
5.42
3.47
0.16
-4.51
-10.06
-15.75
-20.88
-25.00
-28.06
-30.43
-32.75
-35.69
-39.76
-45.06
-51.20
-57.28
-62.08
-64.42
-63.47
-59.05
-51.61
-42.11
-31.71
-21.42
-11.93
-3.56
3.65
9.75
14.79
18.76
21.61
23.43
24.43
24.98
25.44
26.01
26.69
27.25
27.37
26.83
25.63
23.99
22.22
20.56
19.02
17.27
14.84
11.30
6.51
0.78
-5.25
-10.82
-15.40
-18.88
-21.58
-24.09
-27.05
-30.90
-35.85
-41.82
-48.43
-54.92
-60.16
-62.85
-61.76
-56.32
-46.83
-34.62
-21.63
-9.83
-0.65
5.45
8.91
10.70
11.89
13.17
14.83
16.74
18.75
20.72
22.71
24.79
26.97
29.04
30.67
31.54
31.46
30.56
29.17
27.68
26.34
25.17
24.02
22.63
20.83
18.57
15.89
12.84
9.47
5.75
1.63
-2.83
-7.46
-11.97
-16.05
-19.43
-22.07
-24.15
-26.13
-28.60
-32.14
-37.11
-43.35
-50.13
-56.19
-60.03
-60.33
-56.43
-48.47
-37.45
-24.84
-12.19
-0.67
9.08
17.01
23.37
28.50
32.60
35.71
37.78
38.82
39.05
38.82
38.61
38.79
39.46
40.50
41.63
42.55
43.08
43.20
42.93
42.34
41.44
40.21
38.59
36.56
34.09
31.18
27.92
24.39
20.82
17.41
14.30
11.52
8.88
6.08
2.82
-1.04
-5.40
-9.95
-14.31
-18.25
-21.76
-25.08
-28.59
-32.68
-37.62
-43.47
-50.06
-56.84
-62.95
-67.28
-68.69
-66.38
-60.20
-50.73
-39.13
-26.79
-14.92
-4.29
4.84
12.45
18.64
23.44
26.85
28.88
29.80
30.01
30.03
30.28
30.93
31.91
32.98
33.92
34.60
35.04
35.31
35.47
35.53
35.37
34.86
33.89
32.44
30.58
28.44
26.14
23.75
21.27
18.67
15.94
13.07
10.14
7.19
4.23
1.21
-1.91
-5.12
-8.31
-11.31
-14.00
-16.36
-18.50
-20.68
-23.17
-26.27
-30.19
-35.08
-40.82
-46.98
-52.72
-56.92
-58.44
-56.50
-50.95
-42.30
-31.62
-20.16
-9.06
0.83
9.00
15.23
19.52
21.99
22.94
22.76
21.95
20.96
20.13
19.65
19.60
19.99
20.82
22.06
23.62
25.32
26.86
27.94
28.27
27.69
26.22
23.96
21.12
17.94
14.60
11.24
7.90
4.57
1.20
-2.25
-5.76
-9.25
-12.61
-15.76
-18.68
-21.44
-24.19
-27.21
-30.86
-35.42
-40.98
-47.25
-53.43
-58.39
-60.89
-60.01
-55.44
-47.57
-37.37
-26.09
-14.91
-4.76
3.88
10.85
16.22
20.21
23.03
24.87
25.89
26.30
26.33
26.23
26.26
26.65
27.46
28.64
29.98
31.15
31.79
31.64
30.62
28.84
26.56
24.07
21.55
19.01
16.36
13.46
10.24
6.73
3.04
-0.68
-4.32
-7.79
-11.06
-14.13
-17.14
-20.29
-23.91
-28.30
-33.66
-39.84
-46.28
-52.02
-55.91
-56.93
-54.52
-48.79
-40.48
-30.73
-20.70
-11.30
-3.03
3.99
9.82
14.55
18.28
21.10
23.15
24.61
25.73
26.66
27.49
28.24
28.95
29.70
30.59
31.68
32.87
33.91
34.46
34.25
33.16
31.24
28.68
25.69
22.49
19.20
15.84
12.37
8.70
4.78
0.59
-3.76
-8.14
-12.36
-16.34
-20.14
-23.91
-27.91
-32.35
-37.45
-43.24
-49.58
-56.01
-61.70
-65.61
-66.71
-64.35
-58.53
-49.93
-39.63
-28.86
-18.51
-9.14
-0.94
6.05
11.81
16.30
19.52
21.61
22.84
23.57
24.11
24.68
25.38
26.20
27.11
28.06
29.01
29.86
30.51
30.80
30.55
29.67
28.12
25.96
23.30
20.26
16.98
13.51
9.87
6.10
2.23
-1.63
-5.31
-8.69
-11.72
-14.55
-17.43
-20.64
-24.45
-29.02
-34.30
-40.03
-45.65
-50.33
-53.12
-53.19
-50.07
-43.81
-35.04
-24.74
-14.03
-3.87
5.00
12.20
17.60
21.26
23.36
24.18
24.03
23.31
22.43
21.83
21.82
22.55
23.90
25.57
27.21
28.57
29.55
30.17
30.43
30.21
29.32
27.56
24.93
21.62
17.97
14.32
10.80
7.33
3.71
-0.29
-4.69
-9.31
-13.79
-17.79
-21.19
-24.16
-27.10
-30.60
-35.10
-40.78
-47.32
-53.98
-59.65
-63.12
-63.44
-60.16
-53.44
-44.05
-33.13
-21.87
-11.24
-1.81
6.27
13.05
18.67
23.23
26.77
29.31
30.93
31.85
32.37
32.83
33.51
34.52
35.80
37.11
38.15
38.65
38.50
37.70
36.39
34.66
32.53
29.88
26.64
22.80
18.51
14.03
9.56
5.20
0.91
-3.32
-7.45
-11.39
-14.99
-18.26
-21.37
-24.69
-28.62
-33.49
-39.30
-45.68
-51.86
-56.75
-59.25
-58.46
-53.99
-46.11
-35.73
-24.14
-12.67
-2.38
6.20
13.04
18.45
22.86
26.60
29.80
32.38
34.26
35.39
35.89
36.03
36.12
36.42
37.04
37.96
39.00
39.93
40.51
40.55
39.90
38.59
36.70
34.44
32.08
29.88
28.06
26.63
25.30
23.41
20.07
14.43
6.11
-4.49
-16.17
