1707401411.00
64.000000
-0.00
-0.00
-0.00
-0.00
-0.00
-0.00
-0.00
-0.00
-0.00
-0.00
0.00
0.01
0.01
-0.00
-0.03
-0.05
-0.05
0.00
0.13
0.36
0.66
1.01
1.37
1.72
2.06
2.40
2.79
3.24
3.80
4.42
5.06
5.66
6.20
6.68
7.15
7.68
8.31
9.14
10.09
11.04
11.88
12.56
13.14
13.76
14.65
15.96
17.91
20.32
22.90
25.38
27.58
29.57
31.68
34.32
37.81
42.54
48.15
54.10
59.83
64.97
69.58
74.14
79.34
85.71
93.76
103.00
112.62
121.73
129.77
136.75
143.30
150.75
157.77
166.64
177.95
191.79
206.97
220.57
228.25
225.36
208.53
176.87
132.76
80.05
23.07
-34.94
-92.44
-149.16
-205.23
-260.37
-313.74
-363.87
-409.82
-450.89
-486.47
-515.68
-537.15
-549.11
-549.81
-538.18
-513.96
-478.38
-433.53
-382.04
-326.54
-269.30
-212.02
-155.98
-102.20
-51.54
-4.99
36.58
72.51
102.54
126.80
145.79
160.24
170.84
178.22
182.78
184.80
184.52
182.21
178.22
172.95
166.81
160.16
153.23
146.18
139.08
131.96
124.87
117.88
111.05
104.46
98.16
92.17
86.53
81.24
76.30
71.73
67.54
63.73
60.30
57.26
54.62
52.36
50.49
48.99
47.82
46.94
46.27
45.68
45.05
44.20
42.95
41.14
38.61
35.29
31.15
26.24
20.62
14.50
8.08
1.65
-4.53
-10.21
-15.17
-19.27
-22.40
-24.55
-25.75
-26.08
-25.69
-24.71
-23.27
-21.52
-19.55
-17.43
-15.19
-12.85
-10.43
-7.94
-5.39
-2.76
-0.06
2.70
5.53
8.43
11.42
14.44
17.49
20.54
23.61
26.72
29.88
33.15
36.57
40.22
44.03
47.94
51.97
56.10
60.36
64.78
69.40
74.30
79.57
85.07
90.71
96.45
102.26
108.10
113.97
119.87
125.81
131.82
137.62
142.96
147.64
151.40
153.96
154.96
153.90
150.10
144.88
138.75
132.02
124.92
117.61
110.23
102.89
95.70
88.76
82.24
75.96
69.83
63.84
57.99
52.28
46.75
41.45
36.42
31.75
27.30
23.03
18.94
15.07
11.48
8.21
5.28
2.72
0.56
-1.30
-2.90
-4.24
-5.30
-6.08
-6.60
-6.91
-7.12
-7.34
-7.67
-8.20
-8.88
-9.63
-10.37
-11.09
-11.86
-12.85
-14.20
-16.02
-18.26
-20.69
-23.03
-25.07
-26.80
-28.49
-30.58
-33.57
-37.77
-43.18
-49.47
-56.16
-62.83
-69.44
-76.31
-84.09
-93.47
-104.84
-118.09
-132.67
-147.82
-162.86
-177.54
-191.98
-206.70
-222.39
-239.95
-260.29
-284.07
-311.11
-339.66
-366.33
-386.65
-396.57
-394.05
-379.95
-357.59
-331.21
-304.16
-277.81
-251.73
-224.84
-196.68
-167.97
-140.25
-114.99
-92.98
-74.30
-58.80
-46.59
-37.92
-32.72
-29.95
-27.35
-21.85
-10.64
7.88
33.46
64.08
96.71
128.24
156.28
179.34
196.79
208.49
214.67
215.84
212.89
207.07
199.62
191.36
182.41
172.18
159.76
144.45
126.22
105.80
84.48
63.72
44.70
28.08
13.90
1.65
-9.48
-20.29
-31.37
-42.85
-54.42
-65.39
-74.82
-81.78
-85.57
-85.87
-82.98
-77.69
-71.21
-64.77
-59.32
-55.35
-52.90
-51.78
-51.77
-52.68
-54.44
-56.91
-59.92
-63.32
-67.02
-71.16
-75.93
-81.47
-87.61
-93.80
-99.25
-103.19
-105.18
-105.35
-104.45
-103.70
-104.36
-107.18
-111.97
-117.37
-121.09
-120.55
-113.70
-99.63
-78.84
-52.94
-24.03
5.88
35.21
62.90
88.21
110.53
129.20
143.41
152.41
155.66
153.15
145.59
134.37
121.45
108.87
98.35
90.91
86.75
85.40
85.98
87.52
89.17
90.29
90.37
88.97
85.72
80.57
74.07
67.57
63.27
63.51
70.08
83.40
102.07
123.16
143.05
158.36
166.86
167.87
161.98
150.61
135.30
117.39
97.98
78.15
59.17
42.57
29.75
21.55
17.88
17.71
19.27
20.53
19.59
14.89
5.52
-8.47
-25.95
-44.70
-61.96
-75.38
-83.79
-87.62
-88.36
-87.53
-85.70
-82.17
-75.58
-65.08
-51.34
-36.67
-24.22
-16.53
-14.43
-16.78
-21.20
-25.36
-28.08
-29.63
-31.19
-33.90
-37.97
-42.56
-46.33
-48.19
-47.93
-46.27
-44.44
-43.58
-44.23
-46.25
-49.00
-51.91
-54.76
-57.89
-61.95
-67.50
-74.64
-82.84
-91.10
-98.27
-103.40
-105.89
-105.39
-101.68
-94.67
-84.48
-71.60
-57.07
-42.09
-27.77
-14.72
-3.03
7.58
17.36
26.24
33.91
39.98
44.41
47.59
50.33
53.38
57.22
61.82
66.69
71.08
74.20
75.30
73.80
69.34
61.82
51.61
39.59
27.01
15.28
5.52
-1.67
-6.31
-8.86
-9.90
-9.90
-9.09
-7.63
-5.64
-3.34
-0.93
1.58
4.38
7.79
11.97
16.73
21.41
25.19
27.34
27.57
26.15
23.76
21.19
19.03
17.42
16.03
14.33
11.78
8.16
3.62
-1.48
-6.75
-12.08
-17.70
-24.09
-31.77
-40.95
-51.34
-62.12
-72.10
-80.01
-84.85
-86.03
-83.46
-77.51
-68.83
-58.27
-46.68
-34.93
-23.76
-13.87
-5.84
-0.21
2.64
2.51
-0.52
-5.94
-12.98
-20.60
-27.83
-33.95
-38.54
-41.42
-42.44
-41.45
-38.32
-33.21
-26.74
-19.98
-14.27
-10.87
-10.62
-13.62
-19.18
-25.85
-31.72
-34.88
-33.87
-28.13
-18.06
-4.86
9.96
24.97
39.08
51.55
61.75
69.10
73.01
73.14
69.56
62.83
53.92
43.94
33.90
24.51
16.13
8.87
2.64
-2.66
-7.14
-10.89
-14.00
-16.66
-19.09
-21.62
-24.67
-28.65
-33.92
-40.50
-47.99
-55.32
-60.84
-62.77
-59.66
-51.03
-37.49
-20.66
-2.63
14.68
29.94
42.56
52.43
59.69
64.47
66.83
67.01
65.45
62.92
60.31
58.31
57.22
56.92
57.07
57.34
57.65
58.22
59.28
60.90
62.61
63.39
61.93
56.96
47.80
34.69
18.83
2.23
-12.94
-24.80
-32.25
-35.09
-33.83
-29.37
-22.75
-15.01
-7.12
-0.05
5.35
8.45
9.01
7.29
3.90
-0.43
-5.06
-9.53
-13.59
-17.04
-19.69
-21.34
-21.92
-21.52
-20.38
-18.86
-17.24
-15.75
-14.57
-14.00
-14.47
-16.51
-20.49
-26.31
-33.21
-39.79
-44.33
-45.33
-41.98
-34.39
-23.49
-10.70
2.52
15.02
26.01
35.05
41.86
46.26
48.22
47.99
46.02
43.09
40.03
37.52
35.87
34.92
34.10
32.66
30.07
26.20
21.45
16.51
12.00
8.22
5.03
1.93
-1.73
-6.46
-12.43
-19.37
-26.50
-32.73
-36.77
-37.52
-34.37
-27.42
-17.53
-6.08
5.39
15.53
23.40
28.60
31.04
30.98
28.88
25.34
21.06
16.72
12.91
9.97
8.01
6.81
6.04
5.32
4.41
3.24
1.86
0.36
-1.26
-3.00
-5.03
-7.56
-10.89
-15.28
-20.77
-26.93
-32.79
-36.97
-38.06
-35.14
-28.17
-18.06
-6.36
5.28
15.63
24.09
30.49
34.90
37.31
37.62
35.86
32.33
27.67
22.75
18.35
14.89
12.27
10.12
7.93
5.44
2.66
-0.12
-2.65
-4.83
-6.85
-9.08
-11.95
-15.79
-20.75
-26.71
-33.23
-39.58
-44.67
-47.37
-46.70
-42.21
-34.15
-23.44
-11.43
0.50
11.17
19.85
26.24
30.31
32.16
31.97
29.97
26.56
22.30
17.82
13.73
10.40
7.81
5.66
3.54
1.13
-1.65
-4.54
-7.24
-9.54
-11.58
-13.84
-16.95
-21.44
-27.39
-34.30
-41.08
-46.32
-48.65
-47.09
-41.40
-32.06
-20.13
-6.95
6.19
18.25
28.50
36.44
41.75
44.21
43.85
40.99
36.39
31.06
26.11
22.31
19.89
18.49
17.31
15.61
12.98
9.53
5.78
2.37
-0.31
-2.32
-4.18
-6.61
-10.33
-15.71
-22.73
-30.83
-38.97
-45.79
-49.84
-49.93
-45.54
-36.96
-25.32
-12.26
0.52
11.67
20.43
26.60
30.41
32.19
32.29
31.01
28.70
25.89
23.19
21.18
20.19
20.13
20.55
20.76
20.19
18.57
16.03
12.94
9.70
6.53
3.45
0.31
-3.05
-6.77
-10.97
-15.72
-21.11
-27.11
-33.42
-39.26
-43.57
-45.08
-42.90
-36.76
-27.21
-15.50
-3.11
8.56
18.54
26.30
31.67
34.78
35.84
35.19
33.25
30.49
27.34
24.18
21.30
18.86
16.90
15.35
14.01
12.66
11.19
9.62
8.09
6.71
5.47
4.21
2.65
0.56
-2.22
-5.74
-10.09
-15.40
-21.76
-28.96
-36.26
-42.37
-45.76
-45.11
-39.93
-30.65
-18.55
-5.30
7.49
18.67
27.63
34.20
38.42
40.43
40.40
38.59
35.38
31.27
26.85
22.67
19.13
16.42
14.43
12.86
11.36
9.71
7.86
5.94
4.10
2.34
0.49
-1.72
-4.64
-8.58
-13.75
-20.19
-27.63
-35.44
-42.61
-47.89
-50.09
-48.50
-42.97
-34.13
-23.08
-11.16
0.40
10.65
18.97
25.05
28.78
30.29
29.84
27.88
25.00
21.90
19.25
17.57
17.11
17.71
18.91
19.96
20.17
19.10
16.73
13.39
9.58
5.67
1.72
-2.54
-7.59
-13.90
-21.62
-30.46
-39.54
-47.61
-53.17
-54.97
-52.25
-45.07
-34.30
-21.35
-7.80
5.00
16.16
25.16
31.82
36.02
37.79
37.31
34.98
31.49
27.63
24.04
21.07
18.69
16.63
14.51
12.09
9.31
6.32
3.38
0.71
-1.60
-3.66
-5.84
-8.57
-12.32
-17.41
-23.85
-31.25
-38.71
-44.97
-48.66
-48.60
-44.21
-35.72
-24.20
-11.22
1.61
13.02
22.36
29.47
34.45
37.46
38.51
37.60
34.81
30.53
25.40
20.22
15.66
12.10
9.55
7.70
6.12
4.52
2.80
1.09
-0.42
-1.60
-2.56
-3.67
-5.42
-8.26
-12.57
-18.42
-25.51
-33.08
-39.98
-44.82
-46.24
-43.29
-35.76
-24.24
-10.04
5.19
19.94
33.09
44.10
52.83
59.32
63.68
65.95
66.26
64.95
62.61
59.98
57.70
56.10
55.12
54.37
53.39
51.77
49.31
45.94
41.75
36.98
31.94
27.05
22.57
18.52
14.46
9.52
2.72
-6.62
-18.44
-31.72
-44.64
-55.03
-61.00
-61.50
-56.56
-47.30
-35.51
-23.12
-11.76
-2.43
4.46
9.03
11.53
12.10
10.74
7.27
1.59
-6.20
-15.73
-26.40
-37.61
-48.90
-59.95
-70.51
-80.29
-88.87
-95.85
-101.06
-104.67
-107.20
-109.44
-112.15
-116.00
-121.42
-128.69
-137.89
-148.84
-160.88
-172.84
-183.03
-189.58
-191.00
-186.70
-177.22
-164.10
-149.31
-134.63
-121.21
-109.43
-99.06
-89.60
-80.41
-70.76
-59.84
-46.66
-30.30
-10.22
13.49
40.00
67.85
95.27
120.61
142.53
160.11
172.75
180.04
181.73
177.88
169.07
156.44
141.53
125.98
111.09
97.65
85.91
75.86
67.48
60.83
56.09
53.39
52.68
53.65
55.70
58.04
59.90
60.73
60.33
58.86
56.71
54.31
52.06
50.36
49.67
50.49
53.26
58.08
64.62
72.21
80.09
87.43
93.55
97.85
99.92
99.58
96.98
92.46
86.15
77.74
66.44
51.47
32.67
10.92
-11.90
-33.46
-51.67
-65.22
-73.57
-76.73
-74.73
-67.63
-55.80
-40.23
-22.78
-5.88
8.18
18.02
23.67
26.49
28.48
31.30
35.63
41.05
46.56
51.29
55.00
58.02
60.84
63.57
65.79
66.74
65.65
61.99
55.61
46.70
35.63
22.95
9.29
-4.64
-18.07
-30.22
-40.31
-47.63
-51.65
-52.16
-49.40
-44.07
-37.20
-29.79
-22.67
-16.40
-11.25
-7.33
-4.69
-3.24
-2.76
-2.94
-3.52
-4.32
-5.30
-6.45
-7.76
-9.10
-10.35
-11.46
-12.50
-13.62
-14.98
-16.62
-18.47
-20.42
-22.36
-24.32
-26.43
-28.90
-32.01
-35.97
-40.73
-45.93
-50.71
-53.91
-54.32
-51.12
-44.19
-34.20
-22.41
-10.20
1.31
11.54
20.43
28.09
34.60
39.80
43.44
45.31
45.50
44.36
42.33
39.70
36.53
32.73
28.25
23.29
18.22
13.43
9.09
5.12
1.27
-2.65
-6.64
-10.63
-14.57
-18.60
-22.93
-27.61
-32.34
-36.42
-38.96
-39.16
-36.66
-31.51
-24.16
-15.31
-5.74
3.68
12.15
19.02
23.95
26.89
28.14
28.12
27.23
25.79
24.00
22.06
20.14
18.36
16.76
15.25
13.60
11.59
9.13
6.29
3.36
0.63
-1.66
-3.58
-5.43
-7.71
-10.89
-15.20
-20.55
-26.46
-32.17
-36.76
-39.38
-39.34
-36.36
-30.61
-22.76
-13.85
-5.07
2.52
8.21
11.70
13.00
12.28
9.75
5.62
0.19
-6.01
-12.30
-17.94
-22.34
-25.26
-26.85
-27.47
-27.56
-27.40
-27.08
-26.60
-25.99
-25.38
-25.02
-25.30
-26.59
-29.06
-32.65
-36.97
-41.33
-44.84
-46.59
-45.81
-42.11
-35.61
-26.97
-17.28
-7.86
0.13
5.86
9.07
9.91
8.85
6.49
3.45
0.34
-2.22
-3.61
-3.39
-1.47
1.80
5.82
9.92
13.61
16.67
19.16
21.19
22.83
24.11
25.01
25.61
25.97
26.15
26.13
25.84
25.26
24.57
24.19
24.67
26.50
29.93
34.87
41.03
48.01
55.40
62.80
69.81
75.99
80.94
84.46
86.67
87.97
88.90
89.87
90.99
92.10
92.83
92.78
91.77
89.78
87.11
84.21
81.50
79.06
76.38
72.27
65.06
53.20
35.84
13.32
-12.73
-39.74
-64.86
-85.73
-100.86
-109.91
-113.53
-113.09
-110.24
-106.56
-103.20
-100.64
-98.60
-96.13
-91.89
-84.49
-73.00
-57.42
-38.84
-19.50
-2.21
10.38
16.63
16.44
11.17
3.05
-5.70
-13.53
-19.85
-24.79
-28.76
-32.09
-34.95
-37.48
-40.03
-43.12
-47.21
-52.42
-58.27
-63.73
-67.49
-68.47
-66.09
-60.49
-52.38
-42.72
-32.45
-22.29
-12.67
-3.89
3.76
10.00
14.51
17.15
18.05
17.60
16.37
14.95
13.77
13.02
12.65
12.39
11.87
10.74
8.80
6.08
2.82
-0.51
-3.47
-5.79
-7.60
-9.41
-11.88
-15.55
-20.45
-26.01
-31.17
-34.81
-36.03
-34.47
-30.29
-23.96
-16.14
-7.34
1.91
11.12
19.70
26.95
32.27
35.30
36.11
35.18
33.27
31.11
29.21
27.69
26.34
24.93
23.27
21.38
19.44
17.60
15.95
14.43
12.88
11.08
8.82
5.82
1.90
-3.01
-8.67
-14.50
-19.67
-23.21
-24.43
-23.01
-19.08
-13.15
-5.93
1.85
9.46
16.33
21.98
26.01
28.23
28.59
27.29
24.79
21.71
18.72
16.33
14.64
13.40
12.15
10.39
7.92
4.84
1.44
-2.00
-5.37
-8.69
-12.03
-15.41
-18.87
-22.45
-26.18
-29.97
-33.52
-36.25
-37.41
-36.36
-32.82
-26.97
-19.35
-10.73
-1.85
6.68
14.42
21.01
26.24
30.02
32.34
33.32
33.19
32.18
30.57
28.63
26.55
24.48
22.40
20.24
17.90
15.40
12.83
10.37
8.17
6.18
4.17
1.80
-1.33
-5.45
-10.44
-15.82
-20.72
-24.09
-24.97
-22.72
-17.23
-8.89
1.49
12.92
24.40
35.14
44.60
52.48
58.74
63.36
66.38
67.75
67.43
65.42
61.90
57.27
52.03
46.65
41.36
36.19
31.00
25.64
20.05
14.24
8.32
2.40
-3.32
-8.54
-12.89
-16.05
-17.96
-18.90
-19.43
-20.15
-21.48
-23.38
-25.46
-27.08
-27.57
-26.47
-23.54
-18.81
-12.59
-5.37
2.19
9.33
15.31
19.57
21.83
22.20
21.10
19.16
17.03
15.24
14.00
13.19
12.41
11.11
8.86
5.50
1.22
-3.49
-8.07
-12.21
-15.99
-19.85
-24.43
-30.12
-36.85
-43.99
-50.51
-55.26
-57.42
-56.64
-53.08
-47.32
-40.07
-32.16
-24.31
-17.12
-11.02
-6.28
-2.92
-0.85
0.07
0.09
-0.54
-1.47
-2.31
-2.74
-2.64
-2.24
-1.94
-2.17
-3.10
-4.52
-6.05
-7.22
-7.81
-7.98
-8.06
-8.44
-9.43
-11.18
-13.62
-16.51
-19.33
-21.33
-21.65
-19.57
-14.91
-8.12
-0.22
7.60
14.36
19.66
23.59
26.55
28.83
30.42
31.14
30.83
29.55
27.60
25.33
23.00
20.59
17.88
14.56
10.39
5.34
-0.42
-6.62
-13.05
-19.65
-26.54
-34.02
-42.42
-51.98
-62.53
-73.46
-83.57
-91.35
-95.34
-94.50
-88.49
-77.83
-63.72
-47.78
-31.69
-16.92
-4.55
4.80
10.96
14.19
15.20
14.88
14.19
13.80
14.02
14.69
15.28
15.12
13.63
10.57
6.14
1.00
-3.85
-7.36
-8.80
-8.06
-5.76
-3.11
-1.53
-2.18
-5.46
-10.93
-17.34
-23.11
-26.66
-27.03
-23.95
-17.91
-9.82
-0.76
8.37
16.98
24.70
31.27
36.45
39.98
41.68
41.60
40.06
37.54
34.64
31.80
29.22
26.84
24.40
21.57
18.08
13.84
8.94
3.68
-1.56
-6.48
-10.92
-15.03
-19.21
-23.95
-29.59
-36.12
-42.90
-48.95
-52.98
-53.87
-50.96
-44.21
-34.13
-21.66
-7.96
5.83
18.68
29.82
38.74
45.21
49.26
51.04
50.77
48.66
44.91
39.75
33.53
26.71
19.84
13.48
8.08
3.99
1.40
0.31
0.54
1.65
3.02
3.88
3.54
1.53
-2.32
-7.93
-15.02
-23.27
-32.19
-41.10
-49.08
-55.07
-58.12
-57.67
-53.70
-46.70
-37.57
-27.24
-16.60
-6.32
3.05
11.04
17.25
21.43
23.63
24.23
23.89
23.32
23.07
23.25
23.68
23.91
23.53
22.42
20.69
18.72
16.79
15.07
13.49
11.74
9.36
5.76
0.43
-6.92
-16.03
-25.98
-35.31
-42.36
-45.76
-44.84
-39.77
-31.39
-20.80
-9.14
2.61
13.58
23.00
30.27
35.17
37.97
39.42
40.44
41.74
43.55
45.56
47.14
47.71
46.93
44.87
41.91
38.71
36.05
34.78
35.59
38.70
43.67
49.34
54.15
56.74
56.49
53.75
49.83
46.45
45.17
47.05
52.58
61.81
74.40
89.63
106.35
122.96
137.60
148.63
155.03
156.79
154.91
151.05
146.88
143.59
141.28
138.95
134.67
125.96
110.14
85.02
49.95
6.96
-38.78
-79.98
-109.69
-124.25
-125.09
-118.33
-111.92
-111.90
-119.94
-133.32
-147.41
-158.58
-165.92
-170.69
-174.42
-176.99
-176.42
-170.04
-156.44
-136.47
-112.95
-89.47
-68.86
-52.26
-39.24
-28.50
-18.84
-9.80
-1.79
4.26
7.47
7.54
5.03
1.19
-2.52
-4.98
-5.87
-5.60
-5.07
-5.15
-6.31
-8.51
-11.35
-14.35
-17.37
-20.50
-24.14
-28.66
-34.17
-40.36
-46.51
-51.69
-54.91
-55.49
-53.13
-47.98
-40.62
-31.82
-22.42
-13.13
-4.45
3.35
10.20
16.06
20.88
24.47
26.61
27.19
26.34
24.49
22.34
20.54
19.52
19.29
19.47
19.54
19.04
17.70
15.53
12.66
9.29
5.64
1.91
-1.73
-5.30
-9.09
-13.67
-19.67
-27.42
-36.49
-45.59
-52.83
-56.33
-54.90
-48.46
-38.06
-25.32
-11.85
1.21
13.32
24.25
33.75
41.40
46.68
49.21
49.07
46.84
43.36
39.48
35.71
32.17
28.72
25.19
21.48
17.57
13.55
9.45
5.28
1.01
-3.38
-7.88
-12.48
-17.19
-22.02
-27.01
-32.17
-37.39
-42.38
-46.57
-49.20
-49.43
-46.55
-40.25
-30.81
-19.05
-6.18
6.56
18.18
27.99
35.64
40.95
43.80
44.25
42.55
39.28
35.23
31.22
27.83
25.24
23.19
21.12
18.48
14.96
10.58
5.62
0.52
-4.38
-8.95
-13.28
-17.72
-22.73
-28.78
-36.15
-44.69
-53.70
-61.98
-68.00
-70.32
-68.03
-61.04
-50.09
-36.49
-21.69
-6.95
6.79
19.02
29.43
37.83
44.09
48.11
49.91
49.64
47.55
43.94
39.27
34.06
28.93
24.47
21.05
18.69
17.04
15.52
13.56
10.94
7.85
4.77
2.21
0.36
-1.07
-2.88
-6.10
-11.66
-19.98
-30.63
-42.24
-52.74
-59.89
-61.90
-57.93
-48.31
-34.38
-18.08
-1.44
13.84
26.63
36.32
42.80
46.35
47.59
47.31
46.41
45.63
45.43
45.97
47.04
48.24
49.15
49.56
49.49
49.22
49.07
49.25
49.71
50.17
50.18
49.23
46.85
42.70
36.74
29.40
21.68
15.05
11.14
11.17
15.71
24.40
36.30
50.19
65.03
80.18
95.31
110.18
124.34
137.15
147.74
155.43
159.95
161.56
160.97
159.04
156.27
152.54
147.25
139.81
130.24
119.53
109.06
100.00
92.29
84.44
73.98
58.28
35.31
3.97
-35.81
-82.78
-133.69
-183.07
-223.76
-248.95
-254.70
-241.94
-216.38
-186.32
-159.36
-139.69
-127.48
-120.09
-114.32
-108.19
-101.35
-94.36
-87.68
-81.20
-74.41
-67.09
-59.64
-52.97
-48.18
-45.85
-45.77
-47.08
-48.54
-49.10
-48.27
-46.15
-43.30
-40.51
-38.38
-37.26
-37.21
-38.13
-39.89
-42.45
-45.82
-49.85
-54.10
-57.66
-59.35
-57.96
-52.73
-43.63
-31.43
-17.45
-3.16
10.12
21.36
29.80
34.89
36.36
34.39
29.74
23.68
17.56
12.41
8.57
5.68
3.09
0.22
-3.12
-6.77
-10.31
-13.34
-15.54
-16.71
-16.71
-15.56
-13.54
-11.26
-9.61
-9.44
-11.19
-14.59
-18.66
-21.93
-22.94
-20.70
-14.93
-6.10
4.85
16.71
28.30
38.60
46.81
52.36
55.04
54.90
52.32
47.94
42.47
36.58
30.79
25.37
20.37
15.67
11.08
6.43
1.73
-2.85
-7.06
-10.71
-13.86
-16.89
-20.41
-25.01
-31.08
-38.61
-47.19
-56.02
-64.07
-70.24
-73.49
-73.08
-68.76
-60.89
-50.39
-38.58
-26.82
-16.24
-7.58
-1.26
2.63
4.24
4.04
2.78
1.45
0.92
1.72
3.78
6.43
8.72
9.79
9.17
6.98
3.76
0.21
-3.07
-5.81
-8.10
-10.33
-13.04
-16.69
-21.57
-27.69
-34.77
-42.19
-49.07
-54.43
-57.26
-56.84
-52.81
-45.25
-34.62
-21.68
-7.26
7.77
22.62
36.54
48.79
58.68
65.60
69.13
69.27
66.51
61.73
56.08
50.60
45.91
42.11
38.94
35.94
32.83
29.57
26.36
23.36
20.62
17.94
14.93
11.15
6.26
0.18
-6.85
-14.19
-20.84
-25.60
-27.42
-25.75
-20.78
-13.44
-4.97
3.37
10.78
16.90
21.68
25.21
27.49
28.50
28.25
26.91
24.80
22.33
19.85
17.56
15.42
13.23
10.74
7.74
4.15
0.11
-4.07
-8.01
-11.39
-14.05
-16.07
-17.76
-19.59
-21.93
-25.02
-28.77
-32.68
-35.93
-37.45
-36.15
-31.28
-22.55
-10.33
4.47
20.53
36.47
51.02
63.31
72.90
79.78
84.32
87.15
89.08
90.82
92.90
95.52
98.41
101.07
102.90
103.57
103.18
102.38
102.17
103.47
106.54
110.53
113.49
112.88
106.48
93.37
74.49
52.46
30.76
12.50
-0.45
-7.77
-10.33
-9.41
-6.21
-1.84
2.38
4.64
2.97
-4.10
-17.03
-35.25
-57.84
-84.04
-113.33
-144.51
-174.70
-199.21
-212.89
-212.50
-198.63
-175.96
-151.35
-130.87
-117.40
-110.14
-106.05
-102.22
-97.68
-93.48
-91.70
-93.88
-99.99
-108.40
-116.60
-122.21
-123.73
-120.82
-113.98
-104.22
-92.37
-78.91
-63.97
-47.60
-30.14
-12.30
4.97
20.76
34.46
45.90
55.10
62.19
67.14
69.84
70.14
68.04
63.77
57.86
51.05
44.16
38.01
33.11
29.60
27.19
25.16
22.59
18.54
12.34
3.82
-6.54
-17.56
-27.64
-35.06
-38.51
-37.41
-32.04
-23.41
-12.79
-1.36
10.07
21.00
31.15
40.12
47.35
52.28
54.50
54.09
51.60
47.95
44.10
40.78
38.17
36.01
33.77
30.93
27.31
23.08
18.68
14.56
10.97
7.75
4.43
0.39
-4.91
-11.74
-19.94
-29.00
-37.96
-45.65
-50.84
-52.46
-49.86
-43.03
-32.56
-19.48
-5.08
9.37
22.71
34.02
42.61
48.12
50.58
50.48
48.57
45.75
42.75
40.02
37.63
35.37
32.95
30.11
26.74
22.89
18.79
14.73
10.89
7.29
3.78
-0.01
-4.56
-10.24
-17.19
-25.14
-33.36
-40.77
-46.10
-48.21
-46.38
-40.43
-30.88
-18.72
-5.23
8.26
20.64
31.03
38.91
44.01
46.39
46.40
44.67
42.00
39.17
36.68
34.72
33.02
31.14
28.66
25.35
21.28
16.74
12.15
7.77
3.68
-0.28
-4.52
-9.55
-15.82
-23.47
-32.05
-40.47
-47.19
-50.58
-49.48
-43.56
-33.46
-20.51
-6.30
7.72
20.49
31.27
39.63
45.23
47.94
47.90
45.59
41.85
37.59
33.54
30.06
27.11
24.37
21.51
18.36
15.02
11.76
8.81
6.26
3.87
1.19
-2.38
-7.32
-13.97
-22.30
-31.89
-41.80
-50.68
-56.97
-59.32
-56.95
-49.92
-39.09
-25.86
-11.71
2.12
14.86
26.04
35.36
42.55
47.38
49.76
49.85
48.19
45.56
42.80
40.49
38.77
37.32
35.52
32.81
29.04
24.42
19.53
14.91
10.80
7.08
3.16
-1.60
-7.76
-15.48
-24.33
-33.34
-41.05
-45.94
-46.77
-43.01
-35.01
-23.87
-11.11
1.82
13.80
24.14
32.54
38.88
43.08
45.16
45.32
43.98
41.68
39.03
36.46
34.08
31.71
29.08
25.99
22.56
19.12
16.10
13.66
11.67
9.67
7.11
3.59
-1.07
-6.80
-13.40
-20.61
-27.99
-34.87
-40.26
-43.10
-42.52
-38.18
-30.42
-19.99
-7.76
5.73
20.22
35.52
51.09
65.86
78.38
87.39
92.35
93.77
93.05
91.85
91.40
92.02
93.10
93.60
92.52
89.45
84.54
78.34
71.39
63.88
55.66
46.31
35.48
23.04
9.29
-5.11
-19.15
-31.64
-41.41
-47.54
-49.65
-47.93
-43.05
-35.91
-27.34
-17.93
-8.11
1.74
11.02
18.87
24.27
26.31
24.58
19.38
11.74
3.06
-5.22
-12.15
-17.49
-21.63
-25.37
-29.46
-34.37
-40.18
-46.71
-53.64
-60.59
-67.18
-73.07
-78.18
-82.84
-87.64
-92.80
-97.45
-99.26
-94.95
-81.65
-58.37
-26.94
8.43
42.55
71.11
91.79
104.49
110.29
110.43
105.75
96.65
83.65
67.76
50.64
34.08
19.61
8.02
-0.69
-7.20
-12.60
-17.89
-23.66
-29.90
-36.06
-41.15
-44.29
-44.93
-43.20
-39.89
-36.13
-33.02
-31.17
-30.55
-30.51
-30.17
-28.75
-25.86
-21.60
-16.36
-10.60
-4.78
0.68
5.38
8.82
10.50
10.00
7.08
1.79
-5.49
-14.08
-23.07
-31.47
-38.55
-44.02
-48.09
-51.34
-54.33
-57.38
-60.34
-62.86
-64.55
-65.31
-65.46
-65.58
-66.34
-68.17
-71.09
-74.62
-77.87
-79.72
-79.13
-75.36
-68.21
-58.04
-45.65
-32.01
-18.12
-4.86
7.09
17.13
24.91
30.24
33.25
34.41
34.33
33.69
33.11
33.04
33.75
35.34
37.74
40.65
43.67
46.37
48.48
49.90
50.75
51.18
51.13
50.22
47.84
43.48
37.06
29.27
21.42
15.23
12.10
12.84
17.38
25.06
34.90
45.85
57.08
67.79
77.15
84.22
88.14
88.34
84.92
78.65
70.79
62.88
56.21
51.73
49.84
50.48
53.16
57.05
61.06
63.98
64.74
62.61
57.47
49.86
40.75
31.26
22.38
14.92
9.41
6.32
6.01
8.68
14.08
21.48
29.57
36.64
40.86
40.44
33.77
19.44
-3.66
-36.02
-77.20
-125.47
-177.89
-230.60
-279.52
-320.82
-351.39
-369.16
-373.24
-364.06
-343.33
-313.97
-279.65
-244.22
-211.15
-183.12
-161.95
-148.63
-143.46
-146.01
-155.05
-168.53
-183.78
-197.99
-208.79
-214.65
-215.08
-210.48
-201.80
-190.29
-177.19
-163.61
-150.39
-137.97
-126.10
-113.86
-99.67
-81.78
-58.72
-29.89
4.19
41.99
81.33
119.86
155.45
186.54
212.12
231.79
245.55
253.57
256.13
253.48
245.99
234.34
219.76
204.04
189.39
177.95
171.27
169.80
172.68
177.96
182.80
184.26
179.87
168.32
149.79
126.07
100.09
75.18
54.21
38.91
29.62
25.57
25.24
27.04
29.59
31.96
33.61
34.32
34.05
32.84
30.74
27.75
23.73
18.45
11.59
2.99
-7.15
-18.06
-28.38
-36.44
-40.65
-40.00
-34.38
-24.64
-12.26
0.95
13.28
23.40
30.52
34.46
35.61
34.84
33.26
31.94
31.59
32.34
33.86
35.53
36.71
37.01
36.37
34.98
33.15
31.16
29.17
27.23
25.26
23.13
20.75
18.12
15.46
13.28
12.34
13.54
17.63
24.87
34.91
46.84
59.38
71.24
81.45
89.48
95.34
99.25
101.55
102.36
101.57
98.77
93.40
84.97
73.29
58.68
42.02
24.69
8.24
-5.99
-17.22
-25.36
-30.96
-34.98
-38.43
-42.25
-47.03
-52.99
-59.92
-67.12
-73.47
-77.60
-78.23
-74.53
-66.47
-54.85
-41.14
-27.06
-14.24
-3.83
3.58
7.92
9.52
8.93
6.82
3.91
0.87
-1.75
-3.54
-4.28
-3.89
-2.43
-0.10
2.62
5.13
6.68
6.68
4.86
1.30
-3.64
-9.56
-16.10
-22.97
-29.67
-35.45
-39.31
-40.26
-37.79
-32.00
-23.67
-13.87
-3.61
6.47
16.06
24.94
32.79
39.12
43.46
45.62
45.86
44.79
43.07
41.11
38.98
36.48
33.48
30.30
27.85
27.45
30.19
36.28
44.75
53.62
60.73
64.54
64.76
62.19
58.14
53.64
48.93
43.56
36.89
28.67
19.30
9.68
0.71
-7.12
-13.84
-19.75
-25.03
-29.62
-33.20
-35.68
-37.45
-39.48
-42.84
-48.06
-54.69
-61.22
-65.66
-66.42
-62.95
-55.88
-46.76
-37.45
-29.62
-24.50
-22.79
-24.64
-29.43
-35.68
-41.37
-44.38
-43.13
-37.12
-27.07
-14.64
-1.92
9.07
16.87
20.79
21.04
18.60
14.87
11.23
8.60
7.25
6.79
6.45
5.36
2.90
-1.18
-6.65
-12.94
-19.26
-24.96
-29.75
-33.79
-37.42
-40.68
-42.90
-42.73
-38.63
-29.63
-16.01
0.72
18.39
35.06
49.69
62.17
72.94
82.35
90.43
96.91
101.52
104.10
104.54
102.50
97.28
88.19
74.98
58.37
40.12
22.53
7.74
-2.99
-9.55
-12.86
-14.33
-15.44
-17.41
-20.97
-26.32
-33.12
-40.50
-47.33
-52.51
-55.30
-55.61
-53.93
-51.00
-47.46
-43.52
-38.98
-33.38
-26.37
-17.87
-8.23
1.83
11.37
19.33
24.72
26.76
25.05
19.77
11.74
2.32
-6.90
-14.50
-19.68
-22.32
-22.97
-22.42
-21.45
-20.55
-20.00
-19.87
-20.18
-20.70
-20.85
-19.70
-16.24
-9.81
-0.42
11.12
23.53
35.57
46.33
55.26
62.02
66.19
67.27
64.97
59.44
51.38
41.92
32.17
22.89
14.32
6.34
-1.33
-8.82
-15.90
-21.98
-26.24
-28.04
-27.20
-24.13
-19.74
-15.02
-10.47
-5.53
1.38
12.33
28.91
51.24
77.60
104.79
129.10
147.55
158.52
161.86
158.49
149.66
136.60
120.43
102.22
83.09
64.02
45.53
27.58
9.76
-8.30
-26.59
-44.45
-60.85
-74.63
-84.99
-91.75
-95.34
-96.80
-97.44
-98.46
-100.38
-102.91
-104.91
-104.81
-101.31
-93.98
-83.44
-71.17
-58.94
-48.22
-39.98
-34.56
-31.98
-32.05
-34.42
-38.51
-43.48
-48.27
-51.74
-53.07
-51.86
-48.30
-43.11
-37.26
-31.73
-27.32
-24.40
-22.95
-22.68
-23.09
-23.69
-24.07
-23.94
-23.06
-21.31
-18.68
-15.28
-11.43
-7.56
-4.08
-1.39
0.23
0.72
0.25
-0.74
-1.71
-2.19
-1.87
-0.80
0.80
2.62
4.49
6.36
8.33
10.40
12.42
14.20
15.51
16.30
16.76
17.37
18.87
22.13
27.97
36.81
48.55
62.44
77.28
91.87
105.40
117.63
128.99
140.25
152.30
165.85
180.98
196.90
211.64
222.37
225.97
219.99
203.54
177.59
144.75
108.30
71.33
35.99
3.35
-26.49
-54.03
-80.33
-106.97
-136.07
-169.81
-209.25
-253.01
-296.68
-333.45
-356.13
-359.89
-344.39
-313.96
-276.07
-238.33
-206.06
-181.00
-161.91
-146.05
-130.76
-114.30
-95.92
-75.57
-53.62
-31.00
-9.13
10.17
25.14
34.44
37.54
34.80
27.36
16.89
5.33
-5.43
-13.83
-18.80
-19.95
-17.40
-11.47
-2.58
8.82
22.03
35.64
47.24
53.60
51.30
38.01
13.64
-19.13
-55.43
-89.67
-117.43
-136.83
-148.93
-156.94
-164.96
-176.61
-194.04
-217.40
-244.50
-271.06
-291.37
-299.55
-291.25
-264.92
-222.26
-167.65
-106.78
-45.30
12.07
61.87
101.83
130.88
149.26
158.52
161.18
160.03
157.25
153.92
150.06
145.17
138.74
130.84
122.01
113.07
104.71
97.30
90.84
85.22
80.39
76.41
73.40
71.28
69.57
67.42
63.94
58.51
50.99
41.88
32.10
22.80
15.01
9.50
6.74
6.70
9.01
12.89
17.41
21.67
25.09
27.51
29.12
30.27
31.18
31.88
32.20
31.91
30.93
29.38
27.60
25.95
24.68
23.77
22.86
21.46
19.10
15.51
10.77
5.10
-1.36
-8.68
-17.12
-26.66
-36.71
-46.01
-52.88
-55.93
-54.55
-49.21
-41.21
-32.14
-23.32
-15.60
-9.30
-4.47
-1.05
0.99
1.74
1.25
-0.32
-2.85
-6.04
-9.53
-12.95
-15.95
-18.34
-20.12
-21.42
-22.41
-23.26
-24.20
-25.57
-27.89
-31.64
-36.99
-43.42
-49.69
-54.05
-54.83
-50.95
-42.41
-30.25
-16.27
-2.48
9.50
18.66
24.71
27.91
28.89
28.33
26.88
25.04
23.05
21.08
19.04
16.82
14.29
11.36
8.00
4.35
0.71
-2.57
-5.15
-6.94
-8.23
-9.71
-12.20
-16.24
-21.70
-27.65
-32.55
-34.83
-33.46
-28.31
-20.11
-10.15
0.22
10.01
18.58
25.62
31.00
34.60
36.39
36.48
35.09
32.56
29.26
25.50
21.47
17.30
13.12
9.04
5.33
2.21
-0.17
-1.84
-3.16
-4.71
-7.25
-11.46
-17.62
-25.31
-33.35
-40.01
-43.45
-42.26
-35.95
-25.14
-11.30
3.76
18.43
31.58
42.63
51.36
57.64
61.41
62.66
61.62
58.79
54.87
50.51
46.18
42.02
37.86
33.51
28.79
23.68
18.28
12.80
7.52
2.70
-1.55
-5.29
-8.84
-12.75
-17.50
-23.33
-29.96
-36.47
-41.58
-44.03
-43.02
-38.49
-31.02
-21.67
-11.52
-1.45
7.91
16.16
22.94
27.91
30.84
31.69
30.73
28.47
25.57
22.63
20.08
18.09
16.54
15.11
13.36
11.01
7.96
4.38
0.55
-3.36
-7.35
-11.64
-16.51
-22.20
-28.78
-36.11
-43.85
-51.40
-57.82
-61.96
-62.68
-59.25
-51.64
-40.53
-27.25
-13.32
-0.06
11.60
21.09
28.07
32.40
34.15
33.65
31.45
28.28
24.86
21.66
18.94
16.69
14.68
12.70
10.52
8.00
5.13
2.03
-1.11
-4.20
-7.30
-10.75
-15.06
-20.64
-27.58
-35.39
-42.99
-49.00
-52.05
-51.31
-46.62
-38.51
-27.97
-16.13
-4.03
7.49
17.79
26.33
32.72
36.71
38.27
37.77
35.76
32.94
29.92
27.06
24.41
21.80
18.97
15.71
11.96
7.89
3.84
0.18
-2.84
-5.23
-7.30
-9.62
-12.87
-17.54
-23.65
-30.70
-37.63
-43.14
-46.06
-45.70
-41.99
-35.44
-26.90
-17.24
-7.15
2.85
12.29
20.68
27.47
32.19
34.59
34.80
33.35
30.98
28.52
26.57
25.41
24.88
24.62
24.12
23.03
21.23
18.81
15.96
12.87
9.60
6.15
2.43
-1.71
-6.52
-12.26
-19.12
-26.94
-35.09
-42.44
-47.58
-49.25
-46.73
-40.10
-30.22
-18.42
-6.17
5.30
15.14
23.02
28.93
33.10
35.83
37.37
37.92
37.67
36.84
35.72
34.65
33.84
33.35
33.00
32.45
31.36
29.53
27.00
23.99
20.71
17.32
13.84
10.18
6.20
1.78
-3.22
-8.93
-15.50
-23.03
-31.39
-40.07
-48.05
-53.99
-56.40
-54.18
-47.03
-35.60
-21.50
-6.75
6.74
17.68
25.60
30.69
33.44
34.35
33.78
32.05
29.58
26.92
24.63
23.11
22.37
22.03
21.44
20.06
17.59
14.25
10.60
7.22
4.50
2.39
0.33
-2.42
-6.60
-12.60
-20.33
-29.16
-38.06
-45.79
-51.09
-52.99
-50.93
-44.96
-35.79
-24.68
-13.04
-2.15
7.24
14.89
20.85
25.23
27.86
28.46
26.81
23.17
18.29
13.27
9.02
5.83
3.27
0.41
-3.64
-9.23
-16.07
-23.48
-30.78
-37.71
-44.60
-52.10
-60.90
-71.34
-83.26
-96.10
-109.04
-121.18
-131.75
-140.07
-145.72
-148.45
-148.32
-145.71
-141.26
-135.82
-130.40
-126.04
-123.86
-125.04
-130.74
-141.77
-158.23
-178.86
-200.82
-220.00
-231.98
-233.40
-223.16
-202.87
-176.15
-147.25
-119.53
-94.68
-72.75
-53.13
-35.46
-20.13
-7.96
0.53
5.78
9.37
13.61
20.82
32.86
50.92
75.43
105.71
139.69
173.69
203.00
223.28
232.01
229.55
218.89
204.31
189.60
176.83
166.22
157.07
148.76
141.43
135.69
131.87
129.36
126.72
122.25
114.92
104.87
93.34
82.11
72.66
65.55
60.25
55.40
49.44
41.26
30.58
17.97
4.67
-7.84
-18.23
-25.61
-29.56
-30.14
-27.69
-22.61
-15.29
-6.00
4.92
16.85
28.90
39.93
48.90
55.08
58.37
59.17
58.29
56.61
54.96
53.96
54.05
55.40
57.79
60.80
63.78
66.16
67.60
68.04
67.63
66.41
64.16
60.47
54.93
47.46
38.55
29.28
21.01
15.12
12.60
13.84
18.62
26.30
36.04
47.05
58.62
70.13
80.92
90.27
97.52
102.17
104.12
103.51
100.73
96.16
90.05
82.52
73.62
63.55
52.64
41.31
30.01
19.12
8.90
-0.52
-9.13
-17.18
-25.06
-33.30
-42.39
-52.55
-63.61
-74.95
-85.59
-94.43
-100.47
-103.02
-101.89
-97.36
-90.14
-81.25
-71.73
-62.45
-53.98
-46.58
-40.28
-35.05
-30.92
-27.95
-26.24
-25.74
-26.26
-27.51
-29.23
-31.13
-33.05
-34.83
-36.40
-37.77
-39.12
-40.78
-43.12
-46.47
-50.88
-56.05
-61.28
-65.60
-67.88
-67.10
-62.60
-54.28
-42.59
-28.51
-13.28
1.83
15.78
27.80
37.46
44.63
49.38
51.97
52.74
52.08
50.35
47.88
44.88
41.55
38.01
34.42
30.93
27.62
24.55
21.65
18.74
15.57
11.81
7.25
1.72
-4.76
-12.00
-19.56
-26.75
-32.62
-36.14
-36.50
-33.33
-26.89
-17.97
-7.70
2.79
12.66
21.42
28.79
34.63
38.74
41.02
41.47
40.40
38.32
35.85
33.55
31.70
30.28
29.08
27.84
26.37
24.67
22.86
21.07
19.32
17.44
15.11
11.91
7.51
1.81
-4.97
-12.14
-18.67
-23.34
-25.05
-23.14
-17.59
-9.02
1.41
12.36
22.70
31.72
39.14
44.99
49.32
52.04
52.89
51.69
48.55
43.94
38.67
33.56
29.18
25.73
23.05
20.84
18.87
17.08
15.50
14.15
12.89
11.47
9.55
6.84
3.17
-1.55
-7.35
-14.14
-21.68
-29.38
-36.28
-41.17
-42.90
-40.67
-34.48
-25.07
-13.76
-1.98
9.08
18.76
26.88
33.55
38.88
42.91
45.52
46.61
46.27
44.80
42.72
40.52
38.57
36.95
35.50
33.96
32.07
29.63
26.62
23.14
19.35
15.41
11.41
7.30
2.91
-1.93
-7.40
-13.55
-20.24
-27.18
-33.91
-39.76
-43.95
-45.65
-44.25
-39.59
-32.09
-22.76
-12.87
-3.59
4.35
10.72
15.65
19.37
21.94
23.27
23.26
21.99
19.84
17.40
15.30
13.94
13.30
13.09
12.91
12.44
11.59
10.52
9.39
8.26
7.03
5.52
3.50
0.85
-2.40
-6.20
-10.45
-15.13
-20.13
-25.21
-29.88
-33.39
-34.88
-33.66
-29.40
-22.41
-13.50
-3.84
5.45
13.56
20.07
24.90
28.12
29.81
30.06
28.98
26.84
24.13
21.37
19.04
17.38
16.36
15.69
15.03
14.06
12.62
10.76
8.66
6.52
4.44
2.39
0.19
-2.45
-5.82
-10.14
-15.46
-21.58
-27.96
-33.73
-37.91
-39.58
-38.19
-33.75
-26.84
-18.42
-9.59
-1.27
5.91
11.56
15.53
17.80
18.54
18.03
16.71
15.10
13.60
12.47
11.72
11.18
10.63
9.95
9.12
8.28
7.54
6.93
6.41
5.80
4.86
3.31
0.88
-2.68
-7.55
-13.65
-20.53
-27.35
-33.01
-36.41
-36.83
-34.09
-28.68
-21.49
-13.52
-5.66
1.48
7.56
12.38
15.84
17.93
18.75
18.56
17.77
16.80
15.99
15.50
15.29
15.22
15.04
14.53
13.62
12.28
10.64
8.79
6.81
4.71
2.36
-0.45
-4.00
-8.46
-13.80
-19.75
-25.67
-30.68
-33.84
-34.44
-32.21
-27.41
-20.71
-12.99
-5.02
2.61
9.54
15.45
20.07
23.11
24.43
24.10
22.50
20.21
17.76
15.48
13.46
11.53
9.54
7.33
4.93
2.43
0.09
-1.91
-3.51
-4.78
-6.00
-7.59
-9.99
-13.55
-18.40
-24.32
-30.72
-36.76
-41.42
-43.82
-43.37
-39.98
-33.97
-26.04
-17.07
-7.89
0.84
8.64
15.27
20.61
24.64
27.35
28.84
29.24
28.79
27.79
26.57
25.33
24.07
22.57
20.58
17.92
14.67
11.14
7.70
4.59
1.76
-1.05
-4.20
-8.04
-12.78
-18.50
-25.12
-32.31
-39.43
-45.49
-49.41
-50.26
-47.68
-41.98
-34.08
-25.13
-16.12
-7.73
-0.22
6.34
11.90
16.35
19.44
20.99
21.02
19.81
17.82
15.64
13.78
12.48
11.70
11.16
10.47
9.40
7.86
5.94
3.87
1.79
-0.31
-2.56
-5.26
-8.75
-13.35
-19.23
-26.35
-34.31
-42.36
-49.48
-54.55
-56.68
-55.43
-50.90
-43.69
-34.72
-25.06
-15.68
-7.32
-0.45
4.79
8.48
10.83
12.14
12.63
12.50
11.92
11.05
10.13
9.37
8.91
8.68
8.45
7.97
7.04
5.67
3.96
2.05
-0.06
-2.50
-5.49
-9.17
-13.61
-18.73
-24.33
-30.02
-35.21
-39.11
-40.83
-39.71
-35.54
-28.77
-20.30
-11.29
-2.74
4.74
10.82
15.43
18.54
20.12
20.24
19.10
17.10
14.74
12.48
10.62
9.24
8.20
7.25
6.11
4.63
2.85
0.97
-0.76
-2.19
-3.49
-5.12
-7.74
-11.86
-17.63
-24.71
-32.29
-39.31
-44.73
-47.68
-47.69
-44.69
-39.03
-31.33
-22.42
-13.14
-4.21
3.84
10.62
15.89
19.50
21.49
22.00
21.38
20.03
18.36
16.69
15.24
14.14
13.42
12.98
12.62
12.04
11.06
9.64
7.94
6.16
4.34
2.23
-0.65
-4.80
-10.37
-16.96
-23.61
-29.08
-32.15
-31.99
-28.35
-21.54
-12.30
-1.61
9.54
20.21
29.68
37.46
43.27
47.01
48.77
48.82
47.57
45.51
43.15
40.80
38.57
36.33
33.72
30.43
26.28
21.39
16.13
11.02
6.52
2.79
-0.31
-3.21
-6.43
-10.43
-15.45
-21.53
-28.43
-35.63
-42.28
-47.41
-50.02
-49.44
-45.60
-38.97
-30.43
-20.89
-11.13
-1.68
7.04
14.59
20.56
24.62
26.71
27.17
26.57
25.58
24.72
24.22
24.00
23.79
23.23
22.12
20.39
18.15
15.63
13.01
10.50
8.20
6.13
4.17
2.17
-0.15
-3.12
-6.99
-11.87
-17.65
-23.93
-30.12
-35.48
-39.19
-40.50
-38.80
-33.92
-26.15
-16.34
-5.66
4.72
13.87
21.30
26.88
30.69
32.88
33.68
33.37
32.33
30.98
29.72
28.72
27.96
27.33
26.69
26.01
25.30
24.51
23.52
22.11
20.02
17.10
13.32
8.76
3.56
-2.16
-8.42
-15.30
-22.90
-31.23
-39.93
-48.31
-55.35
-59.94
-61.26
-59.01
-53.48
-45.50
-36.14
-26.48
-17.44
-9.66
-3.53
0.80
3.35
4.35
4.13
3.06
1.58
0.02
-1.35
-2.32
-2.84
-2.92
-2.69
-2.37
-2.15
-2.17
-2.50
-3.07
-3.81
-4.69
-5.75
-7.12
-8.99
-11.58
-15.05
-19.42
-24.50
-29.80
-34.58
-37.94
-39.08
-37.48
-33.11
-26.38
-18.09
-9.09
-0.19
8.06
15.28
21.26
25.82
28.82
30.26
30.28
29.24
27.65
25.97
24.51
23.31
22.26
21.13
19.72
17.93
15.77
13.31
10.64
7.82
4.84
1.59
-2.13
-6.56
-11.88
-18.10
-25.00
-32.04
-38.46
-43.39
-46.01
-45.81
-42.66
-36.95
-29.40
-20.86
-12.12
-3.77
3.87
10.60
16.30
20.87
24.22
26.37
27.41
27.50
26.81
25.52
23.79
21.72
19.47
17.15
14.86
12.62
10.41
8.17
5.84
3.41
0.86
-1.83
-4.80
-8.28
-12.49
-17.55
-23.25
-29.00
-33.91
-37.07
-37.81
-35.92
-31.71
-25.78
-18.81
-11.39
-3.96
3.13
9.52
14.87
18.90
21.47
22.67
22.73
21.96
20.65
19.03
17.28
15.52
13.75
11.88
9.74
7.21
4.26
1.05
-2.14
-5.02
-7.41
-9.37
-11.19
-13.26
-16.03
-19.77
-24.39
-29.42
-33.93
-36.86
-37.27
-34.75
-29.53
-22.36
-14.20
-5.86
2.13
9.53
16.17
21.82
26.16
28.89
29.95
29.59
28.31
26.70
25.28
24.36
23.98
23.91
23.80
23.30
22.18
20.46
18.32
16.03
13.72
11.34
8.70
5.57
1.80
-2.61
-7.55
-12.85
-18.21
-23.18
-27.06
-29.04
-28.41
-24.87
-18.69
-10.66
-1.82
6.85
14.69
21.42
26.97
31.30
34.26
35.64
35.35
33.61
31.00
28.28
26.09
24.75
24.12
23.74
23.07
21.70
19.49
16.52
13.05
9.33
5.58
1.89
-1.78
-5.60
-9.75
-14.36
-19.36
-24.48
-29.23
-32.99
-35.16
-35.28
-33.13
-28.74
-22.47
-14.84
-6.49
1.92
9.75
16.42
21.44
24.43
25.33
24.37
22.12
19.33
16.70
14.64
13.21
12.18
11.23
10.09
8.66
7.04
5.35
3.69
2.04
0.33
-1.57
-3.74
-6.26
-9.27
-12.93
-17.33
-22.37
-27.59
-32.17
-35.15
-35.71
-33.45
-28.54
-21.62
-13.51
-5.02
3.24
10.80
17.24
22.14
25.10
25.91
24.68
21.87
18.22
14.53
11.36
8.97
7.27
5.97
4.77
3.52
2.23
1.00
-0.15
-1.28
-2.55
-4.12
-6.07
-8.40
-11.03
-13.99
-17.37
-21.27
-25.56
-29.78
-33.11
-34.63
-33.61
-29.82
-23.61
-15.74
-7.16
1.25
8.84
15.18
19.95
22.95
24.06
23.38
21.23
18.14
14.74
11.62
9.14
7.37
6.15
5.14
4.02
2.65
1.06
-0.59
-2.15
-3.59
-5.08
-6.87
-9.23
-12.26
-15.93
-20.03
-24.25
-28.22
-31.47
-33.46
-33.67
-31.68
-27.38
-21.03
-13.22
-4.75
3.56
11.02
17.11
21.52
24.09
24.91
24.21
22.38
19.88
17.16
14.51
12.09
9.91
7.91
6.05
4.33
2.77
1.42
0.30
-0.62
-1.45
-2.36
-3.64
-5.56
-8.37
-12.23
-17.04
-22.42
-27.68
-31.97
-34.46
-34.58
-32.13
-27.36
-20.82
-13.22
-5.31
2.30
9.08
14.59
18.48
20.55
20.86
19.68
17.59
15.21
13.09
11.51
10.41
9.49
8.40
6.97
5.22
3.43
1.85
0.55
-0.61
-1.97
-3.90
-6.59
-10.08
-14.28
-18.95
-23.78
-28.28
-31.83
-33.67
-33.18
-30.07
-24.45
-16.91
-8.24
0.79
9.52
17.46
24.27
29.59
33.16
34.88
34.87
33.59
31.66
29.72
28.22
27.27
26.65
25.93
24.68
22.66
19.86
16.46
12.70
8.70
4.49
-0.02
-4.96
-10.40
-16.49
-23.26
-30.63
-38.24
-45.38
-51.00
-54.02
-53.68
-49.74
-42.70
-33.52
-23.39
-13.39
-4.29
3.44
9.60
14.06
16.85
18.08
18.01
17.04
15.59
14.08
12.79
11.82
11.06
10.37
9.48
8.24
6.56
4.47
2.10
-0.42
-3.04
-5.80
-8.91
-12.67
-17.38
-23.14
-29.80
-36.78
-43.24
-48.19
-50.71
-50.25
-46.68
-40.36
-32.04
-22.63
-13.03
-4.00
3.94
10.51
15.66
19.41
21.80
22.89
22.78
21.69
20.05
18.39
17.17
16.63
16.70
16.98
17.04
16.51
15.30
13.54
11.50
9.39
7.26
4.97
2.25
-1.22
-5.66
-11.18
-17.59
-24.42
-30.82
-35.76
-38.22
-37.46
-33.34
-26.26
-17.17
-7.18
2.61
11.43
18.88
24.83
29.29
32.30
33.90
34.17
33.27
31.49
29.23
26.92
24.92
23.45
22.52
21.92
21.37
20.60
19.43
17.86
15.97
13.85
11.55
8.99
6.08
2.73
-1.07
-5.33
-10.10
-15.45
-21.36
-27.50
-33.16
-37.31
-38.90
-37.17
-32.00
-23.89
-13.82
-2.95
7.71
17.35
25.46
31.75
36.10
38.56
39.36
38.84
37.40
35.44
33.28
31.14
29.19
27.52
26.15
25.05
24.08
23.06
21.81
20.22
18.28
16.06
13.57
10.80
7.69
4.11
-0.05
-4.89
-10.49
-16.90
-24.04
-31.60
-38.86
-44.77
-48.11
-47.90
-43.67
-35.78
-25.19
-13.23
-1.25
9.79
19.23
26.79
32.44
36.20
38.25
38.83
38.25
36.79
34.71
32.18
29.37
26.48
23.68
21.14
18.88
16.83
14.78
12.50
9.79
6.47
2.48
-2.16
-7.34
-12.86
-18.43
-23.82
-28.85
-33.55
-38.06
-42.52
-46.89
-50.73
-53.21
-53.38
-50.52
-44.43
-35.63
-25.12
-14.04
-3.33
6.43
14.98
22.20
27.96
32.15
34.73
35.87
35.95
35.46
34.87
34.47
34.36
34.51
34.83
35.17
35.37
35.21
34.42
32.82
30.34
27.04
23.13
18.87
14.46
10.07
5.71
1.25
-3.56
-9.11
-15.71
-23.45
-32.02
-40.54
-47.75
-52.23
-52.94
-49.52
-42.48
-32.99
-22.45
-12.02
-2.43
6.14
13.68
20.13
25.27
28.77
30.46
30.52
29.39
27.64
25.69
23.73
21.78
19.86
18.12
16.80
16.05
15.84
15.88
15.73
15.05
13.63
11.45
8.62
5.26
1.49
-2.64
-7.11
-11.97
-17.42
-23.66
-30.81
-38.75
-46.88
-54.16
-59.32
-61.13
-58.89
-52.64
-43.14
-31.61
-19.35
-7.39
3.66
13.49
21.92
28.81
34.03
37.53
39.45
40.08
39.83
39.01
37.87
36.55
35.10
33.56
31.99
30.44
28.93
27.39
25.78
23.92
21.65
18.77
15.15
10.87
6.13
1.31
-3.30
-7.58
-11.73
-16.19
-21.53
-28.14
-35.99
-44.49
-52.51
-58.66
-61.68
-60.90
-56.36
-48.79
-39.27
-28.86
-18.35
-8.21
1.26
9.74
16.91
22.47
26.41
28.96
30.51
31.39
31.76
31.53
30.62
29.02
26.93
24.67
22.52
20.60
18.82
16.97
14.77
12.02
8.59
4.50
-0.17
-5.17
-10.25
-15.13
-19.68
-23.97
-28.27
-32.90
-38.15
-44.00
-50.01
-55.27
-58.60
-58.84
-55.24
-47.70
-36.88
-24.01
-10.55
2.13
13.07
21.74
28.08
32.20
34.31
34.72
33.74
31.79
29.25
26.53
23.87
21.45
19.31
17.39
15.57
13.75
11.78
9.57
7.05
4.21
1.13
-2.16
-5.69
-9.53
-13.73
-18.23
-22.87
-27.45
-31.88
-36.29
-40.92
-45.83
-50.63
-54.42
-55.95
-54.06
-48.25
-38.92
-27.32
-15.13
-3.89
5.43
12.55
17.73
21.40
23.88
25.30
25.62
24.81
23.02
20.57
17.90
15.41
13.39
11.92
10.89
10.11
9.32
8.32
7.03
5.43
3.60
1.64
-0.43
-2.61
-4.98
-7.68
-10.86
-14.72
-19.47
-25.27
-32.03
-39.27
-45.98
-50.91
-52.80
-50.89
-45.20
-36.56
-26.26
-15.66
-5.81
2.76
9.84
15.39
19.28
21.33
21.41
19.66
16.62
13.01
9.65
7.13
5.67
5.13
5.05
5.00
4.64
3.93
2.99
2.08
1.31
0.62
-0.29
-1.89
-4.57
-8.58
-13.94
-20.48
-27.92
-35.82
-43.58
-50.30
-54.89
-56.27
-53.78
-47.37
-37.76
-26.20
-14.12
-2.73
7.19
15.31
21.58
26.01
28.61
29.40
28.52
26.32
23.36
20.38
18.01
16.66
16.42
17.00
17.93
18.66
18.76
18.03
16.47
14.19
11.34
8.03
4.31
0.21
-4.34
-9.50
-15.53
-22.59
-30.55
-38.79
-46.18
-51.28
-52.83
-50.11
-43.24
-33.06
-20.89
-8.10
4.09
14.79
23.39
29.53
33.13
34.32
33.50
31.28
28.30
25.16
22.33
20.06
18.43
17.30
16.40
15.46
14.23
12.65
10.75
8.68
6.55
4.37
2.03
-0.70
-4.14
-8.56
-14.14
-20.86
-28.38
-35.96
-42.54
-46.91
-48.11
-45.63
-39.65
-30.94
-20.60
-9.83
0.43
9.47
16.88
22.44
26.03
27.66
27.51
25.94
23.48
20.71
18.14
16.08
14.60
13.53
12.60
11.52
10.18
8.56
6.80
4.99
3.15
1.16
-1.20
-4.22
-8.21
-13.34
-19.67
-26.94
-34.55
-41.52
-46.64
-48.76
-47.15
-41.74
-33.22
-22.78
-11.72
-1.07
8.52
16.77
23.50
28.53
31.55
32.43
31.27
28.58
25.10
21.56
18.48
16.00
13.98
12.15
10.23
8.08
5.65
3.02
0.30
-2.44
-5.23
-8.23
-11.82
-16.41
-22.32
-29.45
-37.27
-44.81
-50.89
-54.39
-54.55
-51.08
-44.30
-34.93
-24.02
-12.66
-1.84
7.68
15.40
21.06
24.60
26.10
25.80
24.04
21.32
18.18
15.10
12.39
10.09
8.06
6.13
4.17
2.17
0.22
-1.65
-3.59
-5.92
-9.12
-13.59
-19.52
-26.77
-34.75
-42.57
-49.13
-53.31
-54.31
-51.72
-45.69
-36.85
-26.16
-14.63
-3.22
7.35
16.54
23.97
29.38
32.67
33.89
33.36
31.59
29.18
26.72
24.51
22.57
20.68
18.55
15.97
12.98
9.74
6.45
3.20
-0.16
-4.00
-8.80
-14.92
-22.38
-30.78
-39.32
-46.87
-52.22
-54.36
-52.75
-47.45
-39.10
-28.77
-17.61
-6.59
3.67
12.85
20.77
27.27
32.14
35.13
36.19
35.50
33.49
30.72
27.74
24.85
22.07
19.25
16.22
12.92
9.50
6.24
3.30
0.67
-1.99
-5.19
-9.46
-15.12
-22.09
-29.88
-37.62
-44.21
-48.52
-49.64
-47.10
-40.94
-31.79
-20.63
-8.59
3.40
14.67
24.85
33.78
41.28
47.14
51.10
52.98
52.84
51.09
48.35
45.33
42.59
40.35
38.55
36.82
34.79
32.15
28.82
24.91
20.65
16.24
11.77
7.13
2.08
-3.73
-10.60
-18.67
-27.70
-37.01
-45.61
-52.27
-55.88
-55.70
-51.55
-43.76
-33.17
-20.79
-7.75
4.97
16.56
26.47
34.42
40.35
44.42
46.84
47.91
47.90
47.07
45.73
44.14
42.55
41.17
40.12
39.38
38.77
37.90
36.35
33.75
29.97
25.22
19.89
14.45
9.19
4.21
-0.60
-5.45
-10.60
-16.36
-22.97
-30.52
-38.76
-46.91
-53.72
-57.75
-57.89
-53.67
-45.52
-34.56
-22.21
-9.79
1.77
11.96
20.49
27.15
31.74
34.12
34.35
32.80
30.10
26.99
24.06
21.60
19.56
17.68
15.65
13.29
10.62
7.89
5.39
3.42
2.15
1.69
1.95
2.75
3.80
4.82
5.53
5.73
5.26
3.96
1.54
-2.29
-7.79
-14.96
-23.34
-31.98
-39.58
-44.81
-46.57
-44.35
-38.35
-29.28
-18.12
-5.92
6.40
18.04
28.32
36.68
42.67
46.12
47.24
46.59
44.95
43.06
41.35
39.89
38.50
36.90
34.96
32.73
30.34
27.89
25.33
22.54
19.39
15.93
12.36
8.93
5.83
3.02
0.28
-2.75
-6.34
-10.69
-15.84
-21.56
-27.38
-32.50
-35.90
-36.58
-33.85
-27.60
-18.42
-7.38
4.23
15.27
24.94
32.73
38.43
41.98
43.52
43.34
41.93
39.82
37.51
35.32
33.33
31.43
29.46
27.20
24.45
21.09
17.06
12.42
7.37
2.21
-2.74
-7.23
-11.12
-14.45
-17.35
-20.09
-22.96
-26.31
-30.42
-35.29
-40.63
-45.72
-49.55
-51.11
-49.69
-45.08
-37.69
-28.40
-18.28
-8.35
0.62
8.18
14.13
18.40
20.99
21.97
21.53
20.00
17.79
15.31
12.91
10.84
9.27
8.27
7.82
7.75
7.82
7.69
7.11
5.94
4.16
1.85
-0.97
-4.25
-7.99
-12.14
-16.72
-21.77
-27.42
-33.71
-40.43
-46.93
-52.23
-55.17
-54.89
-51.02
-43.87
-34.24
-23.19
-11.79
-0.92
8.75
16.80
23.01
27.33
29.84
30.76
30.32
28.83
26.67
24.20
21.86
19.98
18.74
18.11
17.81
17.35
16.28
14.28
11.32
7.60
3.49
-0.66
-4.65
-8.48
-12.34
-16.55
-21.40
-27.12
-33.61
-40.40
-46.63
-51.16
-52.90
-51.13
-45.73
-37.25
-26.72
-15.36
-4.27
5.71
14.14
20.83
25.85
29.39
31.71
33.05
33.62
33.55
32.90
31.74
30.19
28.46
26.76
25.25
23.95
22.69
21.23
19.28
16.66
13.24
9.09
4.34
-0.74
-5.90
-10.91
-15.68
-20.40
-25.38
-30.95
-37.18
-43.68
-49.59
-53.72
-55.00
-52.74
-46.91
-38.16
-27.56
-16.35
-5.59
3.99
12.00
18.31
22.88
25.78
27.08
26.98
25.75
23.76
21.41
19.06
17.01
15.44
14.41
13.83
13.49
13.10
12.39
11.12
9.22
6.73
3.80
0.59
-2.76
-6.23
-9.88
-13.92
-18.59
-24.12
-30.52
-37.52
-44.51
-50.59
-54.74
-56.05
-53.98
-48.48
-40.02
-29.42
-17.72
-5.99
4.85
14.05
21.23
26.28
29.41
31.03
31.59
31.42
30.73
29.59
28.07
26.28
24.40
22.66
21.22
20.14
19.33
18.57
17.61
16.16
14.02
11.08
7.31
2.79
-2.33
-7.82
-13.57
-19.55
-25.88
-32.73
-40.04
-47.39
-53.92
-58.47
-59.97
-57.82
-52.07
-43.43
-32.93
-21.69
-10.57
-0.17
9.08
16.89
23.04
27.44
30.14
31.36
31.40
30.60
29.23
27.53
25.68
23.86
22.20
20.78
19.56
18.37
16.97
15.09
12.55
9.32
5.49
1.20
-3.39
-8.22
-13.31
-18.81
-24.96
-31.88
-39.51
-47.32
-54.39
-59.47
-61.49
-59.78
-54.38
-45.98
-35.59
-24.24
-12.79
-1.82
8.24
17.06
24.33
29.92
33.84
36.24
37.36
37.44
36.67
35.25
33.48
31.67
30.12
28.92
27.99
27.05
25.80
24.04
21.68
18.79
15.44
11.69
7.58
3.10
-1.81
-7.22
-13.25
-20.04
-27.58
-35.59
-43.35
-49.82
-53.83
-54.42
-51.14
-44.20
-34.42
-23.00
-11.23
-0.15
9.57
17.65
24.07
28.88
32.14
33.88
34.18
33.29
31.64
29.73
27.97
26.60
25.62
24.80
23.91
22.73
21.18
19.29
17.12
14.70
12.03
9.06
5.72
1.97
-2.19
-6.75
-11.74
-17.27
-23.50
-30.51
-38.19
-46.01
-53.06
-58.16
-60.24
-58.55
-53.01
-44.13
-32.94
-20.66
-8.41
3.04
13.17
21.77
28.81
34.26
38.13
40.47
41.45
41.34
40.52
39.38
38.27
37.41
36.85
36.54
36.33
36.05
35.50
34.45
32.62
29.77
25.81
20.85
15.26
9.55
4.14
-0.78
-5.42
-10.30
-16.00
-22.90
-30.92
-39.40
-47.21
-53.06
-55.77
-54.62
-49.58
-41.27
-30.81
-19.50
-8.46
1.56
10.25
17.59
23.67
28.58
32.31
34.84
36.19
36.48
35.94
34.91
33.69
32.55
31.68
31.17
31.02
31.12
31.23
30.95
29.82
27.47
23.66
18.45
12.17
5.28
-1.74
-8.52
-14.88
-20.85
-26.64
-32.57
-38.85
-45.40
-51.63
-56.51
-58.73
-57.28
-51.77
-42.66
-31.12
-18.62
-6.46
4.49
13.82
21.43
27.34
31.63
34.43
35.93
36.38
36.06
35.20
33.95
32.47
30.92
29.56
28.65
28.32
28.45
28.74
28.72
27.92
26.08
23.14
19.33
15.01
10.46
5.79
0.91
-4.53
-10.89
-18.40
-26.95
-35.95
-44.35
-50.88
-54.34
-53.99
-49.66
-41.88
-31.63
-20.10
-8.45
2.42
11.92
19.73
25.72
29.88
32.28
33.05
32.46
30.87
28.68
26.33
24.14
22.28
20.75
19.43
18.14
16.73
15.06
13.06
10.65
7.80
4.48
0.76
-3.30
-7.62
-12.18
-17.15
-22.77
-29.35
-36.94
-45.19
-53.15
-59.45
-62.63
-61.66
-56.28
-47.11
-35.40
-22.58
-9.87
1.96
12.50
21.58
28.99
34.47
37.81
38.99
38.27
36.17
33.28
30.15
27.10
24.31
21.75
19.34
17.02
14.76
12.50
10.12
7.52
4.58
1.31
-2.23
-5.93
-9.81
-14.07
-19.06
-25.14
-32.41
-40.51
-48.55
-55.24
-59.26
-59.60
-55.91
-48.56
-38.47
-26.90
-15.01
-3.69
6.53
15.38
22.70
28.34
32.13
34.03
34.20
32.96
30.84
28.40
26.11
24.28
23.01
22.17
21.47
20.57
19.13
16.95
13.99
10.36
6.23
1.76
-2.95
-7.92
-13.28
-19.23
-26.00
-33.68
-42.03
-50.39
-57.58
-62.20
-63.03
-59.48
-51.76
-40.83
-28.09
-14.92
-2.41
8.76
18.18
25.65
31.02
34.26
35.51
35.13
33.66
31.69
29.69
27.91
26.35
24.82
23.02
20.75
17.92
14.62
11.03
7.38
3.76
0.17
-3.51
-7.46
-11.85
-16.87
-22.67
-29.37
-37.00
-45.25
-53.43
-60.36
-64.70
-65.23
-61.36
-53.32
-42.14
-29.31
-16.36
-4.43
5.83
14.23
20.78
25.58
28.64
29.99
29.71
28.00
25.23
21.96
18.68
15.84
13.63
12.03
10.74
9.39
7.68
5.53
3.05
0.46
-2.11
-4.69
-7.48
-10.72
-14.57
-19.11
-24.37
-30.40
-37.09
-44.05
-50.32
-54.47
-55.00
-50.94
-42.24
-30.02
-16.11
-2.43
9.63
19.51
27.26
33.23
37.61
40.34
41.20
40.17
37.57
34.08
30.60
27.89
26.35
25.88
26.03
26.17
25.83
24.83
23.30
21.53
19.71
17.85
15.74
13.06
9.52
4.97
-0.68
-7.43
-15.13
-23.41
-31.45
-38.02
-41.73
-41.34
-36.36
-27.15
-14.87
-1.18
12.28
24.31
34.24
41.84
47.18
50.37
51.51
50.69
48.09
43.98
38.80
33.06
27.27
21.88
17.09
12.93
9.19
5.59
1.86
-2.03
-5.96
-9.70
-13.10
-16.23
-19.39
-22.97
-27.34
-32.69
-39.01
-46.12
-53.51
-60.39
-65.61
-67.88
-66.10
-59.86
-49.64
-36.76
-22.99
-9.99
1.06
9.68
15.91
20.02
22.27
22.82
21.81
19.52
16.46
13.28
10.61
8.86
8.02
7.67
7.22
6.17
4.33
1.94
-0.59
-2.88
-4.86
-6.87
-9.49
-13.27
-18.54
-25.27
-33.11
-41.39
-49.23
-55.56
-59.29
-59.54
-55.91
-48.71
-38.85
-27.61
-16.22
-5.60
3.70
11.34
17.08
20.69
22.04
21.26
18.87
15.64
12.40
9.81
8.14
7.33
7.06
6.98
6.81
6.43
5.83
5.05
4.10
2.93
1.40
-0.64
-3.43
-7.18
-12.12
-18.33
-25.63
-33.42
-40.63
-45.94
-48.01
-45.97
-39.68
-29.89
-17.94
-5.41
6.29
16.29
24.23
30.19
34.37
36.97
38.12
37.92
36.62
34.66
32.64
31.06
30.18
29.90
29.78
29.34
28.28
26.60
24.59
22.62
20.89
19.29
17.44
14.85
11.14
6.15
-0.02
-6.96
-14.07
-20.58
-25.59
-28.25
-27.95
-24.40
-17.92
-9.30
0.35
9.89
18.39
25.31
30.49
33.86
35.45
35.21
33.23
29.83
25.65
21.44
17.90
15.36
13.67
12.34
10.87
8.96
6.70
4.40
2.39
0.80
-0.60
-2.27
-4.80
-8.75
-14.42
-21.78
-30.31
-39.00
-46.53
-51.57
-53.15
-50.92
-45.24
-36.97
-27.19
-16.90
-6.92
2.07
9.52
14.93
17.95
18.49
16.85
13.60
9.51
5.32
1.55
-1.58
-4.11
-6.21
-8.08
-9.76
-11.24
-12.38
-13.18
-13.75
-14.45
-15.68
-17.86
-21.28
-25.99
-31.80
-38.13
-44.08
-48.50
-50.29
-48.71
-43.65
-35.74
-26.14
-16.17
-6.90
1.01
7.34
12.07
15.13
16.37
15.61
12.89
8.60
3.47
-1.67
-6.24
-9.98
-13.10
-15.98
-19.00
-22.25
-25.71
-29.30
-33.07
-37.26
-42.12
-47.85
-54.47
-61.86
-69.84
-78.19
-86.49
-93.95
-99.21
-100.38
-95.38
-82.48
-61.00
-31.71
3.12
40.18
75.93
107.53
133.38
153.42
168.80
181.34
192.93
205.11
218.81
234.13
250.15
264.96
276.05
281.15
279.43
272.07
262.08
252.98
246.94
243.49
239.61
231.23
215.36
191.56
162.23
131.32
102.62
78.41
59.02
43.53
30.57
19.10
8.55
-1.36
-10.95
-20.62
-30.66
-41.05
-51.27
-60.25
-66.79
-69.86
-69.13
-65.22
-59.63
-54.26
-50.76
-49.95
-51.62
-54.71
-57.91
-60.20
-61.26
-61.39
-61.16
-61.04
-61.03
-60.84
-60.03
-58.37
-55.90
-52.83
-49.27
-45.15
-40.37
-34.93
-29.05
-23.18
-17.70
-12.83
-8.55
-4.75
-1.46
1.03
2.41
2.54
1.64
0.27
-1.08
-2.22
-3.47
-5.50
-8.99
-14.23
-20.93
-28.38
-35.72
-42.35
-48.10
-53.21
-58.10
-63.02
-67.97
-72.68
-76.74
-79.77
-81.54
-81.93
-80.85
-78.29
-74.35
-69.28
-63.52
-57.64
-52.10
-47.33
-43.54
-40.85
-39.28
-38.66
-38.63
-38.66
-38.17
-36.74
-34.31
-31.14
-27.67
-24.31
-21.29
-18.67
-16.43
-14.58
-13.22
-12.41
-12.10
-12.11
-12.17
-12.06
-11.70
-11.23
-10.78
-10.44
-10.05
-9.23
-7.54
-4.63
-0.37
5.06
11.27
17.83
24.31
30.38
35.73
40.15
43.51
45.91
47.70
49.42
51.74
55.13
59.73
65.24
70.97
76.09
79.80
81.70
81.75
80.34
77.90
74.73
70.82
65.80
59.15
50.43
39.29
25.55
9.23
-9.38
-29.54
-49.97
-69.06
-85.23
-97.52
-105.79
-110.87
-113.98
-116.34
-118.72
-121.29
-123.71
-125.31
-125.39
-123.31
-118.79
-111.91
-103.19
-93.33
-83.00
-72.66
-62.47
-52.45
-42.60
-32.95
-23.55
-14.40
-5.37
3.65
12.62
21.24
28.94
35.11
39.32
41.51
42.01
41.37
40.23
39.12
38.43
38.42
39.28
41.16
44.14
48.17
52.90
57.60
61.20
62.52
60.53
54.85
45.79
34.48
22.55
11.68
3.09
-2.68
-5.89
-7.37
-8.15
-9.16
-10.97
-13.69
-17.05
-20.56
-23.77
-26.42
-28.54
-30.33
-32.14
-34.26
-36.84
-39.89
-43.19
-46.44
-49.16
-50.80
-50.79
-48.77
-44.68
-38.83
-31.87
-24.61
-17.81
-12.05
-7.67
-4.73
-3.20
-2.96
-3.82
-5.58
-7.98
-10.68
-13.34
-15.64
-17.37
-18.51
-19.15
-19.45
-19.56
-19.49
-19.16
-18.50
-17.60
-16.75
-16.35
-16.76
-18.17
-20.44
-23.22
-25.95
-28.11
-29.26
-29.08
-27.44
-24.33
-19.91
-14.42
-8.25
-1.93
3.94
8.66
11.69
12.75
11.86
9.46
6.18
2.73
-0.36
-2.81
-4.63
-6.01
-7.20
-8.45
-9.88
-11.47
-13.12
-14.74
-16.33
-18.02
-20.03
-22.63
-25.95
-29.98
-34.54
-39.27
-43.74
-47.38
-49.57
-49.62
-47.05
-41.68
-33.81
-24.25
-14.03
-4.16
4.61
11.86
17.44
21.24
23.26
23.52
22.25
19.99
17.36
15.04
13.37
12.28
11.40
10.31
8.75
6.76
4.68
2.82
1.34
0.14
-1.11
-2.87
-5.54
-9.37
-14.27
-19.81
-25.20
-29.40
-31.41
-30.47
-26.31
-19.23
-10.00
0.30
10.57
19.83
27.44
33.11
36.82
38.80
39.33
38.64
36.90
34.20
30.73
26.76
22.63
18.61
14.82
11.24
7.73
4.20
0.65
-2.86
-6.18
-9.26
-12.16
-15.12
-18.44
-22.49
-27.40
-32.95
-38.56
-43.18
-45.65
-44.97
-40.72
-33.18
-23.32
-12.50
-2.01
7.20
14.64
20.27
24.23
26.63
27.49
26.74
24.47
21.01
16.98
13.12
10.03
7.91
6.57
5.44
3.93
1.63
-1.49
-5.13
-8.83
-12.19
-15.05
-17.62
-20.38
-23.90
-28.64
-34.72
-41.77
-49.04
-55.54
-60.27
-62.47
-61.75
-58.12
-52.03
-44.26
-35.74
-27.47
-20.29
-14.73
-11.04
-9.26
-9.37
-11.40
-15.42
-21.44
-29.23
-38.17
-47.18
-54.91
-59.88
-60.94
-57.56
-49.97
-39.21
-26.72
-14.17
-2.90
6.22
12.86
17.08
19.21
19.64
18.75
16.97
14.68
12.29
10.21
8.84
8.56
9.72
12.45
16.54
21.41
26.04
29.30
30.15
28.07
23.15
16.06
7.76
-0.79
-8.87
-16.05
-22.00
-26.41
-28.93
-29.29
-27.43
-23.62
-18.42
-12.53
-6.55
-0.82
4.52
9.47
13.95
17.73
20.55
22.17
22.60
22.14
21.22
20.22
19.34
18.53
17.66
16.77
16.14
16.39
18.28
22.53
29.56
39.38
51.46
64.79
78.00
89.65
98.54
103.86
105.39
103.30
98.13
90.51
81.23
71.13
61.08
51.87
43.96
37.38
31.66
26.10
19.98
12.86
4.74
-4.06
-12.97
-21.46
-29.15
-35.97
-42.05
-47.75
-53.46
-59.54
-66.23
-73.49
-80.94
-87.87
-93.28
-96.11
-95.45
-90.66
-81.57
-68.50
-52.14
-33.47
-13.66
6.16
24.88
41.60
55.58
66.36
73.76
77.95
79.41
78.84
77.03
74.67
72.17
69.71
67.22
64.63
61.89
59.09
56.33
53.61
50.77
47.52
43.53
38.54
32.59
25.97
19.15
12.63
6.73
1.41
-3.66
-8.99
-15.06
-22.04
-29.73
-37.46
-44.24
-49.01
-50.87
-49.36
-44.51
-36.88
-27.30
-16.74
-6.06
4.09
13.22
21.01
27.30
32.10
35.58
38.01
39.74
40.98
41.82
42.15
41.83
40.81
39.13
37.01
34.73
32.50
30.45
28.56
26.73
24.83
22.68
20.05
16.72
12.53
7.47
1.78
-4.18
-10.00
-15.39
-20.36
-25.15
-30.12
-35.56
-41.54
-47.83
-53.93
-59.11
-62.61
-63.75
-62.07
-57.43
-50.11
-40.73
-30.14
-19.20
-8.62
1.17
9.94
17.55
23.90
28.89
32.44
34.61
35.58
35.70
35.30
34.63
33.79
32.78
31.55
30.14
28.66
27.29
26.11
25.07
23.90
22.20
19.60
15.91
11.31
6.22
1.18
-3.38
-7.26
-10.54
-13.49
-16.51
-19.93
-24.08
-29.14
-35.06
-41.47
-47.65
-52.61
-55.34
-55.19
-51.93
-45.94
-37.88
-28.56
-18.70
-8.91
0.31
8.55
15.53
21.08
25.24
28.13
29.92
30.75
30.75
30.10
29.02
27.71
26.35
25.05
23.84
22.79
21.94
21.30
20.75
20.02
18.76
16.71
13.73
9.96
5.74
1.43
-2.68
-6.48
-10.10
-13.84
-18.06
-23.01
-28.65
-34.47
-39.52
-42.69
-42.97
-39.88
-33.72
-25.34
-15.97
-6.74
1.59
8.69
14.46
18.90
21.95
23.54
23.75
22.86
21.35
19.68
18.20
17.03
16.10
15.34
14.72
14.27
14.08
14.13
14.26
14.17
13.53
12.12
9.87
6.97
3.75
0.55
-2.42
-5.21
-8.17
-11.79
-16.55
-22.56
-29.50
-36.50
-42.36
-45.86
-46.02
-42.41
-35.32
-25.61
-14.56
-3.52
6.43
14.67
21.09
25.89
29.42
32.01
33.82
34.99
35.60
35.74
35.56
35.22
34.82
34.49
34.33
34.35
34.48
34.46
34.00
32.73
30.47
27.18
23.02
18.26
13.25
8.20
3.15
-2.08
-7.90
-14.70
-22.76
-31.94
-41.59
-50.64
-57.78
-61.82
-61.97
-58.08
-50.63
-40.62
-29.22
-17.48
-6.17
4.32
13.85
22.36
29.72
35.77
40.27
43.05
44.03
43.31
41.17
38.03
34.45
30.92
27.78
25.15
22.87
20.69
18.28
15.38
11.87
7.70
2.99
-2.05
-7.11
-11.91
-16.34
-20.48
-24.70
-29.53
-35.35
-42.21
-49.67
-56.78
-62.32
-65.12
-64.36
-59.83
-51.97
-41.71
-30.26
-18.68
-7.75
2.07
10.58
17.65
23.18
27.06
29.31
30.10
29.76
28.66
27.10
25.28
23.26
21.11
18.82
16.37
13.73
10.84
7.64
4.14
0.37
-3.64
-7.90
-12.49
-17.57
-23.29
-29.74
-36.84
-44.32
-51.59
-57.80
-61.97
-63.19
-60.90
-55.09
-46.23
-35.28
-23.37
-11.58
-0.88
8.03
14.71
19.06
21.19
21.48
20.47
18.81
17.18
16.05
15.68
15.98
16.52
16.71
16.01
14.12
11.21
7.76
4.39
1.58
-0.59
-2.47
-4.67
-7.81
-12.33
-18.23
-25.17
-32.50
-39.37
-44.80
-47.90
-47.88
-44.31
-37.23
-27.25
-15.44
-3.18
8.25
17.89
25.24
30.24
33.06
33.94
33.16
31.02
27.94
24.45
21.15
18.51
16.72
15.62
14.83
13.88
12.46
10.55
8.40
6.35
4.53
2.83
0.76
-2.21
-6.55
-12.41
-19.54
-27.31
-34.73
-40.59
-43.70
-43.16
-38.63
-30.49
-19.79
-7.97
3.63
14.00
22.56
29.12
33.63
36.14
36.80
35.90
33.87
31.21
28.36
25.59
23.05
20.76
18.66
16.65
14.61
12.47
10.21
7.88
5.53
3.08
0.22
-3.46
-8.43
-14.91
-22.69
-31.16
-39.29
-45.95
-50.04
-50.74
-47.67
-40.91
-31.07
-19.20
-6.53
5.72
16.67
25.86
33.19
38.74
42.55
44.60
44.83
43.38
40.63
37.19
33.63
30.29
27.09
23.68
19.69
14.98
9.80
4.67
0.05
-3.85
-7.29
-10.83
-15.14
-20.70
-27.64
-35.70
-44.21
-52.30
-58.91
-63.05
-63.88
-60.89
-54.16
-44.29
-32.39
-19.78
-7.67
3.02
11.79
18.38
22.77
25.06
25.49
24.43
22.48
20.24
18.18
16.46
14.98
13.50
11.86
10.09
8.32
6.69
5.15
3.46
1.32
-1.56
-5.41
-10.35
-16.50
-23.84
-32.09
-40.41
-47.44
-51.57
-51.41
-46.41
-37.03
-24.66
-11.05
2.19
13.98
23.76
31.36
36.73
39.84
40.81
39.94
37.78
35.05
32.34
29.99
27.96
25.95
23.61
20.78
17.58
14.37
11.55
9.35
7.58
5.69
2.87
-1.61
-8.12
-16.51
-26.07
-35.54
-43.45
-48.32
-49.04
-45.18
-37.04
-25.64
-12.43
1.04
13.47
24.01
32.21
37.99
41.51
43.06
43.05
41.89
40.00
37.72
35.23
32.62
29.93
27.08
24.06
20.93
17.79
14.77
12.00
9.40
6.71
3.46
-0.91
-6.83
-14.36
-23.01
-31.76
-39.20
-43.84
-44.50
-40.65
-32.53
-21.16
-7.95
5.55
18.11
28.86
37.28
43.14
46.34
46.98
45.39
42.18
38.13
34.10
30.68
28.10
26.15
24.35
22.21
19.48
16.20
12.67
9.22
6.01
2.95
-0.26
-4.03
-8.77
-14.79
-22.22
-30.84
-39.90
-48.06
-53.65
-55.10
-51.58
-43.32
-31.59
-18.25
-5.02
6.91
17.02
25.17
31.25
35.06
36.45
35.59
33.14
30.06
27.28
25.35
24.25
23.48
22.37
20.42
17.48
13.77
9.78
6.01
2.71
-0.20
-3.18
-6.81
-11.65
-17.98
-25.68
-34.21
-42.64
-49.74
-54.19
-54.85
-51.08
-43.01
-31.57
-18.28
-4.81
7.48
17.71
25.58
31.10
34.38
35.55
34.87
32.77
29.88
26.85
24.17
22.05
20.26
18.38
16.03
13.03
9.55
6.00
2.81
0.19
-2.05
-4.45
-7.71
-12.37
-18.62
-26.19
-34.35
-42.07
-48.19
-51.66
-51.72
-48.07
-40.94
-31.07
-19.49
-7.35
4.32
14.68
23.14
29.17
32.48
32.97
30.94
27.11
22.43
17.99
14.46
11.98
9.98
7.48
3.54
-2.31
-9.63
-17.19
-23.39
-26.95
-27.45
-25.72
-23.50
-22.90
-25.59
-32.17
-42.03
-53.40
-63.85
-70.82
-72.17
-66.74
-54.62
-37.26
-16.98
3.55
22.06
37.13
48.27
55.62
59.65
60.92
60.08
57.94
55.45
53.47
52.44
52.18
51.98
50.98
48.60
44.82
40.14
35.28
30.84
27.11
23.93
20.81
17.08
12.05
5.30
-3.19
-12.95
-22.93
-31.82
-38.25
-41.16
-40.02
-34.97
-26.69
-16.24
-4.75
6.74
17.40
26.62
33.92
38.95
41.53
41.69
39.86
36.78
33.40
30.49
28.45
27.13
26.02
24.54
22.25
19.11
15.32
11.23
7.08
2.89
-1.57
-6.61
-12.57
-19.61
-27.79
-37.07
-47.23
-57.80
-67.91
-76.30
-81.48
-82.17
-77.74
-68.47
-55.57
-40.71
-25.57
-11.42
1.02
11.42
19.66
25.68
29.51
31.35
31.62
30.91
29.77
28.59
27.53
26.53
25.37
23.81
21.63
18.71
15.15
11.16
7.01
2.85
-1.34
-5.83
-10.97
-17.15
-24.53
-33.09
-42.47
-51.97
-60.49
-66.58
-68.82
-66.24
-58.73
-47.19
-33.28
-18.78
-5.16
6.74
16.64
24.45
30.06
33.33
34.19
32.96
30.34
27.25
24.56
22.72
21.64
20.90
19.89
18.17
15.60
12.29
8.56
4.73
0.99
-2.64
-6.37
-10.55
-15.61
-21.93
-29.59
-38.20
-46.82
-54.12
-58.66
-59.28
-55.40
-47.25
-35.73
-22.17
-8.02
5.46
17.28
26.84
33.84
38.16
39.91
39.37
37.01
33.54
29.77
26.46
24.10
22.78
22.13
21.60
20.63
18.99
16.72
14.13
11.45
8.74
5.79
2.25
-2.22
-7.87
-14.82
-22.99
-32.09
-41.40
-49.71
-55.53
-57.33
-54.18
-46.06
-33.87
-19.27
-4.01
10.38
22.98
33.36
41.51
47.52
51.45
53.30
53.10
51.04
47.65
43.65
39.87
36.92
34.96
33.66
32.36
30.35
27.25
23.05
18.16
13.11
8.34
4.01
0.00
-4.03
-8.55
-14.03
-20.83
-29.10
-38.55
-48.40
-57.31
-63.62
-65.77
-62.75
-54.53
-42.05
-26.92
-10.99
4.21
17.65
28.89
37.89
44.70
49.36
51.87
52.26
50.76
47.84
44.21
40.56
37.40
34.87
32.75
30.61
28.04
24.93
21.42
17.81
14.35
11.02
7.60
3.76
-0.76
-6.00
-11.94
-18.55
-25.94
-34.27
-43.49
-53.05
-61.76
-67.90
-69.80
-66.35
-57.52
-44.36
-28.72
-12.58
2.38
15.17
25.40
33.07
38.36
41.53
42.93
43.06
42.51
41.74
40.99
40.15
38.90
36.98
34.34
31.22
27.95
24.84
21.91
18.91
15.47
11.37
6.59
1.42
-3.79
-8.84
-13.73
-18.77
-24.43
-31.18
-39.28
-48.50
-58.14
-66.96
-73.36
-75.82
-73.26
-65.43
-53.12
-37.93
-21.81
-6.52
6.75
17.52
25.78
31.75
35.65
37.68
38.08
37.21
35.56
33.63
31.76
30.10
28.61
27.17
25.69
24.10
22.37
20.49
18.38
15.99
13.28
10.17
6.65
2.70
-1.70
-6.57
-12.00
-18.16
-25.26
-33.31
-41.98
-50.34
-56.96
-60.21
-58.83
-52.35
-41.45
-27.69
-13.14
0.31
11.43
19.85
25.80
29.87
32.55
34.10
34.61
34.04
32.62
30.74
28.87
27.38
26.36
25.59
24.66
23.25
21.25
18.83
16.23
13.61
10.91
7.88
4.21
-0.31
-5.75
-12.08
-19.27
-27.29
-35.99
-44.80
-52.68
-58.17
-59.76
-56.45
-48.18
-35.93
-21.47
-6.75
6.61
17.71
26.28
32.47
36.53
38.54
38.58
36.75
33.43
29.25
24.96
21.20
18.38
16.53
15.35
14.34
12.97
10.87
7.92
4.31
0.40
-3.39
-6.76
-9.68
-12.37
-15.30
-19.04
-24.16
-30.93
-39.18
-48.07
-56.15
-61.67
-63.04
-59.41
-50.94
-38.79
-24.66
-10.27
3.10
14.79
24.56
32.40
38.26
42.04
43.70
43.45
41.78
39.38
36.92
34.80
33.09
31.52
29.68
27.31
24.43
21.29
18.28
15.55
13.02
10.34
7.09
2.97
-2.13
-8.16
-15.01
-22.62
-30.87
-39.47
-47.71
-54.40
-58.11
-57.62
-52.35
-42.72
-30.02
-16.06
-2.53
9.36
19.10
26.72
32.53
36.71
39.31
40.24
39.50
37.31
34.09
30.37
26.71
23.41
20.50
17.75
14.80
11.31
7.15
2.41
-2.59
-7.47
-12.00
-16.21
-20.47
-25.25
-31.01
-37.94
-45.92
-54.49
-62.79
-69.75
-74.10
-74.60
-70.48
-61.71
-49.31
-35.15
-21.47
-10.02
-1.55
4.37
8.84
12.91
16.90
20.30
22.19
21.86
19.34
15.42
11.31
8.11
6.54
6.91
9.24
13.46
19.27
26.03
32.65
37.89
40.69
40.53
37.51
32.06
24.66
15.65
5.35
-5.63
-16.09
-24.36
-28.75
-28.11
-22.41
-12.64
-0.53
12.13
23.99
34.36
43.07
50.04
55.11
57.96
58.35
56.37
52.56
47.78
42.91
38.47
34.46
30.48
25.99
20.65
14.38
7.42
0.20
-6.84
-13.31
-18.97
-23.75
-27.80
-31.50
-35.42
-40.19
-46.20
-53.48
-61.39
-68.71
-73.81
-75.13
-71.72
-63.55
-51.61
-37.59
-23.34
-10.29
0.89
10.18
17.91
24.28
29.24
32.50
33.90
33.61
32.24
30.61
29.28
28.40
27.61
26.31
24.00
20.55
16.29
11.81
7.74
4.42
1.73
-0.79
-3.81
-7.99
-13.76
-21.21
-30.03
-39.47
-48.44
-55.56
-59.51
-59.30
-54.50
-45.52
-33.44
-19.80
-6.14
6.31
16.86
25.25
31.50
35.74
38.03
38.47
37.26
34.82
31.78
28.88
26.66
25.22
24.22
23.00
20.96
17.81
13.76
9.34
5.12
1.38
-2.02
-5.51
-9.65
-14.85
-21.27
-28.89
-37.48
-46.51
-55.09
-61.95
-65.67
-65.05
-59.54
-49.52
-36.22
-21.32
-6.55
6.77
17.80
26.18
31.81
34.80
35.40
34.05
31.36
28.04
24.77
22.07
20.15
18.98
18.28
17.67
16.79
15.47
13.74
11.78
9.78
7.75
5.55
2.78
-1.03
-6.26
-13.09
-21.40
-30.70
-40.06
-48.23
-53.76
-55.42
-52.48
-45.08
-34.17
-21.19
-7.76
4.85
15.77
24.66
31.35
35.79
37.96
37.93
36.03
32.81
29.02
25.40
22.40
20.07
18.09
15.92
13.07
9.37
5.01
0.45
-3.85
-7.66
-11.04
-14.30
-17.78
-21.71
-26.23
-31.33
-36.86
-42.36
-47.00
-49.54
-48.72
-43.65
-34.29
-21.56
-7.05
7.51
20.75
31.96
40.95
47.76
52.35
54.57
54.32
51.84
47.81
43.21
39.01
35.77
33.45
31.56
29.46
26.72
23.40
19.87
16.59
13.85
11.53
9.16
6.06
1.58
-4.80
-13.24
-23.58
-35.16
-46.75
-56.73
-63.33
-65.11
-61.47
-52.82
-40.50
-26.29
-11.90
1.46
13.10
22.81
30.56
36.33
40.09
41.89
41.97
40.76
38.79
36.51
34.26
32.13
30.04
27.74
24.95
21.50
17.39
12.89
8.38
4.18
0.37
-3.34
-7.56
-12.95
-20.04
-28.93
-39.24
-50.02
-59.86
-67.10
-70.21
-68.13
-60.70
-48.77
-33.95
-18.18
-3.15
10.10
21.11
29.83
36.36
40.65
42.64
42.46
40.50
37.49
34.24
31.32
28.93
26.86
24.60
21.71
18.04
13.70
9.09
4.65
0.66
-2.84
-6.16
-9.83
-14.46
-20.49
-28.07
-36.96
-46.54
-55.80
-63.50
-68.29
-69.06
-65.16
-56.74
-44.76
-30.81
-16.58
-3.41
7.93
17.24
24.53
29.80
32.89
33.71
32.57
30.12
27.30
24.95
23.48
22.73
22.16
21.15
19.29
16.50
12.97
9.03
4.94
0.84
-3.26
-7.44
-11.83
-16.66
-22.30
-29.08
-37.10
-46.01
-54.77
-61.83
-65.41
-64.15
-57.52
-46.09
-31.32
-15.05
0.93
15.37
27.56
37.28
44.50
49.24
51.52
51.43
49.32
45.80
41.72
37.87
34.77
32.50
30.74
28.93
26.59
23.53
19.85
15.87
11.86
7.88
3.82
-0.54
-5.42
-10.94
-17.28
-24.56
-32.81
-41.80
-50.75
-58.29
-62.72
-62.49
-56.81
-45.98
-31.37
-15.03
1.06
15.43
27.37
36.80
43.93
48.98
52.01
53.02
52.12
49.67
46.27
42.69
39.48
36.96
35.01
33.26
31.22
28.56
25.16
21.25
17.12
13.08
9.26
5.59
1.77
-2.59
-7.88
-14.43
-22.33
-31.39
-40.98
-50.07
-57.23
-60.94
-60.03
-54.01
-43.44
-29.73
-14.76
-0.36
12.22
22.41
30.20
35.82
39.46
41.12
40.83
38.73
35.24
31.05
26.82
23.08
20.04
17.62
15.54
13.47
11.23
8.86
6.58
4.59
3.03
1.74
0.31
-1.86
-5.37
-10.62
-17.74
-26.52
-36.45
-46.63
-55.87
-62.73
-65.78
-64.03
-57.21
-46.02
-31.85
-16.48
-1.62
11.49
22.13
30.00
35.15
37.79
38.33
37.30
35.36
33.05
30.69
28.37
25.98
23.38
20.62
17.84
15.31
13.20
11.51
10.03
8.47
6.44
3.60
-0.31
-5.44
-11.64
-18.43
-25.12
-30.99
-35.64
-39.16
-42.01
-44.63
-46.90
-48.10
-47.10
-42.96
-35.49
-25.37
-13.90
-2.36
8.43
18.26
27.25
35.49
42.61
47.89
50.51
49.97
46.43
40.69
33.92
27.24
21.40
16.53
12.32
8.25
3.89
-0.80
-5.53
-9.91
-13.72
-17.17
-20.84
-25.54
-31.89
-40.11
-49.78
-59.90
-69.07
-75.80
-78.79
-77.33
-71.37
-61.64
-49.48
-36.35
-23.51
-11.69
-1.05
8.57
17.28
24.96
31.30
35.96
38.83
40.16
40.39
40.03
39.35
38.36
36.83
34.49
31.19
27.05
22.42
17.75
13.41
9.50
5.81
1.89
-2.81
-8.81
-16.33
-25.25
-35.02
-44.63
-52.84
-58.35
-60.14
-57.76
-51.43
-41.95
-30.36
-17.70
-4.81
7.68
19.19
29.13
36.89
42.02
44.42
44.43
42.72
40.12
37.32
34.80
32.73
31.04
29.44
27.59
25.11
21.80
17.70
13.14
8.56
4.34
0.55
-3.16
-7.46
-13.08
-20.44
-29.39
-39.05
-47.99
-54.56
-57.34
-55.52
-49.09
-38.88
-26.17
-12.44
1.05
13.38
23.97
32.48
38.74
42.67
44.44
44.40
43.06
40.96
38.59
36.25
34.14
32.26
30.46
28.41
25.79
22.35
18.12
13.38
8.58
4.07
-0.04
-3.96
-8.07
-12.78
-18.42
-25.13
-32.82
-41.10
-49.09
-55.57
-59.21
-58.91
-54.27
-45.71
-34.29
-21.39
-8.37
3.73
14.17
22.41
28.11
31.14
31.68
30.23
27.51
24.31
21.30
18.85
16.94
15.28
13.44
11.01
7.88
4.28
0.68
-2.39
-4.65
-6.20
-7.56
-9.48
-12.70
-17.70
-24.56
-32.78
-41.38
-49.04
-54.26
-55.81
-52.99
-45.85
-35.07
-21.86
-7.64
6.26
18.80
29.22
37.09
42.22
44.65
44.64
42.67
39.35
35.48
31.69
28.43
25.75
23.37
20.87
17.89
14.36
10.50
6.70
3.29
0.41
-2.19
-4.97
-8.52
-13.36
-19.76
-27.66
-36.56
-45.56
-53.39
-58.61
-59.94
-56.56
-48.43
-36.34
-21.79
-6.51
7.93
20.43
30.49
38.03
43.14
45.95
46.59
45.30
42.55
38.99
35.31
32.02
29.32
27.05
24.83
22.33
19.33
15.92
12.34
8.81
5.44
2.09
-1.55
-5.86
-11.18
-17.74
-25.53
-34.23
-43.09
-50.98
-56.49
-58.35
-55.74
-48.62
-37.73
-24.33
-9.86
4.41
17.60
29.06
38.35
45.08
49.01
50.18
48.98
46.11
42.44
38.71
35.34
32.35
29.47
26.31
22.57
18.18
13.29
8.26
3.41
-1.10
-5.28
-9.41
-13.88
-19.18
-25.72
-33.69
-42.83
-52.30
-60.70
-66.30
-67.52
-63.56
-54.63
-41.94
-27.26
-12.36
1.49
13.59
23.71
31.73
37.41
40.48
40.84
38.81
35.14
30.89
26.97
23.90
21.70
19.98
18.30
16.33
13.96
11.27
8.40
5.45
2.44
-0.66
-3.99
-7.71
-12.13
-17.62
-24.54
-32.94
-42.43
-51.98
-60.04
-64.91
-65.22
-60.41
-50.89
-37.97
-23.39
-8.81
4.54
15.97
25.22
32.18
36.74
38.83
38.60
36.48
33.25
29.81
26.93
24.95
23.75
22.89
21.75
19.95
17.37
14.28
11.06
8.09
5.39
2.67
-0.63
-5.16
-11.35
-19.31
-28.69
-38.73
-48.17
-55.51
-59.26
-58.37
-52.53
-42.44
-29.49
-15.38
-1.61
10.84
21.46
30.03
36.34
40.13
41.31
40.11
37.19
33.47
29.87
26.98
24.85
23.07
21.07
18.43
15.07
11.29
7.54
4.18
1.20
-1.73
-5.22
-9.88
-16.13
-24.05
-33.28
-43.04
-52.08
-58.92
-62.11
-60.62
-54.24
-43.64
-30.25
-15.70
-1.42
11.72
23.30
33.16
41.07
46.69
49.68
50.02
48.16
45.04
41.76
39.13
37.43
36.37
35.32
33.72
31.28
28.04
24.31
20.41
16.47
12.39
7.86
2.45
-4.26
-12.54
-22.42
-33.48
-44.83
-55.05
-62.50
-65.64
-63.56
-56.19
-44.42
-29.87
-14.33
0.62
13.95
25.15
34.08
40.68
44.85
46.52
45.77
43.06
39.11
34.78
30.78
27.46
24.73
22.25
19.63
16.58
13.06
9.20
5.31
1.65
-1.63
-4.66
-7.82
-11.71
-16.95
-23.94
-32.69
-42.68
-52.84
-61.71
-67.73
-69.51
-66.29
-58.15
-46.02
-31.48
-16.29
-1.99
10.42
20.50
28.20
33.59
36.71
37.56
36.22
33.04
28.66
23.91
19.61
16.24
13.89
12.22
10.59
8.32
4.92
0.22
-5.59
-12.00
-18.36
-24.09
-28.87
-32.73
-36.08
-39.58
-43.88
-49.33
-55.68
-62.01
-66.75
-68.10
-64.35
-54.49
-38.53
-17.71
5.74
29.05
49.59
65.42
75.54
79.99
79.47
75.09
68.10
59.78
51.28
43.58
37.37
32.79
29.50
26.65
23.32
18.82
13.07
6.57
0.17
-5.38
-9.85
-13.54
-17.20
-21.59
-27.21
-34.13
-41.97
-49.84
-56.53
-60.65
-60.94
-56.68
-47.97
-35.74
-21.54
-7.09
6.26
17.71
26.95
33.97
38.74
41.24
41.49
39.77
36.67
32.93
29.30
26.22
23.76
21.62
19.40
16.82
13.87
10.83
8.08
5.85
4.11
2.50
0.52
-2.30
-6.34
-11.79
-18.61
-26.53
-34.76
-42.14
-47.12
-48.31
-44.84
-36.79
-25.21
-11.78
1.80
14.19
24.67
33.00
39.14
43.03
44.58
43.90
41.39
37.83
34.14
31.05
28.85
27.32
25.95
24.18
21.68
18.43
14.66
10.71
6.84
3.11
-0.67
-4.88
-9.94
-16.25
-23.98
-33.00
-42.75
-52.13
-59.68
-63.81
-63.27
-57.64
-47.48
-34.19
-19.68
-5.68
6.70
17.02
25.25
31.53
35.81
37.96
38.01
36.35
33.79
31.28
29.46
28.39
27.50
25.88
22.80
18.03
12.00
5.60
-0.25
-4.99
-8.70
-11.94
-15.54
-20.30
-26.73
-34.91
-44.37
-54.10
-62.61
-68.19
-69.37
-65.36
-56.38
-43.58
-28.75
-13.70
0.14
11.96
21.44
28.50
33.13
35.31
35.16
33.04
29.61
25.76
22.39
20.10
19.06
18.87
18.76
17.87
15.64
12.08
7.72
3.44
-0.13
-2.80
-5.07
-7.80
-11.87
-17.79
-25.54
-34.54
-43.67
-51.57
-56.71
-57.76
-53.96
-45.33
-32.78
-17.88
-2.47
11.85
24.00
33.42
40.00
43.80
45.00
43.81
40.68
36.22
31.28
26.69
23.04
20.55
18.91
17.50
15.69
13.05
9.65
5.87
2.24
-0.96
-3.84
-6.88
-10.71
-15.86
-22.51
-30.46
-39.05
-47.27
-53.80
-57.23
-56.43
-50.87
-40.93
-27.81
-13.22
1.16
14.10
24.92
33.38
39.33
42.66
43.31
41.51
37.93
33.56
29.40
26.11
23.78
22.07
20.39
18.32
15.76
12.97
10.28
7.98
6.10
4.37
2.32
-0.68
-5.19
-11.58
-19.80
-29.24
-38.67
-46.41
-50.73
-50.40
-45.09
-35.51
-23.11
-9.60
3.60
15.60
25.94
34.42
40.82
44.88
46.49
45.91
43.76
40.87
37.98
35.52
33.48
31.57
29.41
26.74
23.43
19.57
15.35
11.04
6.84
2.73
-1.50
-6.34
-12.29
-19.68
-28.50
-38.22
-47.87
-56.12
-61.63
-63.20
-60.20
-52.71
-41.58
-28.25
-14.28
-1.01
10.69
20.47
28.25
33.99
37.57
38.93
38.22
35.90
32.64
29.11
25.70
22.44
19.09
15.32
10.97
6.08
0.91
-4.18
-8.88
-13.01
-16.63
-19.99
-23.47
-27.50
-32.47
-38.53
-45.51
-52.66
-58.76
-62.28
-61.78
-56.35
-46.02
-31.76
-15.28
1.40
16.45
28.45
36.63
40.88
41.78
40.54
38.75
38.00
39.27
42.53
46.66
49.82
50.22
46.79
39.67
30.26
20.84
13.91
11.48
14.43
22.08
32.32
42.09
48.30
48.64
42.26
29.86
13.33
-4.91
-22.53
-37.63
-48.88
-55.41
-56.86
-53.44
-45.97
-35.96
-25.28
-15.76
-8.73
-4.72
-3.50
-4.37
-6.53
-9.34
-12.35
-15.24
-17.78
-19.70
-20.94
-21.70
-22.34
-23.28
-24.76
-26.73
-28.79
-30.52
-31.67
-32.35
-33.07
-34.50
-37.30
-41.70
-47.44
-53.64
-58.88
-61.53
-60.13
-53.85
-42.81
-28.13
-11.62
4.70
19.10
30.51
38.56
43.39
45.45
45.32
43.60
40.93
37.96
35.20
32.86
30.81
28.65
25.95
22.50
18.44
14.20
10.37
7.33
5.11
3.30
1.15
-2.17
-7.33
-14.64
-23.84
-34.08
-43.97
-51.78
-55.86
-55.01
-48.96
-38.42
-24.89
-10.17
4.17
17.05
28.00
36.88
43.64
48.17
50.35
50.22
48.14
44.79
40.94
37.15
33.64
30.20
26.48
22.22
17.42
12.33
7.31
2.60
-1.77
-6.03
-10.59
-15.85
-22.15
-29.68
-38.40
-47.94
-57.43
-65.52
-70.60
-71.20
-66.54
-56.82
-43.20
-27.46
-11.45
3.40
16.20
26.57
34.36
39.57
42.27
42.70
41.30
38.73
35.69
32.69
30.00
27.55
25.10
22.34
19.09
15.33
11.24
6.99
2.70
-1.69
-6.45
-11.93
-18.35
-25.77
-34.04
-42.83
-51.64
-59.79
-66.41
-70.49
-71.07
-67.62
-60.27
-49.93
-38.15
-26.74
-17.32
-11.04
-8.48
-9.71
-14.26
-21.16
-28.95
-36.00
-40.97
-43.40
-44.01
-44.43
-46.38
-50.64
-56.40
-61.21
-61.83
-55.55
-41.35
-20.48
3.76
26.96
44.92
54.85
56.13
50.49
41.47
33.31
29.76
33.03
43.33
59.07
77.61
96.19
112.60
125.52
134.37
139.09
139.94
137.44
132.34
125.62
118.17
110.62
103.09
95.29
86.72
77.00
66.13
54.46
42.60
31.15
20.51
10.76
1.68
-7.20
-16.38
-26.23
-36.87
-48.05
-59.12
-69.11
-76.88
-81.26
-81.36
-76.76
-67.72
-55.19
-40.63
-25.70
-11.86
-0.17
8.91
15.30
19.24
21.10
21.29
20.28
18.60
16.71
15.00
13.59
12.38
11.09
9.47
7.38
4.95
2.43
0.07
-2.14
-4.43
-7.31
-11.34
-16.91
-24.07
-32.39
-41.06
-48.88
-54.56
-56.96
-55.40
-49.83
-40.83
-29.39
-16.65
-3.68
8.57
19.26
27.64
33.13
35.45
34.87
32.12
28.25
24.20
20.54
17.38
14.48
11.51
8.24
4.71
1.02
-2.64
-6.19
-9.64
-13.05
-16.57
-20.37
-24.79
-30.22
-36.97
-44.85
-53.02
-59.90
-63.59
-62.47
-55.80
-44.12
-29.06
-12.86
2.41
15.33
25.31
32.41
36.95
39.30
39.72
38.49
35.99
32.76
29.44
26.52
24.17
22.19
20.12
17.49
14.04
9.83
5.22
0.71
-3.38
-7.03
-10.61
-14.75
-20.09
-27.04
-35.60
-45.23
-54.97
-63.43
-69.13
-70.77
-67.58
-59.59
-47.63
-33.16
-17.91
-3.45
9.09
19.16
26.64
31.72
34.64
35.68
35.16
33.50
31.21
28.83
26.83
25.35
24.20
22.95
21.06
18.22
14.51
10.31
6.19
2.58
-0.45
-3.19
-6.26
-10.37
-16.07
-23.48
-32.18
-41.20
-49.11
-54.36
-55.57
-52.01
-43.79
-31.85
-17.72
-3.06
10.73
22.73
32.51
40.05
45.35
48.43
49.25
47.92
44.84
40.73
36.52
33.02
30.60
29.06
27.74
25.84
22.81
18.62
13.70
8.68
4.15
0.35
-2.83
-5.77
-9.05
-13.28
-18.97
-26.35
-35.15
-44.39
-52.44
-57.37
-57.52
-52.13
-41.62
-27.52
-11.93
3.16
16.39
27.18
35.56
41.78
46.01
48.26
48.56
47.09
44.37
41.06
37.80
34.96
32.55
30.25
27.59
24.28
20.27
15.81
11.30
7.00
2.94
-1.17
-5.74
-11.18
-17.68
-25.17
-33.37
-41.89
-50.13
-57.28
-62.27
-63.94
-61.34
-54.13
-42.86
-28.86
-13.93
0.28
12.65
22.72
30.53
36.29
40.08
41.94
41.89
40.16
37.22
33.70
30.15
26.91
24.01
21.24
18.29
14.92
11.02
6.70
2.20
-2.24
-6.47
-10.53
-14.66
-19.23
-24.58
-30.97
-38.46
-46.84
-55.58
-63.74
-70.17
-73.57
-72.85
-67.47
-57.66
-44.40
-29.24
-13.82
0.50
12.88
23.05
31.01
36.84
40.55
42.11
41.62
39.49
36.42
33.25
30.61
28.69
27.21
25.57
23.26
20.00
15.95
11.55
7.28
3.47
0.14
-3.00
-6.39
-10.58
-16.03
-23.04
-31.51
-40.87
-49.94
-57.18
-61.01
-60.22
-54.42
-44.11
-30.64
-15.76
-1.14
12.02
23.07
31.81
38.23
42.32
44.00
43.37
40.75
36.82
32.53
28.65
25.62
23.38
21.45
19.24
16.31
12.61
8.41
4.20
0.41
-2.78
-5.54
-8.45
-12.23
-17.53
-24.65
-33.33
-42.77
-51.68
-58.58
-62.10
-61.29
-55.77
-45.85
-32.46
-16.97
-0.90
14.30
27.49
37.89
45.15
49.29
50.64
49.84
47.62
44.68
41.55
38.54
35.65
32.72
29.49
25.72
21.24
16.10
10.55
4.96
-0.27
-4.93
-9.07
-13.11
-17.65
-23.33
-30.52
-39.12
-48.36
-56.91
-63.11
-65.40
-62.78
-55.12
-43.26
-28.77
-13.49
1.01
13.70
24.20
32.45
38.52
42.42
44.14
43.91
42.26
39.95
37.68
35.81
34.13
32.06
28.97
24.61
19.23
13.51
8.11
3.36
-0.91
-5.24
-10.25
-16.38
-23.74
-32.25
-41.54
-51.07
-59.90
-66.74
-70.09
-68.64
-61.86
-50.24
-35.26
-18.96
-3.26
10.49
21.69
30.29
36.50
40.50
42.45
42.50
40.98
38.36
35.25
32.11
29.24
26.61
23.96
20.95
17.34
13.08
8.41
3.67
-0.80
-4.91
-8.88
-13.22
-18.48
-25.10
-33.20
-42.39
-51.82
-60.20
-66.00
-67.84
-64.80
-56.77
-44.58
-29.78
-14.19
0.53
13.27
23.51
31.22
36.53
39.62
40.72
40.14
38.35
35.91
33.45
31.37
29.76
28.36
26.69
24.32
20.95
16.73
12.02
7.35
3.04
-0.94
-5.05
-10.00
-16.50
-24.86
-34.74
-45.08
-54.20
-60.28
-61.74
-57.75
-48.55
-35.34
-19.91
-4.13
10.50
23.09
33.25
40.88
45.99
48.58
48.78
46.88
43.48
39.38
35.33
31.87
29.10
26.71
24.17
21.08
17.32
13.16
9.08
5.35
1.95
-1.60
-5.90
-11.43
-18.31
-26.37
-35.07
-43.73
-51.37
-56.79
-58.62
-55.79
-47.94
-35.72
-20.74
-5.02
9.59
21.90
31.49
38.47
43.09
45.53
45.92
44.49
41.75
38.38
35.07
32.19
29.67
27.11
24.03
20.17
15.60
10.72
6.04
1.89
-1.67
-5.01
-8.67
-13.36
-19.57
-27.50
-36.73
-46.27
-54.56
-59.89
-60.80
-56.58
-47.47
-34.59
-19.63
-4.31
9.96
22.26
32.19
39.63
44.60
47.11
47.29
45.40
41.98
37.76
33.51
29.75
26.63
23.86
20.94
17.42
13.12
8.19
3.03
-1.97
-6.62
-11.05
-15.63
-20.89
-27.20
-34.76
-43.27
-51.95
-59.51
-64.45
-65.42
-61.64
-53.15
-40.85
-26.24
-11.01
3.37
15.86
25.89
33.25
37.98
40.17
40.08
38.10
34.85
31.05
27.38
24.25
21.70
19.39
16.85
13.69
9.88
5.69
1.56
-2.23
-5.69
-9.15
-13.08
-17.95
-23.98
-31.19
-39.30
-47.70
-55.36
-60.87
-62.72
-59.74
-51.59
-39.02
-23.72
-7.81
6.79
18.86
27.95
34.21
38.00
39.70
39.57
37.95
35.30
32.20
29.28
26.95
25.26
23.90
22.30
20.00
16.76
12.76
8.41
4.20
0.38
-3.23
-7.10
-11.91
-18.24
-26.32
-35.91
-46.20
-55.89
-63.37
-67.00
-65.55
-58.55
-46.56
-31.07
-14.11
2.28
16.61
28.14
36.79
42.85
46.57
48.12
47.56
45.17
41.54
37.55
34.05
31.52
29.83
28.38
26.40
23.40
19.36
14.74
10.13
5.93
2.19
-1.50
-5.75
-11.17
-18.14
-26.66
-36.24
-45.89
-54.18
-59.47
-60.36
-56.07
-46.75
-33.44
-17.84
-1.77
13.25
26.20
36.58
44.23
49.19
51.58
51.69
50.05
47.35
44.37
41.65
39.43
37.54
35.50
32.82
29.12
24.36
18.81
13.03
7.52
2.58
-1.89
-6.38
-11.63
-18.35
-26.83
-36.86
-47.49
-57.32
-64.71
-68.16
-66.72
-60.23
-49.44
-35.76
-20.88
-6.34
6.79
17.97
27.05
34.00
38.84
41.51
42.09
40.90
38.52
35.73
33.19
31.24
29.79
28.41
26.53
23.78
20.07
15.64
10.88
6.09
1.42
-3.22
-8.07
-13.42
-19.56
-26.67
-34.78
-43.58
-52.33
-59.81
-64.60
-65.46
-61.75
-53.69
-42.30
-29.03
-15.29
-2.18
9.63
19.66
27.51
32.78
35.23
35.00
32.72
29.42
26.14
23.58
21.87
20.61
19.09
16.73
13.24
8.83
4.02
-0.60
-4.57
-7.82
-10.64
-13.58
-17.38
-22.62
-29.57
-37.97
-47.00
-55.29
-61.21
-63.26
-60.49
-52.82
-41.03
-26.61
-11.32
3.29
16.11
26.49
34.20
39.16
41.45
41.27
39.09
35.65
31.87
28.55
26.10
24.38
22.80
20.64
17.43
13.18
8.35
3.62
-0.57
-4.17
-7.47
-11.05
-15.40
-20.90
-27.65
-35.41
-43.58
-51.13
-56.64
-58.61
-55.86
-48.04
-35.78
-20.65
-4.62
10.54
23.62
34.16
42.15
47.75
51.03
51.97
50.71
47.67
43.68
39.66
36.35
33.95
32.05
29.97
27.03
22.96
18.01
12.83
8.07
4.11
0.79
-2.50
-6.58
-12.15
-19.53
-28.51
-38.34
-47.88
-55.73
-60.48
-60.99
-56.68
-47.80
-35.38
-21.00
-6.38
7.08
18.49
27.54
34.23
38.76
41.33
42.25
41.92
40.81
39.40
37.96
36.54
34.92
32.79
29.83
25.93
21.18
15.90
10.54
5.49
0.99
-3.09
-7.23
-12.08
-18.25
-26.02
-35.08
-44.52
-52.95
-58.85
-60.94
-58.49
-51.55
-40.87
-27.69
-13.47
0.46
13.03
23.51
31.45
36.63
39.00
38.83
36.65
33.22
29.46
26.12
23.62
21.90
20.49
18.70
15.92
11.92
6.94
1.59
-3.52
-8.03
-12.06
-16.19
-21.19
-27.67
-35.75
-44.98
-54.32
-62.46
-68.07
-70.09
-68.03
-61.94
-52.50
-40.78
-28.08
-15.69
-4.77
3.88
9.77
12.77
13.15
11.42
8.24
4.14
-0.40
-5.11
-9.68
-13.83
-17.17
-19.41
-20.39
-20.17
-18.95
-17.02
-14.75
-12.63
-11.39
-11.88
-14.89
-20.77
-29.20
-39.13
-48.95
-56.85
-61.18
-60.76
-55.06
-44.35
-29.69
-12.63
5.04
21.70
36.18
47.86
56.47
61.89
64.05
63.10
59.51
54.16
48.23
42.69
38.05
34.08
30.03
25.17
19.17
12.38
5.69
0.04
-4.08
-6.88
-9.19
-12.07
-16.31
-22.13
-29.02
-35.92
-41.44
-44.17
-43.01
-37.38
-27.43
-14.03
1.33
16.97
31.38
43.57
53.06
59.81
64.00
65.88
65.72
63.90
60.97
57.50
54.01
50.75
47.74
44.72
41.35
37.34
32.60
27.27
21.67
16.09
10.69
5.34
-0.39
-7.11
-15.27
-24.89
-35.30
-45.22
-52.98
-56.96
-56.13
-50.36
-40.37
-27.52
-13.38
0.62
13.38
24.20
32.59
38.28
41.22
41.62
40.12
37.49
34.65
32.26
30.59
29.40
28.17
26.27
23.28
19.17
14.19
8.88
3.72
-1.05
-5.61
-10.46
-16.24
-23.48
-32.28
-42.09
-51.67
-59.38
-63.48
-62.75
-56.82
-46.29
-32.58
-17.47
-2.68
10.47
21.14
28.99
34.07
36.71
37.44
36.82
35.36
33.38
30.98
28.14
24.83
21.11
17.09
12.94
8.70
4.52
0.52
-3.14
-6.45
-9.65
-13.36
-18.36
-25.17
-33.72
-43.15
-51.95
-58.46
-61.33
-59.86
-54.12
-44.74
-32.73
-19.27
-5.60
7.03
17.55
25.18
29.60
31.04
30.17
27.97
25.33
22.85
20.67
18.63
16.43
13.90
11.09
8.24
5.59
3.14
0.68
-2.19
-5.83
-10.48
-16.16
-22.80
-30.30
-38.43
-46.72
-54.15
-59.37
-60.87
-57.55
-49.21
-36.74
-21.82
-6.46
7.60
19.27
28.14
34.28
37.93
39.43
39.14
37.52
35.15
32.63
30.42
28.58
26.87
24.86
22.17
18.73
14.82
10.98
7.66
4.91
2.27
-1.17
-6.37
-13.84
-23.33
-33.74
-43.41
-50.44
-53.28
-51.12
-44.05
-33.00
-19.47
-5.12
8.53
20.39
29.80
36.56
40.74
42.62
42.51
40.89
38.26
35.19
32.16
29.48
27.20
25.21
23.26
21.15
18.80
16.19
13.34
10.17
6.42
1.69
-4.45
-12.24
-21.63
-32.06
-42.45
-51.33
-57.07
-58.30
-54.37
-45.57
-33.14
-18.89
-4.67
8.10
18.69
26.95
33.02
37.05
39.07
39.07
37.22
33.96
29.92
25.78
21.97
18.57
15.36
11.98
8.21
4.09
-0.10
-3.98
-7.35
-10.35
-13.48
-17.38
-22.55
-29.04
-36.32
-43.22
-48.24
-50.05
-47.83
-41.56
-31.97
-20.29
-7.93
3.90
14.39
23.10
29.96
35.04
38.44
40.23
40.54
39.60
37.82
35.62
33.32
30.92
28.15
24.67
20.22
15.02
9.60
4.65
0.59
-2.74
-6.03
-10.25
-16.24
-24.29
-33.95
-44.07
-52.97
-58.83
-60.18
-56.35
-47.72
-35.68
-22.11
-8.91
2.62
11.89
18.97
24.10
27.49
29.02
28.58
26.27
22.66
18.62
15.05
12.41
10.61
9.02
6.90
3.69
-0.70
-5.89
-11.30
-16.43
-21.21
-26.02
-31.57
-38.51
-47.01
-56.43
-65.25
-71.49
-73.26
-69.54
-60.44
-47.25
-31.99
-16.90
-3.96
5.35
10.23
10.73
7.85
3.56
0.25
0.02
3.75
10.60
18.28
23.84
24.97
20.91
12.88
3.54
-4.06
-7.55
-6.12
-0.64
6.77
13.56
17.56
17.60
13.72
7.11
-0.24
-6.01
-8.08
-5.07
3.26
15.90
30.90
45.95
59.00
68.82
74.97
77.68
77.55
75.40
72.09
68.50
65.29
62.75
60.63
58.21
54.69
49.50
42.65
34.75
26.68
19.29
13.06
7.96
3.54
-0.89
-6.01
-12.33
-20.03
-28.97
-38.55
-47.74
-55.11
-59.17
-58.66
-53.10
-43.00
-29.76
-15.32
-1.46
10.64
20.62
28.74
35.41
40.78
44.62
46.58
46.46
44.54
41.54
38.22
35.08
32.10
28.77
24.57
19.30
13.31
7.42
2.48
-1.10
-3.54
-5.68
-8.63
-13.27
-19.93
-28.33
-37.68
-46.84
-54.51
-59.39
-60.46
-57.16
-49.71
-39.03
-26.58
-13.87
-2.06
8.17
16.60
23.18
27.82
30.36
30.80
29.47
27.10
24.56
22.54
21.23
20.31
19.15
17.19
14.21
10.38
6.13
1.92
-1.99
-5.62
-9.18
-12.99
-17.38
-22.69
-29.11
-36.65
-44.88
-52.89
-59.35
-62.81
-62.15
-56.94
-47.69
-35.65
-22.45
-9.57
1.98
11.70
19.36
24.93
28.30
29.46
28.69
26.68
24.37
22.63
21.84
21.81
21.90
21.38
19.81
17.20
13.80
9.99
5.97
1.82
-2.51
-7.06
-11.86
-16.96
-22.47
-28.48
-34.87
-41.08
-46.12
-48.77
-47.93
-43.07
-34.38
-22.77
-9.57
3.81
16.18
26.69
34.86
40.46
43.50
44.19
42.97
40.50
37.45
34.41
31.70
29.37
27.23
24.93
22.15
18.75
14.84
10.72
6.80
3.37
0.52
-2.07
-4.94
-8.69
-13.80
-20.38
-27.96
-35.58
-41.95
-45.78
-46.07
-42.36
-34.82
-24.23
-11.76
1.21
13.41
23.83
31.89
37.44
40.66
41.92
41.59
39.97
37.36
34.01
30.24
26.43
22.95
20.06
17.75
15.70
13.51
10.75
7.29
3.28
-0.90
-4.95
-8.84
-12.96
-17.92
-24.23
-31.85
-40.16
-48.00
-54.09
-57.41
-57.38
-53.90
-47.31
-38.20
-27.41
-15.87
-4.47
6.03
15.07
22.30
27.56
30.82
32.29
32.39
31.71
30.82
30.10
29.61
29.06
28.08
26.34
23.74
20.35
16.32
11.86
7.17
2.43
-2.18
-6.60
-10.92
-15.48
-20.71
-26.93
-34.09
-41.69
-48.79
-54.30
-57.22
-56.89
-53.08
-46.07
-36.50
-25.29
-13.48
-2.08
8.07
16.33
22.34
25.97
27.38
26.87
24.95
22.25
19.41
16.99
15.27
14.22
13.39
12.18
10.03
6.70
2.44
-2.14
-6.33
-9.71
-12.28
-14.56
-17.24
-20.87
-25.63
-31.24
-37.17
-42.69
-47.05
-49.44
-49.08
-45.38
-38.13
-27.76
-15.36
-2.44
9.44
19.09
25.92
29.95
31.58
31.43
30.09
28.10
25.92
23.91
22.30
21.12
20.22
19.31
18.07
16.24
13.76
10.66
7.09
3.22
-0.78
-4.80
-8.86
-13.14
-17.98
-23.69
-30.32
-37.48
-44.27
-49.45
-51.78
-50.45
-45.23
-36.54
-25.20
-12.29
1.07
13.76
24.74
33.19
38.72
41.47
42.07
41.42
40.35
39.35
38.50
37.57
36.25
34.29
31.60
28.17
24.05
19.33
14.27
9.24
4.61
0.63
-2.81
-6.24
-10.36
-15.73
-22.46
-30.02
-37.43
-43.50
-47.19
-47.89
-45.41
-39.94
-31.91
-21.96
-10.90
0.40
10.98
20.04
26.98
31.50
33.63
33.67
32.19
29.84
27.31
25.07
23.31
21.89
20.46
18.73
16.54
13.90
10.90
7.60
3.99
0.12
-3.92
-7.98
-12.03
-16.23
-20.91
-26.46
-32.98
-40.15
-47.10
-52.66
-55.63
-55.16
-50.91
-43.17
-32.75
-20.77
-8.48
3.04
12.96
20.81
26.42
29.81
31.21
30.91
29.33
26.96
24.33
21.84
19.69
17.89
16.23
14.43
12.23
9.52
6.36
2.87
-0.74
-4.35
-7.92
-11.59
-15.57
-20.08
-25.21
-30.83
-36.50
-41.52
-45.04
-46.24
-44.54
-39.76
-32.25
-22.78
-12.35
-2.05
7.19
14.66
20.03
23.37
25.07
25.74
25.97
26.12
26.22
25.94
24.76
22.18
18.10
12.91
7.40
2.49
-1.20
-3.71
-5.74
-8.48
-13.15
-20.41
-30.02
-40.71
-50.60
-57.75
-60.71
-58.99
-53.13
-44.62
-35.35
-27.12
-20.90
-16.60
-12.97
-8.18
-0.54
10.73
25.05
40.70
55.42
67.30
75.32
79.43
80.26
78.45
74.39
68.18
59.99
50.29
40.10
30.70
23.21
18.16
15.28
13.73
12.40
10.37
7.11
2.51
-3.28
-9.92
-17.01
-24.09
-30.47
-35.23
-37.31
-35.77
-30.09
-20.62
-8.59
4.04
15.20
23.25
27.50
28.24
26.43
23.24
19.62
16.11
12.95
10.28
8.19
6.77
5.93
5.38
4.62
3.08
0.46
-3.27
-7.75
-12.42
-16.81
-20.75
-24.46
-28.38
-32.97
-38.39
-44.38
-50.34
-55.49
-59.06
-60.51
-59.47
-55.73
-49.32
-40.43
-29.54
-17.44
-5.12
6.34
15.97
23.15
27.65
29.66
29.72
28.52
26.72
24.81
23.02
21.42
20.01
18.73
17.54
16.33
14.88
12.93
10.23
6.67
2.38
-2.40
-7.47
-12.81
-18.55
-24.95
-32.06
-39.53
-46.62
-52.29
-55.53
-55.57
-52.12
-45.38
-36.02
-24.97
-13.31
-2.10
7.76
15.60
21.13
24.39
25.73
25.71
24.91
23.81
22.65
21.41
19.96
18.17
16.05
13.67
11.14
8.46
5.61
2.53
-0.72
-4.05
-7.36
-10.68
-14.17
-18.16
-22.88
-28.30
-34.04
-39.31
-43.20
-44.82
-43.56
-39.25
-32.27
-23.37
-13.51
-3.55
5.86
14.36
21.74
27.79
32.32
35.11
36.16
35.64
33.99
31.69
29.21
26.86
24.83
23.17
21.82
20.57
19.14
17.29
14.88
11.98
8.74
5.23
1.32
-3.29
-8.81
-15.23
-22.01
-28.31
-33.18
-35.87
-35.95
-33.37
-28.24
-20.79
-11.43
-0.79
10.17
20.36
28.72
34.63
37.97
39.13
38.79
37.64
36.22
34.82
33.51
32.19
30.78
29.24
27.63
26.03
24.52
23.12
21.85
20.68
19.57
18.34
16.62
13.86
9.47
3.14
-4.92
-13.92
-22.60
-29.77
-34.61
-36.94
-37.15
-35.90
-33.78
-31.11
-27.92
-24.06
-19.45
-14.19
-8.65
-3.32
1.43
5.32
8.25
10.18
11.05
10.73
9.21
6.63
3.34
-0.22
-3.74
-7.07
-10.38
-13.87
-17.77
-22.26
-27.51
-33.70
-40.88
-48.89
-57.15
-64.67
-70.15
-72.29
-70.12
-63.31
-52.35
-38.46
-23.20
-8.07
5.84
17.98
28.14
36.15
41.64
44.28
44.04
41.50
37.76
34.07
31.20
29.15
27.24
24.66
20.92
16.28
11.51
7.42
4.44
2.37
0.56
-1.78
-5.27
-10.19
-16.32
-23.04
-29.35
-34.18
-36.53
-35.84
-32.11
-25.83
-17.78
-8.82
0.30
8.91
16.39
22.22
25.99
27.64
27.50
26.21
24.55
23.09
22.10
21.48
20.95
20.10
18.62
16.33
13.27
9.66
5.86
2.16
-1.33
-4.88
-8.99
-14.32
-21.35
-30.12
-40.04
-49.93
-58.16
-63.05
-63.35
-58.57
-49.15
-36.39
-22.10
-8.02
4.44
14.54
22.03
27.08
29.95
30.93
30.39
28.72
26.46
24.13
22.09
20.49
19.14
17.74
16.07
14.09
12.00
10.05
8.37
6.77
4.76
1.69
-2.92
-9.19
-16.71
-24.65
-31.92
-37.47
-40.46
-40.43
-37.32
-31.43
-23.33
-13.81
-3.75
5.97
14.57
21.49
26.41
29.25
30.13
29.37
27.35
24.58
21.53
18.55
15.81
13.28
10.80
8.17
5.33
2.31
-0.76
-3.78
-6.81
-10.11
-14.09
-19.14
-25.42
-32.73
-40.52
-47.85
-53.66
-56.91
-56.76
-52.75
-44.90
-33.80
-20.46
-6.19
7.68
20.10
30.39
38.28
43.79
47.04
48.24
47.66
45.65
42.68
39.29
35.92
32.77
29.79
26.69
23.19
19.15
14.65
10.00
5.49
1.14
-3.30
-8.34
-14.38
-21.46
-29.03
-36.02
-41.20
-43.50
-42.25
-37.32
-29.11
-18.37
-6.12
6.48
18.30
28.45
36.37
41.89
45.21
46.64
46.52
45.11
42.63
39.37
35.69
32.02
28.77
26.14
24.17
22.72
21.56
20.47
19.21
17.48
14.95
11.16
5.72
-1.47
-10.11
-19.39
-28.11
-34.91
-38.65
-38.66
-34.92
-28.07
-19.19
-9.53
-0.15
8.19
15.12
20.52
24.36
26.66
27.50
27.04
25.57
23.47
21.02
18.44
15.84
13.25
10.73
8.30
6.04
3.87
1.67
-0.75
-3.59
-6.98
-11.00
-15.69
-21.07
-27.03
-33.33
-39.38
-44.38
-47.39
-47.60
-44.60
-38.55
-30.22
-20.80
-11.54
-3.48
2.82
7.28
10.15
11.84
12.65
12.68
11.72
9.38
5.29
-0.56
-7.66
-14.92
-20.88
-24.13
-23.81
-19.92
-13.46
-6.18
-0.08
3.13
2.54
-1.80
-8.86
-16.97
-24.15
-28.63
-29.24
-25.67
-18.54
-9.13
0.93
10.15
17.50
22.54
25.36
26.37
26.04
24.76
22.81
20.38
17.72
15.05
12.59
10.42
8.55
6.88
5.28
3.59
1.75
-0.24
-2.31
-4.39
-6.48
-8.69
-11.20
-14.24
-17.97
-22.44
-27.46
-32.67
-37.54
-41.40
-43.56
-43.31
-40.17
-34.00
-25.10
-14.27
-2.60
8.70
18.65
26.57
32.26
35.80
37.48
37.68
36.80
35.24
33.36
31.38
29.32
27.06
24.51
21.69
18.79
16.12
13.92
12.11
10.37
8.11
4.80
0.12
-5.88
-12.83
-20.10
-26.88
-32.37
-35.77
-36.42
-33.91
-28.25
-19.93
-9.86
0.86
11.11
20.08
27.29
32.57
36.04
37.91
38.44
37.96
36.78
35.22
33.52
31.79
30.02
28.11
25.92
23.33
20.33
16.95
13.38
9.73
6.09
2.29
-2.01
-7.22
-13.54
-20.75
-28.19
-34.80
-39.47
-41.29
-39.82
-35.12
-27.73
-18.48
-8.36
1.64
10.66
18.10
23.62
27.17
28.86
28.98
27.94
26.20
24.21
22.27
20.43
18.51
16.19
13.23
9.64
5.73
1.97
-1.27
-3.93
-6.28
-8.81
-11.99
-16.17
-21.47
-27.75
-34.55
-41.10
-46.42
-49.53
-49.74
-46.82
-41.07
-33.20
-24.08
-14.57
-5.38
2.88
9.74
14.90
18.31
20.20
20.98
21.07
20.79
20.30
19.59
18.60
17.26
15.50
13.33
10.73
7.70
4.27
0.53
-3.39
-7.41
-11.56
-15.98
-20.91
-26.52
-32.79
-39.31
-45.35
-49.90
-51.96
-50.81
-46.21
-38.47
-28.37
-16.93
-5.20
5.89
15.66
23.61
29.46
33.12
34.70
34.56
33.23
31.33
29.38
27.73
26.45
25.33
24.15
22.62
20.63
18.22
15.52
12.67
9.73
6.64
3.16
-0.98
-6.07
-12.22
-19.27
-26.70
-33.75
-39.47
-42.98
-43.56
-40.78
-34.58
-25.23
-13.43
-0.21
13.10
25.21
35.09
42.28
46.84
49.24
50.05
49.72
48.47
46.47
43.86
40.88
37.75
34.58
31.31
27.80
23.97
19.91
15.80
11.84
8.01
4.08
-0.32
-5.54
-11.67
-18.52
-25.56
-32.08
-37.20
-40.10
-40.20
-37.30
-31.72
-24.19
-15.68
-7.08
1.02
8.29
14.61
19.88
23.92
26.54
27.68
27.51
26.40
24.83
23.16
21.56
19.93
18.10
15.91
13.29
10.34
7.22
4.14
1.17
-1.74
-4.84
-8.46
-12.94
-18.44
-24.87
-31.75
-38.38
-43.91
-47.58
-48.82
-47.44
-43.49
-37.31
-29.36
-20.26
-10.67
-1.28
7.18
14.12
19.05
21.84
22.66
21.95
20.36
18.49
16.82
15.51
14.53
13.63
12.51
10.96
8.91
6.47
3.83
1.18
-1.41
-3.99
-6.77
-10.05
-14.11
-19.07
-24.77
-30.71
-36.15
-40.23
-42.20
-41.56
-38.14
-32.14
-24.10
-14.71
-4.85
4.67
13.08
19.83
24.58
27.26
27.98
27.07
25.01
22.33
19.59
17.16
15.13
13.34
11.45
9.21
6.58
3.76
0.99
-1.58
-4.10
-6.89
-10.31
-14.59
-19.72
-25.56
-31.85
-38.26
-44.27
-49.15
-52.03
-52.12
-48.91
-42.44
-33.16
-21.89
-9.48
3.25
15.56
26.73
36.04
42.87
46.93
48.25
47.30
44.83
41.67
38.53
35.81
33.51
31.38
29.09
26.38
23.21
19.75
16.27
12.96
9.80
6.53
2.73
-1.99
-7.76
-14.37
-21.25
-27.50
-32.15
-34.32
-33.49
-29.60
-23.11
-14.82
-5.72
3.23
11.27
17.89
22.89
26.30
28.31
29.19
29.22
28.60
27.43
25.74
23.54
20.84
17.68
14.20
10.52
6.80
3.11
-0.50
-4.10
-7.80
-11.78
-16.18
-21.18
-26.83
-32.97
-39.25
-45.08
-49.64
-52.06
-51.56
-47.66
-40.26
-29.78
-17.16
-3.63
9.47
20.99
30.20
36.86
41.13
43.34
43.84
42.90
40.74
37.63
33.92
30.03
26.28
22.82
19.61
16.48
13.30
10.06
6.85
3.74
0.69
-2.52
-6.16
-10.50
-15.55
-21.09
-26.61
-31.45
-34.95
-36.53
-35.88
-33.02
-28.26
-22.18
-15.47
-8.79
-2.70
2.38
6.19
8.57
9.54
9.28
8.10
6.45
4.70
3.05
1.47
-0.33
-2.66
-5.66
-9.20
-12.85
-16.15
-18.72
-20.58
-22.13
-24.05
-27.11
-31.86
-38.43
-46.47
-55.12
-63.20
-69.37
-72.38
-71.34
-65.88
-56.33
-43.64
-29.23
-14.66
-1.32
9.86
18.46
24.47
28.14
29.75
29.57
27.89
25.06
21.50
17.64
13.81
10.12
6.48
2.72
-1.28
-5.52
-9.84
-14.10
-18.28
-22.54
-27.28
-32.95
-39.89
-48.07
-56.95
-65.41
-71.92
-74.73
-72.40
-64.06
-49.86
-30.92
-9.18
13.02
33.50
50.60
63.38
71.60
75.52
75.71
72.85
67.64
60.71
52.55
43.49
33.76
23.57
13.25
3.24
-6.03
-14.27
-21.59
-28.48
-35.60
-43.55
-52.73
-63.22
-74.79
-86.78
-98.10
-107.16
-112.14
-111.40
-103.99
-90.12
-71.11
-49.10
-26.49
-5.32
13.03
27.86
39.00
46.58
50.81
52.02
50.67
47.29
42.61
37.34
32.10
27.30
23.11
19.57
16.69
14.51
13.06
12.26
11.84
11.29
9.89
6.77
1.13
-7.42
-18.60
-31.15
-43.08
-52.12
-56.36
-54.78
-47.48
-35.42
-20.05
-2.89
14.76
31.82
47.36
60.54
70.61
77.14
80.08
79.94
77.67
74.43
71.32
68.95
67.29
65.75
63.55
60.21
55.72
50.58
45.41
40.70
36.47
32.34
27.56
21.33
12.94
2.11
-10.87
-24.88
-38.04
-48.12
-53.11
-51.89
-44.53
-32.34
-17.33
-1.68
12.71
24.53
32.99
37.70
38.63
36.08
30.62
23.07
14.28
4.88
-4.87
-15.02
-25.72
-36.89
-47.92
-57.73
-65.10
-69.20
-69.95
-68.25
-65.68
-64.01
-64.75
-68.70
-75.79
-85.01
-94.62
-102.30
-105.67
-102.83
-92.97
-76.63
-55.49
-31.84
-7.88
14.72
34.98
52.40
66.73
77.81
85.63
90.44
92.80
93.48
93.25
92.64
91.84
90.79
89.46
87.96
86.64
85.96
86.26
87.46
88.99
89.73
88.36
83.77
75.31
63.08
47.89
31.23
14.96
1.07
-8.62
-12.95
-11.59
-5.23
4.65
16.12
27.30
36.81
43.91
48.44
50.54
50.54
48.81
45.92
42.61
39.74
38.07
37.98
39.37
41.76
44.64
47.67
50.74
53.80
56.51
58.16
57.81
54.55
47.93
38.04
25.49
11.26
-3.38
-16.95
-27.79
-34.38
-35.69
-31.57
-22.82
-10.99
2.18
15.18
27.02
37.19
45.42
51.53
55.40
57.12
57.12
56.05
54.60
53.14
51.61
49.64
46.67
42.29
36.41
29.24
21.25
12.84
4.27
-4.53
-13.83
-24.02
-35.38
-47.84
-60.85
-73.38
-83.98
-91.19
-93.91
-91.66
-84.80
-74.28
-61.46
-47.68
-34.08
-21.48
-10.43
-1.30
5.72
10.58
13.47
14.74
14.81
14.15
13.09
11.83
10.39
8.65
6.50
3.90
1.00
-1.92
-4.58
-6.84
-8.85
-11.05
-14.01
-18.22
-23.81
-30.47
-37.38
-43.42
-47.34
-48.07
-45.05
-38.34
-28.72
-17.39
-5.67
5.28
14.76
22.40
28.07
31.75
33.43
33.20
31.34
28.39
24.95
21.66
18.83
16.56
14.66
12.88
11.01
8.93
6.58
3.95
1.05
-2.17
-5.74
-9.75
-14.26
-19.33
-24.85
-30.45
-35.44
-38.88
-39.72
-37.27
-31.34
-22.42
-11.62
-0.35
10.10
18.77
25.18
29.25
31.09
30.90
28.93
25.58
21.40
17.12
13.38
10.60
8.78
7.64
6.80
5.96
5.08
4.22
3.39
2.44
0.99
-1.36
-4.88
-9.57
-15.13
-21.04
-26.64
-31.20
-34.07
-34.62
-32.46
-27.52
-20.13
-11.12
-1.61
7.17
14.27
19.12
21.70
22.38
21.67
20.09
18.04
15.83
13.68
11.69
9.82
7.94
5.81
3.32
0.59
-2.10
-4.32
-5.80
-6.56
-6.90
-7.35
-8.37
-10.24
-12.95
-16.29
-19.83
-23.09
-25.51
-26.55
-25.83
-23.23
-18.93
-13.44
-7.51
-1.88
2.83
6.22
8.10
8.47
7.43
5.23
2.21
-1.19
-4.52
-7.45
-9.83
-11.75
-13.43
-15.10
-16.93
-18.95
-21.10
-23.24
-25.31
-27.36
-29.51
-31.95
-34.80
-38.07
-41.57
-44.88
-47.41
-48.45
-47.28
-43.38
-36.57
-27.09
-15.73
-3.55
8.24
18.59
26.85
32.76
36.40
38.00
37.83
36.14
33.26
29.64
25.86
22.44
19.74
17.79
16.30
14.85
13.07
10.82
8.21
5.45
2.72
-0.04
-3.08
-6.73
-11.18
-16.33
-21.64
-26.34
-29.49
-30.32
-28.46
-23.93
-17.16
-8.90
-0.08
8.37
15.59
20.99
24.31
25.60
25.21
23.66
21.46
19.03
16.64
14.43
12.44
10.69
9.17
7.81
6.53
5.28
4.05
2.87
1.72
0.40
-1.43
-4.20
-8.22
-13.52
-19.70
-25.98
-31.40
-35.03
-36.18
-34.50
-30.08
-23.37
-15.18
-6.63
1.08
6.95
10.34
11.15
9.80
6.95
3.33
-0.50
-4.16
-7.42
-10.15
-12.35
-14.15
-15.82
-17.74
-20.21
-23.38
-27.13
-31.18
-35.22
-39.17
-43.24
-47.81
-53.19
-59.29
-65.41
-70.27
-72.27
-70.04
-62.95
-51.37
-36.56
-20.46
-4.96
8.46
18.90
26.12
30.27
31.79
31.26
29.33
26.67
23.86
21.18
18.59
15.81
12.48
8.43
3.84
-0.81
-5.01
-8.43
-11.21
-13.95
-17.53
-22.83
-30.35
-39.91
-50.59
-60.84
-68.75
-72.50
-70.82
-63.31
-50.58
-34.16
-16.05
1.67
17.37
29.95
38.90
44.19
46.19
45.53
43.04
39.63
36.03
32.64
29.51
26.38
22.87
18.77
14.08
9.04
3.96
-0.87
-5.36
-9.68
-14.25
-19.75
-26.84
-35.94
-46.80
-58.31
-68.50
-75.06
-76.00
-70.36
-58.60
-42.38
-24.05
-5.87
10.49
24.17
34.86
42.58
47.39
49.36
48.71
45.88
41.55
36.47
31.24
26.13
21.13
16.10
10.92
5.71
0.78
-3.47
-6.85
-9.52
-12.06
-15.34
-20.27
-27.66
-37.77
-50.05
-63.01
-74.33
-81.40
-82.11
-75.57
-62.38
-44.43
-24.21
-4.01
14.55
30.56
43.55
53.23
59.32
61.79
61.08
58.12
54.10
50.06
46.54
43.44
40.23
36.28
31.24
25.19
18.57
11.97
5.82
0.25
-4.94
-10.32
-16.55
-24.38
-34.29
-46.24
-59.44
-72.25
-82.39
-87.54
-86.05
-77.52
-62.99
-44.58
-24.83
-5.90
10.82
24.79
35.97
44.47
50.23
53.16
53.31
51.09
47.34
43.10
39.28
36.33
34.11
32.03
29.42
25.86
21.47
16.72
12.20
8.21
4.57
0.63
-4.53
-11.85
-21.90
-34.73
-49.58
-64.86
-78.28
-87.34
-89.96
-85.26
-73.83
-57.59
-39.11
-20.73
-3.93
10.79
23.58
34.67
43.93
50.95
55.28
56.83
56.07
53.93
51.40
49.20
47.52
46.08
44.37
41.97
38.68
34.57
29.88
24.89
19.75
14.51
9.00
2.96
-3.99
-12.27
-22.20
-33.88
-46.88
-60.09
-71.73
-79.66
-81.95
-77.47
-66.33
-49.81
-30.07
-9.37
10.37
27.93
42.71
54.52
63.34
69.17
72.16
72.61
71.06
68.22
64.79
61.34
58.26
55.70
53.61
51.75
49.75
47.25
43.93
39.68
34.61
28.91
22.82
16.48
9.93
3.02
-4.46
-12.84
-22.46
-33.61
-46.31
-59.98
-73.25
-84.09
-90.23
-89.91
-82.51
-68.76
-50.56
-30.36
-10.39
7.81
23.55
36.73
47.50
55.94
62.05
65.79
67.32
67.06
65.57
63.43
60.97
58.29
55.33
52.05
48.60
45.28
42.35
39.81
37.36
34.41
30.47
25.29
19.00
12.03
4.91
-2.01
-8.72
-15.50
-22.94
-31.73
-42.39
-54.91
-68.42
-81.07
-90.38
-93.92
-90.14
-79.01
-62.03
-41.78
-21.01
-1.85
14.53
27.93
38.56
46.71
52.51
55.98
57.29
56.86
55.32
53.34
51.42
49.72
48.21
46.70
45.09
43.31
41.30
38.95
36.08
32.41
27.73
22.04
15.52
8.48
1.27
-5.92
-13.15
-20.74
-29.22
-39.10
-50.52
-62.95
-74.93
-84.32
-88.78
-86.68
-77.63
-62.78
-44.44
-25.17
-7.12
8.50
21.36
31.62
39.48
45.01
48.22
49.21
48.33
46.16
43.41
40.66
38.33
36.52
35.08
33.61
31.65
28.85
25.05
20.37
15.08
9.54
3.90
-1.89
-8.07
-14.87
-22.40
-30.65
-39.58
-49.17
-59.30
-69.51
-78.65
-84.96
-86.44
-81.50
-69.82
-52.58
-32.21
-11.61
6.78
21.65
32.81
40.81
46.37
49.94
51.61
51.37
49.29
45.80
41.59
37.42
33.85
31.06
28.84
26.70
24.16
20.87
16.84
12.34
7.69
3.11
-1.42
-6.12
-11.26
-17.09
-23.77
-31.44
-40.23
-50.22
-61.09
-71.99
-81.33
-87.18
-87.77
-82.20
-70.80
-55.01
-36.95
-18.65
-1.54
13.65
26.73
37.64
46.23
52.25
55.56
56.36
55.19
52.87
50.11
47.30
44.52
41.61
38.40
34.85
31.09
27.29
23.55
19.80
15.88
11.57
6.70
1.16
-5.16
-12.38
-20.55
-29.62
-39.27
-48.79
-57.12
-62.96
-65.09
-62.72
-55.70
-44.61
-30.62
-15.17
0.36
14.81
27.36
37.47
44.84
49.42
51.39
51.24
49.56
47.01
44.11
41.15
38.22
35.26
32.17
28.83
25.15
21.11
16.73
12.13
7.49
2.99
-1.31
-5.56
-10.08
-15.29
-21.52
-28.93
-37.46
-46.78
-56.22
-64.74
-70.91
-73.27
-70.66
-62.76
-50.30
-34.86
-18.44
-2.82
10.88
22.27
31.40
38.46
43.51
46.57
47.67
47.11
45.33
42.81
39.93
36.87
33.71
30.43
27.11
23.73
20.31
16.75
12.95
8.86
4.53
0.10
-4.31
-8.74
-13.38
-18.52
-24.45
-31.25
-38.79
-46.49
-53.44
-58.42
-60.18
-57.78
-50.92
-40.11
-26.61
-12.03
2.05
14.49
24.67
32.41
37.80
40.94
41.96
41.07
38.62
35.15
31.37
27.88
25.13
23.20
21.91
20.84
19.59
17.83
15.44
12.49
9.18
5.74
2.32
-1.10
-4.72
-8.85
-13.83
-19.87
-26.95
-34.72
-42.43
-49.05
-53.35
-54.21
-50.93
-43.45
-32.44
-19.21
-5.38
7.56
18.52
26.98
32.87
36.50
38.22
38.36
37.19
34.94
31.91
28.49
25.10
22.11
19.69
17.73
15.87
13.66
10.81
7.33
3.56
-0.11
-3.43
-6.46
-9.54
-13.10
-17.44
-22.57
-28.31
-34.31
-40.15
-45.28
-48.96
-50.25
-48.24
-42.39
-32.88
-20.61
-7.05
6.27
18.09
27.61
34.45
38.48
39.78
38.60
35.51
31.35
27.00
23.22
20.33
18.18
16.38
14.49
12.22
9.57
6.71
3.89
1.31
-0.89
-2.71
-4.26
-5.81
-7.76
-10.55
-14.47
-19.53
-25.30
-30.95
-35.44
-37.73
-37.11
-33.26
-26.38
-17.09
-6.31
4.84
15.28
24.05
30.52
34.38
35.70
34.83
32.35
28.92
25.20
21.76
18.94
16.79
15.07
13.42
11.42
8.94
6.06
3.09
0.33
-2.06
-4.23
-6.58
-9.56
-13.52
-18.52
-24.30
-30.35
-35.96
-40.41
-42.99
-43.12
-40.38
-34.74
-26.52
-16.49
-5.66
4.91
14.30
21.85
27.22
30.28
31.07
29.79
26.87
22.96
18.77
14.91
11.62
8.83
6.15
3.27
0.07
-3.23
-6.30
-8.84
-10.81
-12.50
-14.30
-16.64
-19.81
-23.88
-28.69
-33.94
-39.12
-43.55
-46.44
-47.01
-44.69
-39.34
-31.32
-21.44
-10.78
-0.38
8.89
16.46
22.06
25.59
27.16
27.00
25.50
23.13
20.35
17.50
14.77
12.18
9.63
7.08
4.46
1.79
-0.97
-3.76
-6.55
-9.26
-11.87
-14.49
-17.40
-21.02
-25.66
-31.36
-37.61
-43.43
-47.55
-48.79
-46.44
-40.44
-31.42
-20.49
-8.86
2.32
12.17
20.05
25.56
28.46
28.74
26.67
22.87
18.25
13.74
10.06
7.42
5.60
3.99
1.96
-0.85
-4.45
-8.55
-12.80
-17.02
-21.24
-25.67
-30.61
-36.31
-42.83
-50.02
-57.31
-63.77
-68.14
-69.16
-65.89
-58.05
-46.11
-31.22
-14.88
1.35
16.08
28.26
37.26
42.85
45.20
44.76
42.27
38.48
34.16
29.92
26.06
22.60
19.27
15.58
11.15
5.83
-0.14
-6.30
-12.14
-17.51
-22.70
-28.47
-35.70
-45.04
-56.38
-68.70
-80.06
-88.05
-90.50
-86.10
-74.84
-58.02
-37.82
-16.71
3.19
20.44
34.35
44.72
51.62
55.26
55.99
54.41
51.33
47.61
43.96
40.69
37.64
34.38
30.40
25.46
19.77
13.88
8.42
3.74
-0.29
-4.37
-9.47
-16.51
-25.99
-37.69
-50.59
-62.95
-72.62
-77.50
-76.15
-68.13
-54.27
-36.35
-16.69
2.63
20.08
34.86
46.68
55.39
60.86
63.05
62.22
59.07
54.68
50.11
46.07
42.63
39.26
35.22
29.98
23.50
16.20
8.80
1.86
-4.34
-10.03
-15.69
-22.00
-29.53
-38.74
-49.75
-62.09
-74.51
-84.95
-90.95
-90.39
-82.33
-67.45
-47.92
-26.62
-6.16
11.82
26.80
38.95
48.55
55.57
59.70
60.70
58.83
54.94
50.27
45.94
42.53
39.99
37.65
34.74
30.74
25.53
19.45
12.99
6.53
0.22
-6.08
-12.69
-20.01
-28.47
-38.49
-50.32
-63.70
-77.54
-89.78
-97.74
-98.91
-91.86
-76.82
-55.71
-31.51
-7.34
14.40
32.42
46.43
56.77
63.91
68.23
70.01
69.62
67.57
64.57
61.30
58.23
55.42
52.58
49.18
44.80
39.29
32.87
26.04
19.30
12.98
7.06
1.29
-4.79
-11.60
-19.50
-28.74
-39.39
-51.33
-63.97
-76.13
-86.06
-91.68
-91.24
-83.91
-70.14
-51.50
-30.25
-8.55
11.90
30.10
45.46
57.67
66.42
71.58
73.29
72.14
69.07
65.08
61.03
57.39
54.25
51.38
48.41
44.94
40.66
35.39
29.13
22.01
14.29
6.29
-1.70
-9.52
-17.20
-25.05
-33.61
-43.51
-55.17
-68.42
-82.11
-94.22
-102.07
-103.18
-96.07
-80.89
-59.38
-34.37
-8.92
14.54
34.52
50.46
62.37
70.46
75.02
76.48
75.48
72.81
69.33
65.61
61.87
58.07
54.02
49.64
44.95
40.00
34.73
28.96
22.47
15.22
7.42
-0.55
-8.25
-15.47
-22.35
-29.37
-37.18
-46.44
-57.53
-70.26
-83.63
-95.72
-103.92
-105.59
-98.91
-83.59
-61.18
-34.65
-7.48
17.30
37.84
53.56
64.78
72.24
76.63
78.42
77.98
75.67
72.01
67.65
63.20
59.17
55.74
52.77
49.89
46.53
42.29
36.92
30.62
23.75
16.80
10.10
3.71
-2.60
-9.18
-16.47
-24.79
-34.32
-45.04
-56.58
-68.00
-77.77
-83.82
-84.05
-77.05
-62.72
-42.50
-19.02
4.70
26.11
43.66
56.89
66.03
71.53
73.79
73.13
69.97
64.97
59.08
53.18
47.93
43.48
39.58
35.74
31.54
26.77
21.55
16.10
10.65
5.28
-0.11
-5.78
-12.01
-18.98
-26.84
-35.63
-45.32
-55.66
-65.99
-75.10
-81.34
-82.95
-78.60
-67.96
-51.92
-32.39
-11.82
7.49
23.82
36.29
44.68
49.21
50.40
48.81
45.15
40.12
34.50
28.96
23.94
19.61
15.82
12.15
8.15
3.53
-1.72
-7.27
-12.62
-17.44
-21.75
-26.03
-31.11
-37.83
-46.66
-57.37
-68.94
-79.62
-87.33
-90.12
-86.68
-76.73
-61.12
-41.52
-20.07
1.17
20.53
36.85
49.51
58.21
62.96
64.03
62.03
57.83
52.46
46.88
41.69
37.12
32.97
28.79
24.09
18.60
12.34
5.59
-1.18
-7.53
-13.30
-18.76
-24.54
-31.49
-40.28
-51.06
-63.17
-75.15
-84.92
-90.21
-89.21
-81.07
-66.18
-46.19
-23.59
-1.02
19.31
36.00
48.53
57.02
61.89
63.72
63.14
60.83
57.52
53.86
50.27
46.90
43.53
39.71
34.92
28.82
21.33
12.76
3.62
-5.60
-14.76
-24.19
-34.65
-47.01
-61.75
-78.51
-95.74
-111.00
-121.41
-124.53
-119.09
-105.49
-85.70
-62.59
-39.23
-18.03
-0.46
12.87
21.89
26.71
27.51
24.66
18.88
11.25
2.96
-5.14
-12.79
-20.36
-28.47
-37.49
-47.21
-56.80
-65.20
-71.59
-75.79
-78.27
-80.00
-82.12
-85.58
-90.88
-97.77
-105.10
-110.86
-112.58
-108.07
-96.14
-77.07
-52.48
-24.77
3.63
30.80
55.41
76.60
93.70
106.29
114.37
118.55
120.01
120.17
120.15
120.36
120.32
118.83
114.53
106.45
94.50
79.54
63.18
47.10
32.45
19.39
7.10
-5.74
-20.38
-37.40
-56.34
-75.63
-92.85
-105.24
-110.41
-106.98
-94.97
-75.86
-52.08
-26.31
-0.85
22.73
43.55
61.06
74.85
84.56
89.98
91.28
89.02
83.95
76.87
68.42
59.11
49.36
39.68
30.65
22.91
16.90
12.79
10.24
8.45
6.22
2.20
-4.71
-14.85
-27.36
-40.18
-50.39
-55.03
-52.04
-40.96
-23.12
-1.08
22.23
44.38
63.89
80.11
92.85
101.88
106.98
108.03
105.46
100.31
94.03
87.99
82.97
78.92
75.10
70.54
64.56
57.09
48.59
39.82
31.43
23.65
16.11
7.99
-1.75
-13.92
-28.68
-45.21
-61.62
-75.22
-83.17
-83.40
-75.16
-59.44
-38.61
-15.68
6.59
26.27
42.46
54.99
63.95
69.46
71.52
70.26
66.17
60.23
53.67
47.64
42.85
39.35
36.58
33.75
30.22
25.81
20.82
15.81
11.22
7.04
2.81
-2.32
-9.16
-18.32
-29.91
-43.50
-57.87
-71.13
-80.82
-84.54
-80.67
-69.07
-51.26
-29.99
-8.38
11.12
27.19
39.60
48.72
54.86
58.06
58.24
55.50
50.48
44.27
38.11
32.86
28.73
25.28
21.73
17.42
12.08
5.94
-0.43
-6.47
-11.85
-16.70
-21.48
-26.88
-33.47
-41.64
-51.30
-61.76
-71.76
-79.51
-83.16
-81.19
-73.03
-59.26
-41.50
-22.00
-2.95
13.90
27.60
37.74
44.27
47.33
47.16
44.27
39.46
33.78
28.29
23.67
20.05
17.02
13.85
9.84
4.73
-1.22
-7.29
-12.66
-16.86
-20.03
-22.92
-26.73
-32.52
-40.84
-51.36
-62.77
-73.12
-80.18
-82.03
-77.50
-66.58
-50.42
-31.08
-10.99
7.58
23.10
34.82
42.67
46.97
48.16
46.76
43.41
38.92
34.23
30.11
26.89
24.33
21.74
18.35
13.70
7.89
1.51
-4.70
-10.19
-14.88
-19.18
-23.83
-29.67
-37.30
-46.90
-57.96
-69.21
-78.72
-84.26
-83.93
-76.85
-63.49
-45.63
-25.79
-6.46
10.56
24.43
35.02
42.58
47.32
49.36
48.82
46.11
41.99
37.44
33.40
30.37
28.30
26.59
24.45
21.28
16.90
11.68
6.28
1.34
-2.88
-6.67
-10.80
-16.27
-23.90
-34.00
-46.04
-58.63
-69.67
-76.83
-78.13
-72.61
-60.64
-43.82
-24.48
-4.99
12.83
27.95
39.96
48.75
54.27
56.52
55.72
52.47
47.82
42.87
38.48
34.92
31.82
28.56
24.47
19.32
13.29
6.87
0.64
-5.00
-9.93
-14.34
-18.71
-23.77
-30.31
-38.92
-49.65
-61.71
-73.38
-82.30
-86.07
-83.04
-72.87
-56.77
-37.04
-16.41
2.77
19.05
31.90
41.47
48.06
51.85
52.93
51.42
47.78
42.87
37.74
33.23
29.72
26.92
24.12
20.50
15.56
9.39
2.58
-4.08
-9.91
-14.68
-18.65
-22.49
-27.03
-32.94
-40.54
-49.63
-59.40
-68.52
-75.30
-78.07
-75.57
-67.38
-54.12
-37.37
-19.17
-1.57
13.93
26.43
35.57
41.38
44.05
43.94
41.65
37.98
33.84
30.06
27.10
24.94
23.15
21.10
18.19
14.11
8.94
3.15
-2.67
-8.01
-12.69
-16.97
-21.54
-27.20
-34.58
-43.88
-54.57
-65.49
-74.87
-80.75
-81.45
-76.08
-64.75
-48.68
-29.82
-10.32
7.91
23.48
35.65
44.02
48.59
49.60
47.61
43.51
38.43
33.49
29.45
26.54
24.41
22.39
19.78
16.14
11.47
6.10
0.49
-4.93
-9.99
-14.91
-20.14
-26.38
-34.27
-44.16
-55.75
-67.90
-78.67
-85.64
-86.69
-80.65
-67.82
-49.85
-29.20
-8.42
10.62
26.89
40.12
50.40
57.76
62.12
63.44
62.02
58.53
54.02
49.54
45.80
42.95
40.61
38.06
34.71
30.23
24.74
18.65
12.40
6.36
0.57
-5.18
-11.33
-18.46
-27.12
-37.70
-50.16
-63.77
-77.05
-87.78
-93.58
-92.53
-83.82
-68.11
-47.35
-24.17
-1.12
19.88
37.82
52.30
63.28
70.75
74.78
75.61
73.83
70.32
66.09
61.96
58.38
55.44
52.92
50.43
47.56
43.94
39.33
33.65
27.03
19.74
12.10
4.38
-3.31
-11.08
-19.15
-27.84
-37.44
-48.10
-59.71
-71.66
-82.74
-91.16
-94.88
-92.23
-82.50
-66.30
-45.48
-22.62
-0.28
19.63
36.09
48.90
58.28
64.61
68.20
69.31
68.35
65.84
62.43
58.70
55.02
51.54
48.19
44.83
41.23
37.20
32.60
27.38
21.55
15.26
8.74
2.21
-4.22
-10.64
-17.36
-24.82
-33.46
-43.56
-54.99
-67.10
-78.66
-87.91
-92.89
-91.98
-84.42
-70.60
-52.10
-31.26
-10.51
8.14
23.60
35.55
44.24
50.09
53.41
54.43
53.38
50.76
47.22
43.49
40.15
37.39
35.01
32.56
29.54
25.65
20.94
15.64
10.13
4.66
-0.75
-6.24
-12.14
-18.77
-26.34
-34.95
-44.55
-54.88
-65.37
-75.02
-82.32
-85.57
-83.22
-74.58
-60.12
-41.53
-21.21
-1.58
15.58
29.42
39.82
47.09
51.54
53.40
52.87
50.32
46.41
41.93
37.67
34.13
31.42
29.27
27.09
24.31
20.56
15.83
10.51
5.20
0.31
-4.08
-8.34
-13.18
-19.30
-27.17
-36.88
-48.08
-59.95
-71.17
-79.99
-84.43
-82.83
-74.33
-59.40
-39.84
-18.30
2.49
20.48
34.72
45.24
52.54
57.16
59.33
59.09
56.62
52.43
47.41
42.55
38.56
35.58
33.21
30.74
27.52
23.23
17.95
11.99
5.71
-0.64
-6.98
-13.43
-20.21
-27.61
-35.95
-45.53
-56.55
-68.89
-81.96
-94.44
-104.36
-109.46
-107.77
-98.35
-81.76
-60.04
-36.08
-12.87
7.45
23.88
36.47
45.80
52.44
56.69
58.63
58.37
56.37
53.39
50.33
47.94
46.56
46.06
46.06
46.07
45.63
44.42
42.26
39.10
34.95
29.99
24.40
18.29
11.60
4.02
-4.88
-15.37
-27.20
-39.30
-49.80
-56.45
-57.13
-50.68
-37.28
-18.50
3.18
25.11
45.15
62.04
75.29
84.90
90.92
93.34
92.21
87.79
80.81
72.40
63.74
55.78
48.84
42.68
36.63
29.99
22.31
13.65
4.51
-4.40
-12.55
-19.79
-26.51
-33.43
-41.38
-50.94
-62.24
-74.83
-87.64
-99.08
-107.18
-110.02
-106.19
-95.33
-78.32
-57.15
-34.36
-12.31
7.32
23.72
36.68
46.25
52.45
55.31
54.98
52.07
47.57
42.70
38.43
35.25
32.93
30.79
28.02
24.12
19.07
13.31
7.43
1.82
-3.53
-9.06
-15.42
-23.19
-32.73
-44.01
-56.63
-69.72
-81.97
-91.68
-97.07
-96.62
-89.68
-76.73
-59.36
-39.82
-20.40
-2.88
11.71
23.00
31.02
35.98
38.08
37.67
35.29
31.67
27.62
23.77
20.35
17.17
13.77
9.60
4.50
-1.33
-7.33
-12.85
-17.53
-21.52
-25.46
-30.31
-37.00
-45.98
-57.03
-69.01
-80.02
-87.77
-90.08
-85.56
-73.98
-56.49
-35.23
-12.82
8.36
26.59
40.98
51.36
57.94
61.05
61.08
58.48
53.89
48.08
41.87
35.86
30.21
24.67
18.81
12.35
5.41
-1.48
-7.67
-12.76
-16.90
-20.80
-25.54
-32.15
-41.36
-53.23
-66.91
-80.67
-92.04
-98.35
-97.45
-88.44
-72.06
-50.46
-26.55
-3.05
18.11
36.01
50.48
61.56
69.33
73.85
75.31
74.30
71.67
68.34
64.92
61.57
57.96
53.59
48.09
41.51
34.36
27.34
21.01
15.50
10.37
4.60
-2.95
-13.25
-26.56
-42.21
-58.50
-72.93
-82.75
-85.75
-80.76
-68.19
-49.78
-28.09
-5.69
15.39
33.92
49.30
61.21
69.47
73.95
74.86
72.83
68.90
64.16
59.46
55.07
50.76
45.99
40.32
33.57
25.94
17.96
10.19
3.06
-3.35
-9.39
-15.69
-23.11
-32.38
-43.94
-57.64
-72.55
-86.86
-98.10
-103.63
-101.43
-90.83
-72.87
-50.00
-25.47
-2.24
17.65
33.35
44.96
53.09
58.40
61.48
62.78
62.67
61.42
59.16
55.92
51.68
46.55
40.84
35.02
29.61
24.90
20.82
16.83
11.95
4.97
-5.18
-18.93
-35.58
-53.17
-68.83
-79.67
-83.78
-81.06
-73.30
-63.48
-54.49
-47.93
-43.57
-39.66
-33.84
-24.34
-10.57
6.71
25.88
45.07
62.63
77.30
88.17
94.55
96.12
93.02
85.99
76.36
65.64
55.04
45.23
36.22
27.62
18.99
10.11
1.01
-8.07
-16.98
-25.71
-34.56
-43.99
-54.52
-66.45
-79.53
-92.80
-104.42
-111.98
-113.23
-106.78
-92.79
-72.97
-50.06
-26.87
-5.59
12.66
27.59
39.27
47.71
52.75
54.37
52.98
49.54
45.33
41.50
38.64
36.58
34.69
32.19
28.65
24.17
19.25
14.49
10.29
6.55
2.77
-1.70
-7.53
-15.15
-24.65
-35.77
-47.70
-59.06
-67.93
-72.28
-70.48
-61.96
-47.42
-28.70
-8.11
12.18
30.55
46.01
57.93
65.85
69.50
68.98
65.00
58.89
52.24
46.38
42.00
38.95
36.56
34.00
30.77
26.84
22.54
18.33
14.49
10.95
7.26
2.75
-3.28
-11.34
-21.54
-33.52
-46.33
-58.46
-68.01
-73.10
-72.24
-64.90
-51.69
-34.26
-14.86
4.32
21.63
36.13
47.46
55.54
60.34
61.91
60.52
56.85
51.96
46.99
42.79
39.63
37.18
34.71
31.53
27.27
22.04
16.29
10.55
5.15
0.10
-4.95
-10.61
-17.57
-26.38
-37.14
-49.28
-61.41
-71.52
-77.39
-77.22
-70.35
-57.46
-40.37
-21.44
-2.83
14.01
28.36
40.01
48.88
54.84
57.82
57.95
55.82
52.30
48.43
44.97
42.21
39.95
37.59
34.49
30.21
24.75
18.51
12.05
5.92
0.28
-5.13
-10.89
-17.65
-25.91
-35.82
-47.12
-59.02
-70.31
-79.24
-83.96
-82.94
-75.45
-62.06
-44.42
-24.87
-5.65
11.68
26.44
38.63
48.42
55.83
60.66
62.62
61.72
58.45
53.74
48.66
44.07
40.34
37.26
34.24
30.72
26.36
21.23
15.70
10.15
4.85
-0.31
-5.57
-11.35
-17.94
-25.53
-34.23
-44.02
-54.68
-65.58
-75.47
-82.62
-85.16
-81.69
-71.87
-56.62
-37.92
-18.23
0.29
16.21
28.95
38.58
45.32
49.32
50.68
49.58
46.48
42.16
37.54
33.40
30.14
27.63
25.36
22.65
19.06
14.50
9.29
3.93
-1.16
-5.84
-10.40
-15.42
-21.51
-29.08
-38.24
-48.67
-59.70
-70.24
-78.85
-83.88
-83.83
-77.90
-66.27
-50.25
-31.86
-13.26
3.88
18.63
30.66
39.96
46.41
49.80
50.09
47.65
43.44
38.74
34.71
31.97
30.39
29.25
27.64
24.86
20.70
15.46
9.73
4.12
-0.97
-5.55
-9.96
-14.83
-20.84
-28.56
-38.17
-49.29
-60.90
-71.32
-78.54
-80.69
-76.63
-66.37
-51.09
-32.82
-13.74
4.30
20.18
33.36
43.64
50.92
55.09
56.21
54.64
51.10
46.55
41.89
37.74
34.31
31.38
28.50
25.18
21.01
15.96
10.21
4.20
-1.70
-7.35
-12.87
-18.65
-25.17
-32.90
-42.11
-52.87
-64.85
-77.27
-88.71
-97.26
-100.83
-97.86
-87.85
-71.69
-51.40
-29.53
-8.41
10.38
26.06
38.51
47.89
54.38
58.19
59.60
59.06
57.20
54.68
52.08
49.79
47.99
46.61
45.36
43.79
41.44
37.99
33.43
28.00
22.09
15.99
9.78
3.26
-3.89
-12.01
-21.30
-31.87
-43.66
-56.34
-69.00
-80.09
-87.57
-89.36
-84.09
-71.70
-53.58
-32.14
-10.04
10.54
28.32
42.93
54.51
63.30
69.49
73.17
74.59
74.11
72.24
69.49
66.25
62.75
59.12
55.43
51.73
47.97
44.05
39.67
34.52
28.42
21.37
13.57
5.35
-2.98
-11.24
-19.49
-27.98
-36.99
-46.84
-57.54
-68.67
-79.21
-87.63
-92.10
-91.05
-83.67
-70.37
-52.69
-32.92
-13.39
4.13
18.69
30.12
38.62
44.43
47.73
48.65
47.49
44.83
41.46
38.16
35.49
33.57
32.14
30.67
28.63
25.71
21.87
17.34
12.49
7.55
2.56
-2.68
-8.49
-15.13
-22.78
-31.40
-40.87
-50.89
-60.84
-69.65
-75.74
-77.41
-73.28
-62.93
-47.15
-27.84
-7.45
11.74
28.14
41.00
50.25
56.22
59.29
59.83
58.19
54.82
50.32
45.34
40.55
36.42
33.15
30.53
28.09
25.22
21.42
16.53
10.82
4.85
-0.80
-5.86
-10.56
-15.51
-21.47
-29.05
-38.38
-49.09
-60.32
-70.81
-79.09
-83.56
-82.87
-76.24
-63.88
-47.02
-27.67
-8.08
9.79
24.73
36.25
44.36
49.31
51.34
50.76
48.04
43.85
38.95
34.06
29.57
25.56
21.80
17.91
13.53
8.39
2.41
-4.33
-11.64
-19.28
-26.99
-34.63
-42.23
-50.03
-58.39
-67.64
-77.88
-88.82
-99.63
-108.96
-115.10
-116.38
-111.67
-100.81
-84.82
-65.67
-45.70
-26.98
-10.80
2.48
13.15
21.70
28.51
33.72
37.44
39.93
41.63
43.02
44.43
45.85
46.97
47.41
46.88
45.25
42.56
38.81
33.96
27.87
20.46
11.75
1.91
-8.81
-20.21
-32.23
-45.05
-58.98
-74.31
-90.95
-108.05
-123.87
-136.02
-142.02
-140.13
-130.09
-113.28
-92.35
-70.43
-50.25
-33.46
-20.59
-11.18
-4.48
0.27
3.50
5.41
6.13
5.92
5.27
4.85
5.30
7.00
9.91
13.67
17.73
21.63
25.05
27.85
29.90
31.01
30.82
29.04
25.51
20.27
13.49
5.31
-4.28
-15.29
-27.32
-39.32
-49.40
-55.15
-54.36
-45.54
-28.66
-5.12
22.49
51.11
77.82
100.45
117.75
129.40
135.76
137.52
135.45
130.32
122.86
113.92
104.37
95.03
86.43
78.71
71.61
64.70
57.67
50.49
43.39
36.73
30.77
25.52
20.74
15.92
10.48
3.82
-4.49
-14.43
-25.32
-35.77
-43.84
-47.56
-45.53
-37.38
-23.99
-7.20
10.70
27.52
41.61
51.93
58.08
60.05
58.15
52.95
45.22
36.04
26.54
17.69
10.07
3.75
-1.69
-6.90
-12.42
-18.50
-24.89
-31.02
-36.18
-39.95
-42.39
-44.10
-46.00
-48.89
-52.97
-57.67
-61.87
-64.32
-64.18
-61.20
-55.78
-48.55
-40.03
-30.51
-19.95
-8.22
4.72
18.60
32.79
46.34
58.19
67.50
73.86
77.37
78.50
77.84
75.74
72.33
67.63
61.77
55.13
48.22
41.53
35.37
29.82
24.79
20.11
15.45
10.33
4.00
-4.42
-15.66
-29.88
-46.34
-63.33
-78.53
-89.67
-95.19
-94.76
-89.28
-80.60
-70.80
-61.76
-54.73
-50.34
-48.79
-50.03
-53.96
-60.45
-69.26
-80.02
-92.25
-105.34
-118.67
-131.65
-143.70
-154.12
-162.00
-166.10
-164.91
-157.07
-141.69
-118.77
-89.33
-55.30
-19.22
16.24
48.60
76.02
97.51
113.16
124.10
132.12
139.17
146.61
154.90
163.57
171.65
178.25
182.95
185.81
187.04
186.66
184.24
179.11
170.79
159.43
145.91
131.62
117.92
105.64
94.84
84.97
75.24
65.13
54.56
43.92
33.72
24.35
15.83
7.80
-0.37
-9.28
-19.43
-30.98
-43.63
-56.51
-68.14
-76.69
-80.35
-77.97
-69.45
-55.92
-39.37
-22.06
-5.90
7.98
19.13
27.62
33.64
37.33
38.77
38.18
36.06
33.16
30.31
28.13
26.79
25.93
24.88
22.95
19.66
15.03
9.50
3.73
-1.64
-6.30
-10.35
-14.30
-18.83
-24.59
-32.03
-41.19
-51.52
-61.82
-70.32
-75.08
-74.48
-67.83
-55.65
-39.61
-22.00
-5.08
9.52
20.97
29.12
34.26
36.78
37.10
35.69
33.12
30.06
27.14
24.81
23.25
22.30
21.52
20.32
18.20
14.95
10.77
6.19
1.84
-1.84
-4.77
-7.34
-10.15
-13.83
-18.82
-25.33
-33.35
-42.62
-52.55
-62.04
-69.51
-73.19
-71.64
-64.37
-52.11
-36.62
-20.13
-4.60
8.75
19.46
27.59
33.31
36.66
37.61
36.28
33.12
28.94
24.70
21.21
18.85
17.48
16.49
15.18
12.99
9.78
5.87
1.84
-1.79
-4.79
-7.37
-10.12
-13.73
-18.73
-25.33
-33.41
-42.42
-51.47
-59.26
-64.24
-64.96
-60.47
-50.79
-37.03
-21.11
-5.16
9.08
20.59
29.05
34.52
37.11
36.96
34.29
29.67
24.03
18.49
13.98
10.89
8.99
7.58
5.85
3.27
-0.12
-3.88
-7.34
-10.03
-11.94
-13.57
-15.74
-19.34
-25.02
-32.95
-42.71
-53.24
-62.93
-69.88
-72.32
-69.14
-60.29
-46.75
-30.34
-13.14
3.05
17.04
28.27
36.55
41.90
44.38
44.23
41.90
38.14
33.84
29.69
26.03
22.81
19.70
16.31
12.43
8.06
3.42
-1.18
-5.43
-9.23
-12.69
-16.22
-20.46
-26.08
-33.51
-42.60
-52.46
-61.47
-67.67
-69.25
-65.22
-55.73
-42.01
-25.95
-9.48
5.97
19.62
31.14
40.34
46.85
50.25
50.36
47.49
42.59
36.91
31.62
27.36
24.11
21.36
18.47
15.03
10.96
6.53
2.15
-1.87
-5.48
-8.91
-12.67
-17.40
-23.71
-32.02
-42.25
-53.67
-64.85
-73.80
-78.43
-77.17
-69.50
-56.08
-38.66
-19.48
-0.64
16.29
30.44
41.42
49.15
53.67
55.15
54.03
51.04
47.08
42.99
39.37
36.44
34.08
31.97
29.71
26.96
23.55
19.50
14.93
10.05
5.01
-0.22
-5.87
-12.33
-20.03
-29.28
-40.10
-52.08
-64.21
-74.93
-82.32
-84.58
-80.49
-69.87
-53.72
-34.04
-13.22
6.45
23.31
36.48
45.82
51.61
54.40
54.83
53.59
51.41
48.98
46.93
45.66
45.33
45.86
46.93
48.11
48.86
48.68
47.12
43.93
39.15
33.07
26.19
19.04
12.00
5.19
-1.55
-8.65
-16.73
-26.37
-37.84
-50.76
-63.85
-75.01
-81.86
-82.51
-76.29
-64.12
-48.23
-31.39
-16.05
-3.72
5.16
10.92
14.24
15.78
16.16
15.89
15.39
14.98
14.70
14.34
13.56
12.11
10.01
7.56
5.20
3.28
1.87
0.61
-1.14
-4.04
-8.49
-14.46
-21.50
-28.93
-36.10
-42.64
-48.55
-53.99
-59.20
-64.13
-68.37
-71.16
-71.56
-68.67
-61.95
-51.41
-37.70
-22.01
-5.85
9.31
22.38
32.75
40.36
45.43
48.32
49.45
49.24
48.15
46.68
45.27
44.13
43.26
42.34
40.99
38.92
36.04
32.49
28.50
24.26
19.79
14.98
9.65
3.68
-2.92
-10.09
-17.77
-26.03
-35.04
-44.90
-55.36
-65.52
-73.80
-78.22
-77.07
-69.48
-55.88
-37.81
-17.54
2.70
21.18
36.87
49.39
58.67
64.85
68.18
69.14
68.32
66.46
64.17
61.84
59.57
57.28
54.79
51.97
48.84
45.51
42.13
38.80
35.54
32.21
28.61
24.52
19.81
14.43
8.46
2.06
-4.70
-11.80
-19.37
-27.64
-36.79
-46.83
-57.41
-67.73
-76.51
-82.26
-83.50
-79.24
-69.30
-54.38
-36.04
-16.30
2.79
19.62
33.25
43.42
50.42
54.73
56.93
57.50
56.88
55.50
53.81
52.16
50.72
49.46
48.08
46.27
43.79
40.68
37.17
33.57
30.07
26.63
22.96
18.71
13.64
7.80
1.44
-5.02
-11.32
-17.37
-23.32
-29.46
-36.10
-43.35
-51.19
-59.37
-67.46
-74.88
-80.80
-84.26
-84.25
-79.98
-71.15
-58.18
-42.22
-24.94
-8.16
6.63
18.48
27.18
32.99
36.45
38.15
38.56
38.10
37.16
36.11
35.22
34.58
34.08
33.45
32.41
30.81
28.74
26.38
23.95
21.50
18.94
16.03
12.51
8.29
3.46
-1.79
-7.22
-12.70
-18.24
-23.99
-30.09
-36.55
-43.13
-49.33
-54.37
-57.35
-57.42
-54.02
-47.06
-37.00
-24.76
-11.57
1.29
12.76
22.09
28.95
33.42
35.89
36.87
36.83
36.10
34.83
33.10
31.06
28.95
27.08
25.66
24.65
23.81
22.75
21.22
19.19
16.81
14.28
11.69
8.92
5.76
2.02
-2.36
-7.26
-12.53
-17.98
-23.50
-29.02
-34.51
-39.80
-44.56
-48.26
-50.24
-49.79
-46.41
-40.00
-30.98
-20.27
-9.00
1.74
11.18
18.96
24.99
29.36
32.18
33.63
33.95
33.51
32.71
31.88
31.15
30.47
29.73
28.85
27.86
26.83
25.72
24.40
22.66
20.35
17.50
14.28
10.87
7.36
3.68
-0.30
-4.68
-9.50
-14.73
-20.36
-26.46
-33.00
-39.78
-46.30
-51.78
-55.42
-56.67
-55.29
-51.40
-45.33
-37.50
-28.31
-18.28
-8.03
1.66
10.00
16.44
20.77
23.26
24.51
25.20
25.83
26.60
27.47
28.22
28.65
28.70
28.38
27.77
26.85
25.56
23.81
21.57
18.84
15.69
12.14
8.20
3.84
-0.94
-6.10
-11.61
-17.43
-23.55
-29.96
-36.52
-42.89
-48.51
-52.67
-54.74
-54.34
-51.47
-46.43
-39.72
-31.88
-23.39
-14.67
-6.14
1.79
8.66
14.14
18.07
20.52
21.71
21.96
21.58
20.84
19.92
18.93
17.88
16.71
15.38
13.89
12.29
10.64
8.96
7.19
5.28
3.14
0.79
-1.75
-4.54
-7.70
-11.47
-16.02
-21.27
-26.85
-32.03
-35.95
-37.86
-37.34
-34.41
-29.47
-23.06
-15.75
-7.96
-0.04
7.68
14.80
20.86
25.50
28.62
30.37
31.16
31.43
31.55
31.67
31.75
31.63
31.12
30.04
28.30
25.96
23.20
20.27
17.32
14.40
11.33
7.91
3.93
-0.68
-5.91
-11.73
-18.07
-24.79
-31.47
-37.49
-42.12
-44.75
-45.12
-43.34
-39.81
-35.01
-29.35
-23.10
-16.54
-9.94
-3.64
2.03
6.86
10.74
13.62
15.51
16.45
16.51
15.92
14.97
13.91
12.91
11.97
10.98
9.77
8.24
6.35
4.11
1.57
-1.28
-4.48
-8.09
-12.14
-16.65
-21.65
-27.12
-32.90
-38.64
-43.82
-47.83
-50.15
-50.40
-48.46
-44.38
-38.33
-30.57
-21.52
-11.84
-2.29
6.32
13.38
18.68
22.34
24.66
25.97
26.51
26.37
25.70
24.70
23.58
22.50
21.51
20.48
19.22
17.58
15.47
12.95
10.13
7.16
4.16
1.18
-1.77
-4.81
-8.08
-11.78
-16.08
-21.09
-26.74
-32.79
-38.77
-44.07
-48.00
-49.93
-49.40
-46.16
-40.25
-32.01
-22.09
-11.37
-0.85
8.57
16.26
21.99
25.95
28.51
30.08
30.98
31.35
31.33
31.05
30.68
30.29
29.86
29.27
28.33
26.91
24.98
22.58
19.75
16.59
13.09
9.25
5.06
0.46
-4.57
-10.07
-16.02
-22.33
-28.78
-35.07
-40.80
-45.43
-48.41
-49.22
-47.47
-43.08
-36.35
-27.88
-18.43
-8.75
0.46
8.66
15.38
20.32
23.36
24.70
24.74
24.05
23.10
22.19
21.39
20.65
19.87
18.99
17.98
16.80
15.34
13.48
11.15
8.41
5.38
2.22
-1.11
-4.72
-8.90
-13.89
-19.68
-26.01
-32.33
-37.95
-42.21
-44.60
-44.80
-42.66
-38.22
-31.62
-23.25
-13.78
-4.08
4.94
12.49
18.16
21.92
24.01
24.80
24.68
23.95
22.82
21.49
20.12
18.78
17.49
16.18
14.82
13.36
11.84
10.28
8.62
6.69
4.26
1.09
-2.99
-7.95
-13.64
-19.74
-25.85
-31.52
-36.45
-40.38
-43.01
-43.93
-42.44
-37.78
-29.32
-17.03
-1.56
15.82
33.49
49.81
63.27
72.60
76.81
75.51
69.13
59.19
48.07
38.32
31.82
29.12
29.43
31.12
32.51
32.50
30.75
27.44
22.94
17.47
11.17
4.21
-3.13
-10.39
-17.20
-23.41
-29.19
-34.90
-40.79
-46.76
-52.31
-56.72
-59.21
-59.36
-57.13
-52.83
-47.01
-40.22
-32.85
-25.19
-17.44
-9.81
-2.62
3.74
8.91
12.69
15.13
16.52
17.26
17.76
18.26
18.88
19.60
20.35
21.03
21.47
21.56
21.11
20.07
18.46
16.33
13.73
10.64
6.98
2.69
-2.26
-7.80
-13.80
-20.04
-26.26
-32.03
-36.85
-40.16
-41.47
-40.44
-36.94
-31.13
-23.39
-14.31
-4.64
4.81
13.35
20.55
26.23
30.45
33.37
35.19
36.00
35.89
34.93
33.27
31.11
28.67
26.11
23.58
21.11
18.70
16.28
13.79
11.14
8.31
5.30
2.21
-0.86
-3.85
-6.86
-10.16
-14.15
-19.21
-25.43
-32.44
-39.45
-45.45
-49.51
-51.11
-50.16
-46.91
-41.75
-35.03
-27.11
-18.43
-9.58
-1.34
5.62
10.87
14.33
16.21
16.85
16.63
15.89
14.97
14.24
13.97
14.28
15.06
15.99
16.66
16.74
16.10
14.73
12.75
10.21
7.23
3.83
0.04
-4.17
-8.85
-14.06
-19.76
-25.66
-31.27
-35.80
-38.50
-38.73
-36.22
-31.06
-23.74
-15.00
-5.71
3.26
11.20
17.66
22.43
25.54
27.25
27.85
27.71
27.15
26.40
25.57
24.68
23.68
22.57
21.37
20.19
19.17
18.37
17.74
17.06
16.04
14.38
11.89
8.47
4.15
-1.05
-6.99
-13.49
-20.17
-26.54
-32.05
-36.12
-38.29
-38.21
-35.71
-30.83
-23.91
-15.54
-6.50
2.35
10.32
16.98
22.20
26.05
28.63
30.07
30.52
30.15
29.29
28.31
27.49
26.98
26.71
26.39
25.67
24.27
22.08
19.25
16.07
12.78
9.48
6.09
2.37
-1.89
-6.80
-12.29
-18.18
-24.18
-29.98
-35.06
-38.79
-40.46
-39.50
-35.72
-29.42
-21.27
-12.18
-2.98
5.72
13.52
20.10
25.18
28.53
30.00
29.72
28.15
25.91
23.69
21.97
20.91
20.36
19.97
19.37
18.30
16.71
14.71
12.50
10.28
8.13
5.95
3.50
0.50
-3.34
-8.12
-13.85
-20.31
-27.12
-33.73
-39.40
-43.34
-44.84
-43.48
-39.34
-32.89
-24.87
-16.10
-7.30
1.01
8.37
14.40
18.74
21.19
21.82
21.00
19.35
17.51
15.92
14.75
13.95
13.30
12.62
11.75
10.56
8.96
6.92
4.50
1.84
-0.90
-3.54
-6.13
-8.85
-12.06
-16.03
-20.81
-26.16
-31.51
-36.20
-39.57
-41.10
-40.48
-37.65
-32.74
-26.14
-18.45
-10.39
-2.74
3.91
9.28
13.33
16.24
18.17
19.19
19.37
18.80
17.75
16.54
15.47
14.64
13.94
13.13
12.01
10.54
8.79
6.85
4.78
2.50
-0.18
-3.47
-7.54
-12.52
-18.33
-24.71
-31.18
-37.11
-41.77
-44.48
-44.72
-42.24
-37.11
-29.72
-20.75
-11.00
-1.32
7.59
15.26
21.42
25.96
28.94
30.57
31.25
31.54
32.02
33.01
34.53
36.25
37.63
38.20
37.67
36.04
33.51
30.32
26.69
22.75
18.55
14.07
9.22
3.78
-2.51
-9.87
-18.23
-27.19
-35.96
-43.50
-48.81
-51.11
-50.06
-45.84
-39.04
-30.55
-21.35
-12.31
-4.08
3.04
9.03
13.93
17.77
20.47
21.89
22.05
21.21
19.84
18.49
17.54
16.96
16.50
15.78
14.53
12.78
10.70
8.57
6.45
4.30
1.96
-0.63
-3.49
-6.60
-10.05
-14.06
-18.89
-24.65
-31.01
-37.24
-42.28
-45.12
-45.11
-42.02
-36.21
-28.29
-19.03
-9.14
0.74
10.09
18.39
25.20
30.18
33.09
34.00
33.21
31.23
28.65
25.96
23.43
21.10
18.85
16.48
13.94
11.28
8.66
6.25
4.07
2.05
-0.06
-2.56
-5.67
-9.52
-14.07
-19.26
-24.92
-30.85
-36.72
-41.98
-45.93
-47.82
-47.11
-43.60
-37.56
-29.61
-20.57
-11.26
-2.42
5.37
11.74
16.47
19.56
21.08
21.24
20.34
18.73
16.83
15.09
13.83
13.15
12.88
12.61
11.91
10.48
8.23
5.34
2.14
-1.08
-4.19
-7.28
-10.63
-14.64
-19.59
-25.48
-31.88
-38.00
-42.88
-45.64
-45.74
-43.05
-37.86
-30.69
-22.13
-12.74
-3.02
6.47
15.20
22.62
28.25
31.77
33.11
32.62
31.10
29.81
30.11
33.10
39.18
47.82
57.53
66.28
71.95
72.97
68.62
59.17
45.73
29.94
13.60
-1.74
-15.04
-25.95
-34.67
-41.65
-47.30
-51.83
-55.24
-57.44
-58.38
-58.11
-56.72
-54.29
-50.80
-46.22
-40.60
-34.14
-27.30
-20.67
-14.80
-10.04
-6.39
-3.59
-1.29
0.78
2.69
4.31
5.47
6.05
6.10
5.75
5.14
4.30
3.22
1.86
0.25
-1.52
-3.33
-5.25
-7.46
-10.32
-14.16
-19.25
-25.52
-32.60
-39.76
-45.97
-50.10
-51.12
-48.42
-41.98
-32.35
-20.61
-8.00
4.31
15.42
24.84
32.33
37.92
41.69
43.76
44.30
43.57
41.95
39.92
37.93
36.34
35.21
34.42
33.66
32.65
31.18
29.24
26.88
24.17
21.05
17.38
13.01
7.77
1.63
-5.31
-12.88
-20.78
-28.57
-35.62
-41.15
-44.31
-44.40
-41.03
-34.38
-25.12
-14.29
-3.05
7.59
16.91
24.51
30.24
34.08
36.14
36.59
35.74
34.03
31.91
29.81
28.05
26.69
25.63
24.64
23.50
22.05
20.23
18.06
15.59
12.86
9.91
6.67
3.01
-1.30
-6.51
-12.82
-20.24
-28.37
-36.42
-43.22
-47.52
-48.36
-45.36
-38.90
-29.94
-19.80
-9.73
-0.66
6.97
13.16
18.10
22.02
25.04
27.13
28.17
28.06
26.83
24.73
22.10
19.37
16.90
14.79
13.01
11.36
9.67
7.84
5.92
4.05
2.25
0.44
-1.61
-4.28
-7.94
-12.77
-18.72
-25.37
-32.04
-37.82
-41.80
-43.16
-41.37
-36.28
-28.20
-17.85
-6.30
5.28
15.81
24.54
31.11
35.56
38.12
39.09
38.75
37.36
35.25
32.82
30.44
28.33
26.53
24.89
23.10
20.92
18.25
15.17
11.85
8.48
5.17
1.89
-1.59
-5.57
-10.43
-16.41
-23.39
-30.89
-38.05
-43.77
-47.05
-47.15
-43.81
-37.20
-27.97
-17.02
-5.29
6.29
17.00
26.20
33.48
38.62
41.68
42.86
42.55
41.18
39.12
36.67
34.00
31.23
28.42
25.60
22.76
19.89
16.99
14.10
11.31
8.69
6.20
3.58
0.41
-3.80
-9.36
-16.26
-24.05
-31.83
-38.51
-43.04
-44.68
-43.09
-38.37
-30.96
-21.59
-11.09
-0.38
9.67
18.35
25.16
29.88
32.54
33.35
32.68
30.96
28.73
26.46
24.53
23.12
22.15
21.34
20.33
18.84
16.75
14.07
10.88
7.29
3.38
-0.83
-5.34
-10.24
-15.63
-21.63
-28.26
-35.36
-42.46
-48.74
-53.20
-54.84
-52.99
-47.57
-39.16
-28.84
-17.94
-7.62
1.33
8.58
14.16
18.24
20.99
22.55
23.08
22.81
22.09
21.26
20.53
19.98
19.41
18.58
17.22
15.11
12.19
8.57
4.48
0.24
-3.87
-7.71
-11.38
-15.19
-19.58
-24.95
-31.45
-38.86
-46.56
-53.58
-58.82
-61.26
-60.23
-55.57
-47.72
-37.62
-26.41
-15.22
-4.88
4.11
11.52
17.30
21.36
23.68
24.27
23.35
21.41
19.05
16.84
15.12
13.86
12.79
11.48
9.62
7.15
4.24
1.18
-1.78
-4.62
-7.58
-11.09
-15.64
-21.61
-29.12
-37.95
-47.57
-57.15
-65.71
-72.27
-76.03
-76.57
-73.91
-68.58
-61.39
-53.37
-45.46
-38.50
-33.16
-30.02
-29.53
-31.96
-37.33
-45.24
-54.83
-64.87
-74.00
-81.16
-85.96
-88.94
