1703060658.00
64.000000
-0.00
-0.00
-0.00
-0.00
-0.00
-0.00
-0.00
-0.00
-0.00
-0.00
0.00
0.01
0.01
-0.00
-0.03
-0.05
-0.05
0.00
0.13
0.36
0.66
1.01
1.37
1.72
2.06
2.40
2.79
3.24
3.80
4.42
5.06
5.66
6.20
6.68
7.15
7.68
8.31
9.14
10.09
11.04
11.88
12.56
13.14
13.76
14.65
15.96
17.91
20.32
22.90
25.38
27.58
29.57
31.68
34.32
37.81
42.54
48.15
54.10
59.83
64.97
69.58
74.14
79.34
85.71
93.76
103.00
112.62
121.73
129.77
136.75
143.30
150.75
157.77
166.64
177.95
191.79
206.97
220.57
228.25
225.36
208.53
176.87
132.76
80.05
23.07
-34.94
-92.44
-149.16
-205.23
-260.37
-313.74
-363.87
-409.83
-450.90
-486.48
-515.71
-537.18
-549.14
-549.86
-538.23
-514.02
-478.44
-433.60
-382.11
-326.62
-269.38
-212.11
-156.06
-102.29
-51.64
-5.10
36.46
72.39
102.40
126.64
145.62
160.05
170.63
177.99
182.52
184.51
184.20
181.85
177.82
172.50
166.32
159.62
152.64
145.53
138.36
131.17
124.01
116.94
110.03
103.35
96.95
90.87
85.13
79.73
74.68
70.00
65.69
61.76
58.21
55.03
52.23
49.82
47.78
46.10
44.79
43.81
43.11
42.63
42.23
41.80
41.15
40.11
38.51
36.20
33.09
29.13
24.38
18.89
12.85
6.47
0.02
-6.21
-11.98
-17.04
-21.22
-24.41
-26.56
-27.69
-27.88
-27.26
-25.97
-24.18
-22.05
-19.69
-17.20
-14.65
-12.07
-9.49
-6.92
-4.35
-1.76
0.89
3.62
6.48
9.48
12.69
16.05
19.55
23.16
26.86
30.66
34.55
38.52
42.62
46.87
51.18
55.49
59.78
64.06
68.32
72.61
77.00
81.57
86.45
91.49
96.63
101.84
107.11
112.43
117.81
123.27
128.83
134.57
140.19
145.45
150.15
154.03
156.80
158.06
157.30
153.76
148.79
142.89
136.36
129.42
122.23
114.92
107.62
100.45
93.56
87.13
81.02
75.16
69.51
64.08
58.89
53.96
49.35
45.10
41.32
37.85
34.60
31.51
28.55
25.71
22.97
20.37
17.93
15.72
13.64
11.65
9.72
7.87
6.08
4.39
2.80
1.37
0.15
-0.90
-1.78
-2.50
-3.05
-3.43
-3.66
-3.73
-3.66
-3.46
-3.18
-2.85
-2.49
-2.13
-1.79
-1.46
-1.15
-0.84
-0.52
-0.20
0.17
0.57
1.03
1.53
2.07
2.61
3.13
3.59
3.93
4.12
4.13
3.90
3.41
2.64
1.62
0.33
-1.16
-2.83
-4.62
-6.47
-8.34
-10.17
-11.90
-13.53
-15.04
-16.41
-17.67
-18.84
-19.93
-20.98
-21.99
-22.98
-23.94
-24.87
-25.79
-26.69
-27.56
-28.41
-29.17
-29.79
-30.24
-30.52
-30.64
-30.67
-30.71
-30.84
-31.13
-31.61
-32.25
-33.02
-33.89
-34.86
-35.98
-37.33
-38.94
-40.82
-42.91
-45.04
-47.09
-48.93
-50.59
-52.23
-54.04
-56.21
-58.81
-61.68
-64.57
-67.17
-69.32
-71.19
-73.19
-75.89
-79.76
-84.95
-91.16
-97.75
-104.02
-109.46
-114.11
-118.49
-123.39
-129.58
-137.37
-146.53
-156.44
-166.36
-175.88
-185.10
-194.60
-205.34
-218.45
-235.05
-256.06
-281.60
-310.37
-339.28
-363.86
-379.30
-382.09
-371.32
-348.95
-319.02
-286.11
-253.96
-224.88
-199.95
-179.75
-164.76
-155.26
-150.89
-150.29
-151.33
-151.88
-150.76
-148.14
-145.35
-144.26
-146.20
-151.46
-159.31
-168.40
-177.58
-186.33
-195.03
-204.76
-217.01
-233.34
-254.98
-282.12
-313.21
-344.60
-371.10
-387.37
-389.76
-377.72
-353.97
-323.30
-290.71
-259.71
-231.69
-206.40
-183.14
-161.58
-141.96
-124.67
-109.60
-95.98
-82.68
-68.83
-54.26
-39.47
-25.48
-13.16
-2.92
5.50
12.81
19.81
27.03
34.57
42.12
49.24
55.58
61.09
66.00
70.64
75.28
80.00
84.68
89.25
93.70
98.22
103.10
108.57
114.63
121.08
127.56
133.85
140.02
146.53
154.07
163.30
174.47
187.35
201.31
215.64
229.84
243.90
258.27
273.78
291.48
312.57
338.03
368.01
401.17
434.26
462.60
481.35
487.11
479.23
459.92
433.27
403.62
374.01
345.70
318.71
292.70
267.77
244.52
223.62
205.25
188.85
173.40
158.02
142.34
126.62
111.61
98.05
86.39
76.66
68.68
62.34
57.84
55.72
56.66
61.10
68.99
79.59
91.54
103.15
112.65
118.44
119.26
114.39
103.76
87.96
68.22
46.17
23.38
1.11
-19.97
-39.71
-58.36
-76.39
-94.34
-112.73
-131.95
-152.03
-172.52
-192.48
-210.61
-225.72
-237.03
-244.37
-248.05
-248.48
-245.97
-240.57
-232.22
-221.01
-207.27
-191.45
-173.89
-154.64
-133.32
-109.48
-82.95
-54.19
-24.42
4.81
32.01
56.29
77.43
95.69
111.27
124.06
133.64
139.66
142.45
143.25
143.98
146.44
151.48
158.54
165.97
171.88
175.19
176.30
176.81
178.71
183.20
190.03
197.45
203.00
204.46
200.59
191.33
177.36
159.59
138.70
115.02
88.79
60.48
31.14
2.27
-24.42
-47.58
-66.49
-81.29
-92.78
-101.91
-109.48
-115.76
-120.68
-124.10
-126.20
-127.52
-128.92
-131.06
-134.18
-137.88
-141.38
-143.87
-144.85
-144.37
-142.90
-141.17
-139.88
-139.52
-140.35
-142.45
-145.83
-150.43
-156.19
-163.00
-170.66
-178.98
-187.84
-197.28
-207.45
-218.53
-230.50
-243.02
-255.27
-265.91
-273.09
-274.61
-268.25
-252.18
-225.54
-188.71
-143.34
-92.10
-38.12
15.50
66.08
111.45
150.07
180.93
203.60
218.28
225.85
227.69
225.51
220.89
215.06
208.67
201.90
194.73
187.17
179.46
171.94
164.84
158.15
151.55
144.56
136.87
128.48
119.71
110.98
102.61
94.56
86.58
78.27
69.32
59.67
49.60
39.73
30.88
23.93
19.57
18.12
19.38
22.73
27.29
32.16
36.60
40.09
42.29
42.95
41.92
39.21
35.08
30.06
24.90
20.33
16.87
14.72
13.74
13.58
13.86
14.28
14.65
14.80
14.57
13.74
12.15
9.75
6.70
3.36
0.12
-2.81
-5.47
-8.22
-11.50
-15.67
-20.87
-26.97
-33.57
-40.07
-45.69
-49.53
-50.82
-49.00
-43.93
-36.04
-26.15
-15.35
-4.69
4.91
12.82
18.60
22.03
23.14
22.18
19.71
16.48
13.26
10.72
9.24
8.92
9.65
11.13
13.01
14.86
16.22
16.69
16.08
14.50
12.27
9.86
7.62
5.61
3.63
1.31
-1.73
-5.70
-10.58
-16.14
-21.95
-27.34
-31.52
-33.59
-32.87
-29.02
-22.30
-13.47
-3.67
5.98
14.54
21.42
26.30
29.01
29.52
27.93
24.52
19.91
14.90
10.31
6.81
4.70
3.90
3.99
4.43
4.63
4.20
2.88
0.63
-2.44
-6.12
-10.24
-14.63
-19.24
-24.04
-29.14
-34.72
-41.08
-48.56
-57.34
-67.17
-77.19
-85.99
-91.99
-94.01
-91.74
-85.88
-77.89
-69.52
-62.19
-56.74
-53.40
-52.00
-52.33
-54.33
-58.16
-64.10
-72.33
-82.68
-94.58
-106.91
-118.11
-126.45
-130.41
-129.18
-122.97
-113.09
-101.56
-90.56
-81.68
-75.40
-71.03
-66.98
-61.36
-52.60
-39.89
-23.38
-4.11
16.14
35.27
51.50
64.02
73.52
82.01
92.04
105.58
122.95
142.65
161.82
177.62
188.24
193.47
194.39
192.51
189.06
184.66
179.54
173.99
168.51
163.76
160.13
157.51
155.25
152.43
148.32
142.66
135.85
128.67
121.97
116.31
111.73
107.80
103.81
99.09
93.30
86.54
79.23
71.93
64.99
58.51
52.27
45.98
39.48
32.80
26.19
19.96
14.41
9.76
6.19
3.86
2.88
3.32
5.09
7.92
11.29
14.59
17.16
18.49
18.24
16.30
12.80
8.06
2.52
-3.33
-8.99
-14.06
-18.26
-21.51
-23.88
-25.55
-26.75
-27.56
-28.04
-28.27
-28.43
-28.87
-29.99
-32.10
-35.30
-39.45
-44.21
-49.22
-54.15
-58.69
-62.56
-65.36
-66.62
-65.92
-63.07
-58.23
-51.92
-44.96
-38.16
-32.14
-27.05
-22.69
-18.62
-14.49
-10.21
-6.07
-2.53
0.02
1.41
1.84
1.68
1.38
1.32
1.73
2.78
4.55
6.91
9.56
11.95
13.41
13.42
11.81
8.79
4.71
-0.08
-5.48
-11.54
-18.16
-24.98
-31.23
-36.17
-39.26
-40.49
-40.17
-38.70
-36.17
-32.36
-26.89
-19.68
-11.20
-2.53
4.96
10.09
12.35
11.96
9.76
6.78
3.87
1.41
-0.55
-2.17
-3.51
-4.48
-4.82
-4.32
-2.91
-0.79
1.72
4.30
6.72
8.88
10.74
12.22
13.21
13.49
12.78
10.80
7.48
2.97
-2.29
-7.67
-12.55
-16.48
-19.22
-20.73
-20.95
-19.77
-17.11
-13.00
-7.79
-2.05
3.57
8.56
12.69
15.94
18.31
19.66
19.81
18.64
16.30
13.30
10.30
7.87
6.29
5.52
5.27
5.20
5.10
4.86
4.45
3.91
3.24
2.41
1.30
-0.23
-2.30
-4.94
-7.98
-11.15
-14.06
-16.39
-17.99
-18.92
-19.29
-19.22
-18.69
-17.61
-15.95
-13.75
-11.23
-8.64
-6.24
-4.12
-2.30
-0.74
0.57
1.60
2.30
2.65
2.67
2.33
1.61
0.42
-1.21
-3.12
-5.04
-6.64
-7.76
-8.39
-8.75
-9.17
-9.97
-11.32
-13.26
-15.64
-18.13
-20.37
-22.00
-22.81
-22.87
-22.47
-22.05
-21.99
-22.45
-23.28
-24.12
-24.43
-23.76
-21.73
-18.19
-13.24
-7.29
-0.96
4.98
9.84
13.20
14.94
15.29
14.70
13.76
13.02
12.98
13.89
15.70
18.04
20.39
22.18
23.00
22.74
21.54
19.75
17.74
15.94
14.77
14.51
15.25
16.76
18.53
19.85
20.20
19.43
17.86
16.19
15.21
15.60
17.65
21.31
26.26
32.09
38.44
45.02
51.67
58.25
64.65
70.61
75.73
79.36
80.93
80.06
76.82
71.70
65.47
58.92
52.57
46.47
40.32
33.53
25.47
15.67
3.92
-9.61
-24.49
-39.98
-55.20
-69.32
-81.68
-91.88
-99.87
-105.92
-110.52
-114.26
-117.63
-120.88
-123.89
-126.19
-127.12
-125.98
-122.28
-115.86
-106.94
-96.10
-84.13
-71.89
-60.16
-49.57
-40.53
-33.26
-27.84
-24.23
-22.21
-21.33
-21.01
-20.60
-19.67
-18.07
-16.03
-14.00
-12.35
-11.24
-10.45
-9.61
-8.39
-6.75
-4.97
-3.56
-3.10
-4.00
-6.55
-10.82
-16.79
-24.28
-32.95
-42.16
-51.03
-58.51
-63.59
-65.54
-64.05
-59.33
-51.97
-42.80
-32.61
-21.99
-11.27
-0.63
9.63
19.11
27.25
33.52
37.67
39.80
40.38
40.06
39.52
39.20
39.27
39.66
40.10
40.27
39.93
38.98
37.49
35.66
33.56
31.19
28.36
24.88
20.64
15.69
10.24
4.50
-1.38
-7.42
-13.60
-19.77
-25.41
-29.72
-31.78
-31.02
-27.35
-21.38
-14.05
-6.35
1.03
7.69
13.50
18.37
22.11
24.49
25.40
25.00
23.70
22.08
20.63
19.69
19.30
19.36
19.65
19.93
19.95
19.55
18.57
16.99
14.79
12.04
8.83
5.37
1.92
-1.23
-3.88
-6.09
-8.16
-10.60
-13.87
-18.04
-22.73
-27.12
-30.26
-31.35
-30.05
-26.50
-21.17
-14.69
-7.72
-0.81
5.49
10.75
14.56
16.76
17.48
17.07
16.08
14.99
14.14
13.63
13.41
13.40
13.56
13.89
14.35
14.74
14.82
14.36
13.22
11.50
9.44
7.33
5.38
3.64
2.06
0.41
-1.57
-4.24
-7.82
-12.37
-17.64
-22.94
-27.41
-30.14
-30.53
-28.37
-23.91
-17.71
-10.45
-2.87
4.32
10.43
14.90
17.32
17.64
16.19
13.59
10.62
7.91
5.94
4.88
4.69
5.13
5.86
6.47
6.56
5.85
4.29
2.09
-0.45
-2.97
-5.27
-7.40
-9.58
-12.12
-15.30
-19.28
-23.99
-29.15
-34.30
-38.75
-41.85
-43.08
-42.20
-39.26
-34.55
-28.50
-21.54
-14.19
-6.98
-0.50
4.73
8.29
10.02
10.02
8.64
6.36
3.75
1.33
-0.53
-1.62
-2.02
-2.01
-1.97
-2.22
-2.88
-3.87
-5.00
-6.14
-7.31
-8.71
-10.56
-13.03
-16.20
-20.01
-24.34
-29.05
-33.97
-38.77
-42.98
-45.93
-46.96
-45.56
-41.57
-35.21
-27.10
-18.06
-8.93
-0.47
6.78
12.54
16.70
19.31
20.50
20.52
19.68
18.40
17.06
16.01
15.50
15.60
16.22
17.17
18.19
19.00
19.41
19.32
18.79
17.91
16.80
15.41
13.60
11.14
7.80
3.47
-1.90
-8.17
-15.04
-21.87
-27.82
-31.86
-33.08
-31.03
-25.87
-18.35
-9.59
-0.69
7.45
14.25
19.40
22.77
24.43
24.68
23.95
22.78
21.64
20.81
20.37
20.27
20.39
20.62
20.86
21.04
21.06
20.83
20.31
19.47
18.30
16.74
14.74
12.21
9.12
5.48
1.28
-3.53
-9.06
-15.30
-22.05
-28.81
-34.82
-39.13
-40.96
-39.89
-36.01
-29.84
-22.15
-13.75
-5.32
2.55
9.34
14.60
17.89
19.04
18.13
15.66
12.38
9.20
6.85
5.86
6.35
8.13
10.74
13.67
16.39
18.49
19.66
19.68
18.38
15.67
11.55
6.17
-0.13
-6.99
-14.08
-21.28
-28.55
-35.80
-42.69
-48.55
-52.58
-54.07
-52.68
-48.53
-42.12
-34.24
-25.83
-17.89
-11.26
-6.38
-3.08
-0.62
1.96
5.30
9.33
13.28
16.10
17.07
16.24
14.38
12.53
11.48
11.46
12.04
12.55
12.37
11.30
9.52
7.40
5.33
3.38
1.34
-1.37
-5.41
-11.33
-19.34
-28.99
-39.09
-47.65
-52.21
-50.54
-41.40
-25.30
-4.54
17.30
36.58
50.71
58.84
61.72
60.96
58.14
54.23
49.62
44.40
38.86
33.68
29.69
27.50
27.16
28.08
29.28
29.91
29.56
28.39
26.92
25.74
25.09
24.77
24.22
22.83
20.18
16.24
11.22
5.38
-1.10
-8.23
-16.02
-24.29
-32.46
-39.54
-44.32
-45.70
-43.05
-36.50
-26.86
-15.41
-3.53
7.67
17.45
25.45
31.49
35.50
37.47
37.61
36.35
34.37
32.41
30.98
30.29
30.23
30.54
30.93
31.23
31.35
31.17
30.54
29.28
27.29
24.59
21.26
17.48
13.38
9.04
4.46
-0.36
-5.47
-11.02
-17.16
-23.98
-31.23
-38.26
-43.98
-47.12
-46.66
-42.17
-34.00
-23.21
-11.18
0.79
11.72
21.05
28.56
34.21
37.98
39.93
40.26
39.36
37.84
36.31
35.22
34.70
34.55
34.42
33.93
32.92
31.47
29.81
28.22
26.78
25.36
23.66
21.33
18.20
14.30
9.93
5.45
1.18
-2.81
-6.70
-10.83
-15.52
-20.99
-27.29
-34.17
-41.12
-47.29
-51.62
-53.07
-50.94
-45.11
-36.15
-25.15
-13.40
-2.05
8.13
16.70
23.36
27.94
30.26
30.42
28.83
26.25
23.55
21.48
20.42
20.30
20.81
21.59
22.38
23.09
23.71
24.16
24.22
23.62
22.10
19.60
16.23
12.29
8.14
4.13
0.46
-2.79
-5.76
-8.77
-12.26
-16.68
-22.29
-28.95
-36.06
-42.56
-47.30
-49.23
-47.77
-42.92
-35.25
-25.64
-15.05
-4.40
5.58
14.25
21.06
25.64
27.88
28.03
26.67
24.55
22.40
20.75
19.80
19.48
19.55
19.82
20.15
20.48
20.79
20.91
20.71
19.95
18.53
16.40
13.68
10.50
7.03
3.38
-0.37
-4.23
-8.22
-12.51
-17.26
-22.73
-29.05
-36.18
-43.72
-50.90
-56.66
-59.81
-59.42
-55.04
-46.94
-36.00
-23.51
-10.79
1.08
11.38
19.71
25.85
29.79
31.60
31.63
30.44
28.69
27.03
25.85
25.18
24.83
24.52
24.05
23.33
22.45
21.54
20.69
19.93
19.14
18.15
16.75
14.79
12.22
9.13
5.73
2.26
-1.10
-4.34
-7.61
-11.20
-15.45
-20.63
-26.81
-33.78
-40.99
-47.52
-52.31
-54.26
-52.66
-47.37
-38.88
-28.16
-16.42
-4.74
6.05
15.39
22.96
28.54
31.98
33.32
32.81
30.98
28.51
26.12
24.30
23.39
23.40
24.20
25.56
27.21
28.86
30.24
31.14
31.42
31.07
30.11
28.51
26.16
22.86
18.52
13.30
7.60
1.95
-3.17
-7.61
-11.52
-15.31
-19.47
-24.39
-30.19
-36.74
-43.57
-49.87
-54.63
-56.74
-55.32
-50.00
-41.07
-29.47
-16.50
-3.54
8.21
17.91
25.14
29.81
32.06
32.25
30.82
28.34
25.39
22.59
20.45
19.28
19.12
19.76
20.85
21.94
22.75
23.21
23.37
23.37
23.25
22.84
21.84
19.90
16.81
12.68
7.86
2.87
-1.82
-6.00
-9.69
-13.13
-16.59
-20.34
-24.50
-29.17
-34.31
-39.71
-44.85
-48.89
-50.87
-50.01
-45.99
-39.06
-29.93
-19.54
-8.74
1.73
11.25
19.26
25.20
28.70
29.71
28.60
26.07
22.96
19.93
17.37
15.41
14.01
13.12
12.70
12.70
13.10
13.77
14.53
15.05
15.05
14.24
12.49
9.87
6.66
3.29
0.24
-2.26
-4.22
-5.95
-8.00
-10.90
-15.06
-20.63
-27.49
-35.20
-42.97
-49.85
-54.73
-56.64
-54.92
-49.44
-40.68
-29.61
-17.51
-5.62
5.11
14.18
21.41
26.83
30.49
32.38
32.49
30.99
28.33
25.22
22.38
20.28
19.02
18.30
17.73
16.99
16.01
14.88
13.69
12.46
11.20
10.01
9.19
9.10
9.92
11.49
13.20
14.18
13.55
10.70
5.44
-2.09
-11.48
-22.19
-33.51
-44.56
-54.26
-61.51
-65.34
-65.15
-60.88
-53.03
-42.56
-30.69
-18.66
-7.54
1.96
9.47
14.93
18.45
20.22
20.43
19.29
17.08
14.22
11.26
8.71
6.92
5.94
5.59
5.52
5.48
5.34
5.13
4.80
4.23
3.26
1.87
0.23
-1.24
-2.17
-2.43
-2.33
-2.44
-3.37
-5.45
-8.61
-12.56
-16.94
-21.41
-25.69
-29.34
-31.68
-31.96
-29.58
-24.44
-17.07
-8.42
0.47
8.78
16.13
22.44
27.72
31.86
34.63
35.77
35.30
33.47
30.87
28.13
25.75
23.94
22.65
21.67
20.77
19.81
18.71
17.47
16.11
14.66
13.11
11.44
9.57
7.46
5.10
2.51
-0.26
-3.15
-6.17
-9.31
-12.56
-15.86
-19.06
-21.96
-24.20
-25.34
-24.85
-22.20
-16.98
-9.17
0.83
12.14
23.64
34.20
42.92
49.25
53.03
54.31
53.29
50.23
45.43
39.19
31.87
23.81
15.26
6.40
-2.70
-12.05
-21.67
-31.53
-41.54
-51.54
-61.28
-70.43
-78.56
-85.15
-89.66
-91.75
-91.34
-88.73
-84.50
-79.28
-73.63
-67.88
-62.15
-56.41
-50.50
-44.14
-36.97
-28.66
-19.13
-8.68
2.00
12.01
20.62
27.46
32.60
36.28
38.79
40.17
40.32
39.15
36.78
33.48
29.60
25.46
21.14
16.64
11.88
6.87
1.73
-3.31
-8.10
-12.62
-17.03
-21.64
-26.70
-32.22
-37.94
-43.31
-47.76
-51.07
-53.36
-55.19
-57.27
-60.22
-64.20
-68.79
-73.01
-75.53
-74.99
-70.47
-61.80
-49.61
-35.20
-20.11
-5.72
7.09
17.86
26.47
32.92
37.26
39.64
40.32
39.74
38.30
36.37
34.15
31.74
29.20
26.61
24.14
21.93
20.10
18.55
17.02
15.10
12.41
8.78
4.44
-0.16
-4.53
-8.47
-12.20
-16.27
-21.25
-27.20
-33.54
-39.06
-42.32
-42.24
-38.44
-31.38
-22.02
-11.55
-0.99
8.94
17.77
25.17
30.90
34.76
36.69
36.78
35.33
32.84
29.92
27.19
25.17
24.07
23.81
24.01
24.18
23.93
23.10
21.70
19.85
17.63
15.01
12.05
8.83
5.58
2.44
-0.57
-3.71
-7.42
-12.01
-17.35
-22.81
-27.30
-29.59
-28.78
-24.65
-17.65
-8.88
0.42
9.19
16.79
23.01
27.89
31.53
33.95
35.17
35.25
34.40
33.02
31.55
30.30
29.47
28.98
28.67
28.38
27.93
27.22
26.15
24.62
22.53
19.82
16.54
12.84
8.93
4.93
0.85
-3.48
-8.35
-13.92
-20.16
-26.70
-32.95
-38.20
-41.80
-43.30
-42.48
-39.42
-34.44
-28.17
-21.48
-15.38
-10.68
-7.88
-6.95
-7.46
-8.86
-10.71
-12.80
-15.07
-17.46
-19.70
-21.38
-22.18
-22.04
-21.31
-20.59
-20.45
-21.06
-22.23
-23.58
-24.93
-26.51
-28.93
-32.80
-38.35
-45.35
-53.30
-61.73
-70.58
-80.04
-90.20
-100.53
-109.75
-116.02
-117.61
-113.60
-104.19
-90.69
-75.04
-59.32
-45.20
-33.69
-24.93
-18.06
-11.27
-2.17
11.60
31.52
57.49
87.75
119.39
149.35
175.51
197.15
214.71
228.95
240.05
247.30
249.48
245.72
236.16
222.14
205.64
188.34
170.98
153.12
133.61
111.32
85.73
57.18
26.84
-3.69
-32.52
-57.74
-77.66
-90.93
-96.98
-96.17
-89.79
-79.89
-68.79
-58.58
-50.73
-45.90
-43.94
-44.17
-45.62
-47.28
-48.30
-48.06
-46.26
-42.95
-38.50
-33.54
-28.84
-25.07
-22.57
-21.31
-20.96
-21.18
-21.80
-22.92
-24.77
-27.60
-31.52
-36.38
-42.05
-48.43
-55.45
-63.01
-70.69
-77.68
-82.90
-85.28
-84.02
-78.91
-70.23
-58.76
-45.51
-31.66
-18.31
-6.44
3.20
10.21
14.61
16.85
17.69
17.94
18.22
18.83
19.71
20.67
21.52
22.22
22.81
23.23
23.25
22.51
20.69
17.73
13.89
9.61
5.24
0.92
-3.46
-8.11
-13.24
-18.95
-25.32
-32.35
-39.85
-47.29
-53.70
-57.79
-58.37
-54.70
-46.88
-35.79
-22.76
-9.17
3.89
15.68
25.69
33.46
38.67
41.31
41.84
41.24
40.58
40.58
41.33
42.26
42.53
41.47
38.87
34.98
30.15
24.59
18.13
10.48
1.45
-8.81
-19.83
-31.00
-41.89
-52.38
-62.66
-73.04
-83.75
-94.86
-106.31
-118.07
-130.21
-142.76
-155.41
-167.23
-176.74
-182.28
-182.56
-177.06
-166.06
-150.22
-130.15
-106.13
-78.36
-47.37
-14.40
18.58
49.29
75.79
96.98
112.70
123.49
130.20
133.68
134.72
134.06
132.43
130.38
128.12
125.40
121.57
116.03
108.56
99.59
90.04
80.99
73.11
66.53
60.81
55.27
49.35
42.84
35.92
28.84
21.81
14.81
7.75
0.65
-6.19
-12.13
-16.38
-18.25
-17.45
-14.16
-8.99
-2.75
3.76
9.91
15.24
19.47
22.45
24.20
24.91
24.91
24.65
24.61
25.24
26.88
29.55
32.91
36.31
39.10
41.08
42.84
45.72
51.30
60.67
73.82
89.70
106.66
123.30
139.02
154.04
168.95
184.13
199.36
213.91
227.07
238.66
249.20
259.42
269.42
278.07
282.78
280.32
267.97
244.68
211.59
171.51
127.92
83.81
41.17
1.06
-35.82
-68.67
-96.63
-119.12
-136.23
-148.82
-158.22
-165.63
-171.71
-176.43
-179.34
-179.90
-177.80
-173.18
-166.45
-158.26
-149.36
-140.43
-132.05
-124.60
-118.17
-112.71
-108.01
-103.94
-100.41
-97.46
-95.07
-93.16
-91.59
-90.25
-89.20
-88.71
-88.98
-90.05
-91.45
-92.38
-91.79
-88.80
-83.03
-74.62
-64.19
-52.49
-40.27
-28.19
-16.81
-6.72
1.51
7.43
10.89
12.13
11.71
10.37
8.81
7.51
6.59
5.96
5.37
4.63
3.67
2.59
1.51
0.49
-0.56
-1.93
-4.01
-7.07
-11.19
-16.10
-21.35
-26.47
-31.23
-35.69
-40.21
-45.27
-51.21
-58.22
-66.16
-74.64
-83.00
-90.35
-95.63
-97.92
-96.64
-91.83
-84.09
-74.35
-63.61
-52.66
-41.99
-31.97
-23.01
-15.42
-9.30
-4.34
0.21
5.24
11.56
19.50
28.92
39.34
50.19
60.93
71.05
80.12
87.70
93.49
97.38
99.51
100.09
99.28
97.15
93.67
88.90
83.13
76.87
70.63
64.81
59.43
54.22
48.71
42.50
35.50
28.03
20.80
14.76
10.90
10.00
12.38
17.84
25.59
34.51
43.32
50.86
56.23
58.84
58.42
54.98
48.81
40.62
31.36
22.18
14.08
7.63
2.87
-0.65
-3.58
-6.43
-9.41
-12.39
-15.16
-17.58
-19.78
-22.05
-24.60
-27.39
-30.10
-32.22
-33.38
-33.57
-33.19
-32.93
-33.48
-35.27
-38.29
-42.15
-46.19
-49.66
-51.90
-52.38
-50.84
-47.29
-42.21
-36.36
-30.57
-25.49
-21.35
-18.00
-15.04
-12.25
-9.80
-8.39
-8.91
-12.08
-18.01
-25.97
-34.71
-42.78
-49.07
-53.13
-55.10
-55.32
-54.02
-50.99
-45.89
-38.64
-29.85
-20.98
-13.81
-9.82
-9.58
-12.58
-17.60
-23.39
-29.29
-35.49
-42.76
-51.79
-62.71
-74.66
-86.04
-94.87
-99.33
-98.20
-91.04
-78.24
-60.95
-40.79
-19.76
0.07
16.86
29.26
36.63
39.08
37.28
32.11
24.43
14.93
4.25
-6.92
-17.74
-27.33
-35.04
-40.60
-44.21
-46.32
-47.28
-47.17
-45.71
-42.43
-36.88
-28.89
-18.50
-6.05
7.90
22.59
37.08
50.41
61.75
70.66
77.17
81.83
85.56
89.45
94.50
101.41
110.40
121.15
132.90
144.56
155.19
164.22
171.59
177.68
182.95
187.48
190.97
192.87
192.90
191.37
189.31
188.09
188.72
191.44
195.47
199.30
201.28
200.02
194.78
185.61
173.46
159.99
147.19
136.63
128.67
121.96
113.61
100.09
78.35
46.96
6.57
-40.08
-88.73
-134.54
-173.08
-201.25
-217.76
-223.41
-220.43
-211.86
-200.51
-188.47
-176.88
-166.07
-155.70
-145.04
-133.41
-120.55
-107.02
-94.23
-84.06
-78.09
-76.82
-79.38
-83.85
-88.01
-90.15
-89.56
-86.48
-81.75
-76.30
-70.86
-65.90
-61.70
-58.51
-56.49
-55.73
-56.08
-57.15
-58.48
-59.71
-60.84
-62.26
-64.50
-67.94
-72.44
-77.23
-80.99
-82.23
-79.74
-73.00
-62.29
-48.60
-33.36
-18.01
-3.76
8.64
18.79
26.52
31.76
34.47
34.78
33.08
30.02
26.46
23.22
20.79
19.27
18.41
17.84
17.28
16.68
16.12
15.63
15.14
14.36
12.97
10.80
7.89
4.45
0.79
-2.96
-6.82
-11.05
-15.94
-21.75
-28.46
-35.73
-42.80
-48.54
-51.73
-51.36
-47.01
-39.03
-28.45
-16.64
-4.87
6.03
15.58
23.57
29.77
33.91
35.76
35.42
33.44
30.74
28.30
26.80
26.42
26.87
27.62
28.16
28.20
27.75
26.95
25.93
24.62
22.82
20.29
16.92
12.86
8.46
4.04
-0.27
-4.68
-9.70
-15.89
-23.55
-32.54
-42.11
-50.98
-57.65
-60.72
-59.28
-53.15
-42.96
-29.97
-15.63
-1.34
11.92
23.47
32.94
40.09
44.75
46.95
46.98
45.43
43.14
40.86
39.15
38.16
37.73
37.50
37.15
36.50
35.48
34.13
32.44
30.33
27.70
24.47
20.66
16.37
11.78
7.01
2.06
-3.22
-9.10
-15.94
-24.01
-33.31
-43.38
-53.26
-61.63
-67.03
-68.32
-64.95
-57.07
-45.50
-31.44
-16.18
-0.85
13.59
26.44
37.07
45.02
50.11
52.51
52.85
52.01
50.93
50.26
50.18
50.38
50.35
49.67
48.21
46.14
43.80
41.48
39.21
36.80
33.85
29.98
24.94
18.67
11.37
3.36
-5.00
-13.44
-21.96
-30.77
-40.24
-50.71
-62.23
-74.36
-86.12
-96.15
-103.01
-105.51
-103.06
-95.76
-84.48
-70.62
-55.85
-41.74
-29.55
-20.05
-13.49
-9.68
-8.13
-8.31
-9.68
-11.76
-14.01
-15.79
-16.36
-15.13
-11.77
-6.46
0.25
7.72
15.33
22.65
29.29
34.88
39.04
41.49
42.28
41.84
40.89
40.12
39.98
40.55
41.61
42.78
43.67
43.93
43.44
42.32
41.09
40.61
41.96
46.14
53.69
64.55
78.01
92.91
107.99
122.13
134.59
145.11
153.77
160.82
166.48
170.73
173.37
174.24
173.47
171.61
169.57
168.31
168.49
170.25
173.14
176.29
178.72
179.47
177.86
173.64
167.16
159.41
151.85
145.83
141.87
139.13
135.23
126.83
110.59
84.40
48.25
4.54
-42.56
-88.23
-128.37
-160.54
-184.17
-200.09
-209.79
-214.59
-215.38
-212.56
-206.27
-196.61
-183.89
-168.83
-152.68
-137.20
-124.33
-115.60
-111.59
-111.63
-114.04
-117.00
-119.10
-119.75
-118.96
-116.87
-113.43
-108.32
-101.37
-92.88
-83.81
-75.45
-68.99
-65.01
-63.26
-62.83
-62.57
-61.61
-59.73
-57.34
-55.22
-54.05
-54.16
-55.44
-57.51
-59.94
-62.32
-64.26
-65.15
-64.19
-60.50
-53.52
-43.26
-30.42
-16.08
-1.40
12.73
25.78
37.34
46.97
54.11
58.35
59.66
58.48
55.69
52.24
48.78
45.54
42.42
39.19
35.86
32.64
29.95
28.07
27.01
26.44
25.76
24.32
21.67
17.70
12.69
7.19
1.81
-2.98
-6.97
-10.30
-13.39
-16.79
-21.02
-26.35
-32.73
-39.67
-46.34
-51.62
-54.43
-53.97
-49.97
-42.77
-33.20
-22.24
-10.84
0.25
10.54
19.62
27.12
32.65
35.96
37.09
36.43
34.66
32.54
30.70
29.40
28.52
27.79
26.92
25.81
24.65
23.73
23.22
22.99
22.58
21.46
19.20
15.78
11.56
7.12
3.00
-0.55
-3.66
-6.75
-10.30
-14.68
-20.02
-26.18
-32.73
-39.00
-44.12
-47.15
-47.20
-43.76
-36.85
-27.06
-15.44
-3.15
8.71
19.31
28.03
34.44
38.29
39.57
38.62
36.06
32.71
29.36
26.48
24.22
22.38
20.67
18.86
16.87
14.70
12.43
10.08
7.61
4.90
1.79
-1.79
-5.88
-10.33
-14.94
-19.51
-23.92
-28.29
-32.93
-38.22
-44.45
-51.51
-58.81
-65.26
-69.61
-70.69
-67.86
-61.13
-51.13
-38.94
-25.75
-12.61
-0.32
10.62
19.83
27.06
32.12
34.95
35.71
34.81
32.82
30.38
28.01
26.08
24.68
23.70
22.99
22.33
21.58
20.64
19.44
17.86
15.78
13.09
9.76
5.86
1.53
-3.01
-7.68
-12.47
-17.53
-23.08
-29.30
-36.23
-43.56
-50.61
-56.36
-59.64
-59.44
-55.24
-47.20
-36.04
-22.92
-9.03
4.61
17.24
28.28
37.21
43.61
47.23
48.18
47.05
44.73
42.22
40.24
39.02
38.36
37.76
36.81
35.37
33.56
31.62
29.70
27.72
25.36
22.30
18.35
13.61
8.38
3.01
-2.27
-7.49
-12.91
-18.88
-25.61
-33.09
-40.89
-48.21
-53.95
-57.01
-56.54
-52.28
-44.63
-34.54
-23.19
-11.69
-0.80
9.04
17.54
24.43
29.33
31.99
32.43
31.08
28.65
25.97
23.64
21.99
20.99
20.44
20.06
19.62
18.92
17.83
16.24
14.13
11.54
8.58
5.38
2.06
-1.27
-4.63
-8.14
-12.00
-16.48
-21.80
-28.04
-34.93
-41.91
-48.03
-52.24
-53.58
-51.46
-45.87
-37.42
-27.07
-15.90
-4.90
5.18
13.80
20.50
24.92
26.90
26.58
24.46
21.37
18.14
15.41
13.43
12.11
11.16
10.28
9.26
7.96
6.35
4.46
2.40
0.29
-1.77
-3.85
-6.21
-9.15
-12.96
-17.69
-23.22
-29.34
-35.87
-42.65
-49.39
-55.42
-59.71
-61.02
-58.36
-51.47
-40.98
-28.22
-14.84
-2.29
8.47
16.97
23.06
26.73
27.99
27.01
24.11
19.84
14.90
9.94
5.45
1.68
-1.30
-3.56
-5.23
-6.50
-7.57
-8.64
-9.88
-11.38
-13.20
-15.43
-18.23
-21.72
-26.01
-31.04
-36.67
-42.65
-48.78
-54.76
-60.13
-64.17
-65.81
-63.93
-57.70
-47.01
-32.67
-16.26
0.39
15.69
28.79
39.61
48.45
55.72
61.42
65.25
66.68
65.39
61.49
55.50
48.24
40.53
33.07
26.41
20.91
16.63
13.19
9.75
5.05
-2.09
-12.49
-26.23
-42.66
-60.63
-78.89
-96.34
-112.28
-126.27
-137.99
-146.95
-152.37
-153.08
-147.72
-135.34
-116.28
-92.59
-68.11
-47.32
-33.82
-28.97
-31.49
-38.11
-45.06
-49.50
-50.24
-47.67
-42.90
-37.14
-31.10
-25.00
-18.65
-11.53
-2.93
7.84
21.25
37.32
55.60
75.34
95.55
114.84
131.41
143.07
147.79
144.49
133.78
117.98
100.35
83.91
70.26
59.30
49.70
40.03
29.73
19.43
10.72
5.26
4.02
6.87
12.67
19.85
26.93
32.98
37.64
40.93
42.94
43.67
43.08
41.27
38.55
35.51
32.77
30.84
29.93
29.96
30.66
31.63
32.52
33.00
32.84
32.00
30.50
28.52
26.18
23.55
20.56
17.06
12.85
7.73
1.59
-5.59
-13.60
-21.92
-29.67
-35.68
-38.75
-38.00
-33.25
-25.01
-14.37
-2.64
9.01
19.62
28.51
35.10
38.91
39.77
37.88
33.99
29.23
24.77
21.45
19.60
18.94
18.93
18.91
18.40
17.15
15.15
12.59
9.68
6.65
3.62
0.57
-2.66
-6.38
-11.00
-16.91
-24.37
-33.31
-43.15
-52.77
-60.69
-65.40
-65.81
-61.57
-53.10
-41.49
-28.11
-14.28
-1.04
10.88
21.04
29.11
34.88
38.22
39.17
38.06
35.53
32.47
29.78
28.16
27.81
28.49
29.61
30.49
30.61
29.76
28.02
25.62
22.85
19.82
16.50
12.69
8.11
2.55
-4.13
-11.89
-20.54
-29.58
-38.21
-45.24
-49.27
-49.13
-44.17
-34.72
-21.91
-7.36
7.37
21.16
33.43
43.99
52.67
59.26
63.54
65.46
65.25
63.47
60.82
57.99
55.44
53.35
51.63
49.97
47.92
45.01
40.91
35.54
29.14
22.07
14.70
7.18
-0.58
-8.73
-17.42
-26.62
-36.15
-45.73
-55.05
-63.66
-70.94
-76.00
-77.85
-75.65
-69.07
-58.54
-45.16
-30.43
-15.84
-2.56
8.67
17.45
23.59
27.03
27.80
26.17
22.66
18.06
13.21
8.85
5.48
3.32
2.40
2.61
3.74
5.59
7.87
10.23
12.36
13.97
14.82
14.83
14.02
12.44
10.13
6.91
2.41
-3.82
-11.98
-21.65
-31.60
-39.88
-44.42
-43.65
-37.17
-25.82
-11.29
4.41
19.66
33.39
45.11
54.56
61.50
65.64
66.84
65.27
61.54
56.67
51.70
47.51
44.49
42.55
41.27
40.13
38.74
36.94
34.73
32.11
28.95
25.08
20.27
14.54
8.06
1.17
-5.90
-13.14
-20.84
-29.35
-38.84
-48.98
-58.76
-66.77
-71.47
-71.71
-67.08
-58.11
-45.99
-32.32
-18.61
-6.03
4.65
13.03
18.89
22.14
22.89
21.62
19.17
16.73
15.42
16.02
18.54
22.26
25.96
28.44
28.96
27.42
24.32
20.37
16.10
11.73
7.11
2.08
-3.43
-9.28
-15.34
-21.59
-28.22
-35.44
-43.14
-50.61
-56.55
-59.41
-58.05
-52.12
-42.24
-29.73
-16.13
-2.69
9.78
20.88
30.31
37.72
42.64
44.70
43.86
40.60
35.85
30.74
26.27
23.05
21.19
20.34
19.90
19.30
18.18
16.46
14.28
11.87
9.38
6.82
4.09
0.99
-2.73
-7.28
-12.89
-19.68
-27.57
-36.07
-44.23
-50.72
-54.16
-53.49
-48.42
-39.55
-28.18
-15.94
-4.33
5.57
13.19
18.45
21.57
23.06
23.60
23.93
24.77
26.63
29.78
34.19
39.59
45.48
51.20
56.03
59.35
60.77
60.19
57.84
54.03
49.05
43.03
35.96
27.79
18.55
8.34
-2.71
-14.50
-26.90
-39.69
-52.41
-64.29
-74.36
-81.53
-84.79
-83.51
-77.61
-67.71
-55.10
-41.50
-28.77
-18.48
-11.67
-8.74
-9.46
-13.12
-18.73
-25.24
-31.71
-37.57
-42.51
-46.53
-49.61
-51.60
-52.13
-50.73
-47.14
-41.51
-34.45
-26.91
-19.80
-13.84
-9.38
-6.46
-4.96
-4.69
-5.44
-7.00
-9.16
-11.78
-14.66
-17.47
-19.59
-20.11
-17.90
-12.02
-2.25
10.68
25.14
39.03
50.47
58.35
62.41
63.13
61.29
57.68
52.90
47.47
41.81
36.39
31.55
27.49
24.15
21.26
18.46
15.55
12.53
9.64
7.21
5.43
4.24
3.25
1.97
-0.03
-2.88
-6.46
-10.59
-15.14
-20.15
-25.61
-31.23
-36.22
-39.40
-39.57
-35.93
-28.48
-17.98
-5.70
7.05
19.29
30.33
39.75
47.05
51.63
52.92
50.71
45.41
38.13
30.38
23.56
18.54
15.47
13.85
12.96
12.12
10.92
9.26
7.13
4.47
1.21
-2.74
-7.39
-12.54
-17.93
-23.30
-28.66
-34.23
-40.36
-47.17
-54.32
-60.84
-65.27
-66.11
-62.36
-53.87
-41.51
-26.83
-11.64
2.58
14.89
24.87
32.46
37.68
40.53
41.06
39.52
36.40
32.38
28.18
24.38
21.33
19.05
17.37
15.94
14.35
12.26
9.45
5.88
1.72
-2.75
-7.28
-11.72
-16.09
-20.56
-25.37
-30.71
-36.72
-43.39
-50.44
-57.27
-62.93
-66.27
-66.23
-62.13
-53.91
-42.21
-28.23
-13.44
0.66
12.90
22.43
28.89
32.26
32.88
31.30
28.19
24.26
20.13
16.31
13.14
10.75
9.10
8.00
7.16
6.30
5.21
3.76
1.89
-0.36
-2.99
-5.99
-9.41
-13.33
-17.80
-22.89
-28.64
-35.05
-41.98
-49.03
-55.41
-60.05
-61.81
-59.82
-53.85
-44.30
-32.17
-18.75
-5.24
7.36
18.34
27.18
33.45
36.91
37.57
35.75
32.08
27.38
22.46
18.06
14.72
12.77
12.22
12.83
14.14
15.59
16.68
17.08
16.68
15.46
13.45
10.68
7.20
3.16
-1.26
-5.93
-10.91
-16.50
-23.16
-31.08
-39.97
-48.80
-56.00
-59.83
-58.97
-52.97
-42.38
-28.58
-13.33
1.64
14.98
25.75
33.49
38.06
39.68
38.92
36.57
33.56
30.58
28.06
26.04
24.38
22.88
21.47
20.19
19.06
18.04
16.94
15.53
13.66
11.33
8.68
5.82
2.77
-0.62
-4.58
-9.36
-15.12
-21.94
-29.80
-38.45
-47.37
-55.63
-61.95
-65.00
-63.77
-57.87
-47.75
-34.57
-19.89
-5.32
7.82
18.57
26.42
31.22
33.14
32.63
30.36
27.04
23.33
19.79
16.85
14.78
13.73
13.64
14.28
15.32
16.36
17.04
17.13
16.54
15.25
13.29
10.68
7.37
3.43
-1.05
-5.96
-11.25
-17.01
-23.47
-30.80
-38.85
-46.92
-53.80
-57.98
-58.18
-53.74
-44.93
-32.80
-18.90
-4.81
8.18
19.19
27.73
33.64
37.02
38.17
37.53
35.67
33.12
30.27
27.29
24.16
20.83
17.28
13.68
10.33
7.56
5.57
4.30
3.46
2.65
1.51
-0.14
-2.27
-4.82
-7.75
-11.20
-15.39
-20.52
-26.63
-33.52
-40.66
-47.23
-52.23
-54.65
-53.70
-49.13
-41.20
-30.79
-19.06
-7.19
3.87
13.44
21.14
26.73
30.01
30.90
29.43
25.95
21.03
15.56
10.43
6.42
3.98
3.15
3.55
4.57
5.57
6.08
5.92
5.16
4.04
2.73
1.25
-0.55
-2.95
-6.28
-10.85
-16.91
-24.62
-33.93
-44.37
-54.93
-64.07
-69.99
-71.12
-66.67
-56.88
-43.02
-26.98
-10.73
4.14
16.61
26.23
32.88
36.65
37.72
36.48
33.54
29.66
25.67
22.16
19.45
17.58
16.40
15.73
15.42
15.28
15.09
14.58
13.51
11.80
9.52
6.84
3.83
0.49
-3.34
-7.79
-12.95
-18.88
-25.60
-33.08
-41.07
-48.92
-55.53
-59.49
-59.47
-54.67
-45.15
-31.87
-16.34
-0.27
14.92
28.15
38.75
46.35
50.78
52.07
50.56
46.87
41.92
36.69
32.04
28.54
26.40
25.54
25.64
26.29
27.04
27.43
27.13
25.92
23.84
21.00
17.59
13.70
9.40
4.66
-0.48
-6.01
-11.95
-18.43
-25.68
-33.78
-42.34
-50.38
-56.43
-58.93
-56.76
-49.68
-38.44
-24.47
-9.51
4.90
17.62
27.89
35.28
39.57
40.82
39.38
35.99
31.62
27.25
23.61
21.03
19.50
18.78
18.67
18.98
19.63
20.49
21.29
21.63
21.08
19.30
16.16
11.82
6.61
0.94
-4.85
-10.56
-16.18
-21.86
-27.81
-34.25
-41.15
-48.14
-54.40
-58.77
-60.05
-57.38
-50.59
-40.19
-27.28
-13.19
0.80
13.63
24.41
32.38
37.02
38.14
36.12
31.91
26.81
22.14
18.80
17.14
16.91
17.61
18.68
19.79
20.78
21.59
22.13
22.22
21.69
20.40
18.34
15.51
11.87
7.37
2.06
-3.80
-9.78
-15.41
-20.49
-25.07
-29.35
-33.34
-36.57
-38.09
-36.86
-32.18
-24.11
-13.48
-1.57
10.25
20.90
29.67
36.14
40.10
41.59
40.90
38.65
35.59
32.53
30.10
28.73
28.56
29.50
31.22
33.27
35.09
36.20
36.26
35.14
32.90
29.68
25.67
21.04
15.99
10.69
5.25
-0.45
-6.63
-13.60
-21.51
-30.09
-38.64
-46.07
-51.16
-52.93
-50.90
-45.24
-36.65
-26.24
-15.23
-4.78
4.18
10.94
15.10
16.56
15.47
12.32
7.79
2.69
-2.18
-6.12
-8.67
-9.66
-9.24
-7.85
-6.13
-4.78
-4.31
-4.94
-6.55
-8.80
-11.34
-13.91
-16.55
-19.52
-23.27
-28.23
-34.63
-42.27
-50.42
-57.88
-63.15
-64.85
-62.09
-54.78
-43.63
-29.94
-15.24
-0.90
11.99
22.71
30.77
35.91
38.12
37.68
35.15
31.24
26.68
22.04
17.74
14.10
11.38
9.76
9.23
9.48
9.91
9.79
8.56
5.99
2.30
-2.08
-6.69
-11.35
-16.18
-21.52
-27.77
-35.19
-43.86
-53.57
-63.75
-73.33
-80.87
-84.69
-83.36
-76.24
-63.75
-47.34
-29.04
-10.91
5.47
19.17
29.82
37.38
42.01
43.99
43.74
41.87
39.01
35.73
32.43
29.40
26.85
25.03
24.16
24.32
25.32
26.69
27.73
27.68
26.01
22.45
17.11
10.42
2.93
-4.82
-12.46
-19.93
-27.45
-35.43
-44.27
-54.04
-64.20
-73.55
-80.36
-82.84
-79.71
-70.61
-56.24
-38.17
-18.36
1.45
19.97
36.52
50.77
62.49
71.43
77.40
80.44
80.96
79.75
77.82
76.15
75.42
75.87
77.34
79.37
81.40
83.01
83.99
84.29
84.00
83.22
81.90
79.87
76.92
72.95
68.02
62.39
56.27
49.72
42.49
34.09
23.96
11.54
-3.49
-21.05
-40.52
-60.68
-79.76
-95.83
-107.24
-113.07
-113.40
-109.16
-101.63
-91.90
-80.45
-67.09
-51.31
-32.73
-11.46
11.75
35.68
58.90
80.16
98.59
113.85
125.97
135.17
141.72
145.77
147.41
146.76
144.07
139.81
134.58
129.02
123.68
118.85
114.64
111.01
107.82
104.70
100.91
95.38
86.87
74.51
58.19
38.71
17.57
-3.56
-23.38
-41.23
-57.10
-71.37
-84.55
-97.20
-109.86
-122.96
-136.56
-150.15
-162.50
-171.85
-176.40
-174.91
-167.13
-153.92
-136.97
-118.30
-99.75
-82.57
-67.43
-54.52
-43.81
-35.24
-28.75
-24.19
-21.13
-18.91
-16.73
-13.94
-10.18
-5.49
-0.20
5.27
10.51
15.13
18.78
21.14
21.94
21.10
18.86
15.67
12.19
8.93
6.19
3.96
1.95
-0.24
-2.96
-6.38
-10.44
-14.86
-19.32
-23.63
-27.82
-32.14
-37.02
-42.77
-49.47
-56.79
-63.96
-69.84
-73.13
-72.74
-68.12
-59.39
-47.35
-33.24
-18.37
-3.86
9.42
20.82
29.83
36.01
39.22
39.74
38.28
35.81
33.30
31.37
30.26
29.91
30.06
30.50
30.99
31.37
31.43
30.99
29.99
28.46
26.59
24.53
22.36
19.98
17.19
13.85
9.93
5.60
1.11
-3.25
-7.30
-10.91
-14.09
-16.90
-19.48
-22.03
-24.83
-28.11
-32.06
-36.69
-41.72
-46.61
-50.61
-52.82
-52.48
-49.09
-42.61
-33.40
-22.31
-10.35
1.44
12.16
21.17
28.08
32.76
35.27
35.80
34.69
32.38
29.49
26.68
24.57
23.52
23.57
24.47
25.75
27.03
28.06
28.75
29.11
29.08
28.59
27.53
25.87
23.64
20.92
17.79
14.36
10.69
6.88
3.04
-0.72
-4.36
-7.80
-11.07
-14.17
-17.23
-20.40
-23.92
-27.98
-32.62
-37.63
-42.48
-46.37
-48.38
-47.75
-44.08
-37.48
-28.64
-18.59
-8.45
0.82
8.54
14.33
18.06
19.77
19.65
18.10
15.62
12.80
10.15
8.08
6.84
6.48
6.98
8.17
9.78
11.51
13.04
14.13
14.60
14.42
13.58
12.15
10.24
7.99
5.59
3.16
0.72
-1.77
-4.38
-7.16
-10.06
-12.93
-15.59
-17.92
-19.90
-21.69
-23.57
-25.80
-28.52
-31.58
-34.42
-36.26
-36.22
-33.67
-28.53
-21.24
-12.74
-4.07
3.84
10.42
15.32
18.43
19.74
19.36
17.52
14.70
11.48
8.46
6.09
4.57
3.93
4.10
5.00
6.49
8.37
10.32
11.98
13.04
13.32
12.81
11.63
9.95
7.91
5.67
3.32
0.95
-1.40
-3.72
-6.00
-8.25
-10.47
-12.71
-15.06
-17.67
-20.70
-24.19
-28.07
-32.03
-35.57
-38.04
-38.77
-37.21
-33.11
-26.63
-18.38
-9.30
-0.46
7.19
13.07
17.03
19.22
19.97
19.55
18.20
16.09
13.43
10.53
7.80
5.61
4.16
3.46
3.30
3.48
3.85
4.37
5.10
5.98
6.86
7.47
7.53
6.82
5.32
3.09
0.33
-2.73
-5.75
-8.43
-10.59
-12.25
-13.78
-15.73
-18.60
-22.60
-27.48
-32.60
-37.08
-40.16
-41.23
-39.97
-36.27
-30.32
-22.61
-13.93
-5.25
2.49
8.66
13.03
15.68
16.91
16.92
15.86
13.85
11.10
7.98
4.99
2.62
1.21
0.90
1.57
2.91
4.52
6.01
7.05
7.52
7.43
6.84
5.77
4.21
2.09
-0.57
-3.60
-6.73
-9.66
-12.20
-14.37
-16.37
-18.49
-21.03
-24.18
-27.95
-32.09
-36.07
-39.16
-40.63
-39.87
-36.66
-31.14
-23.85
-15.46
-6.72
1.70
9.17
15.11
19.08
20.86
20.55
18.58
15.65
12.43
9.46
7.05
5.30
4.20
3.76
3.95
4.70
5.85
7.13
8.26
9.06
9.40
9.24
8.48
6.99
4.62
1.39
-2.45
-6.47
-10.23
-13.47
-16.26
-19.02
-22.26
-26.39
-31.44
-37.04
-42.41
-46.55
-48.48
-47.49
-43.33
-36.24
-27.04
-16.75
-6.45
2.94
10.82
16.86
20.95
23.08
23.31
21.89
19.24
15.94
12.65
9.87
7.85
6.57
5.84
5.50
5.51
5.92
6.75
7.81
8.70
8.90
8.03
5.98
3.01
-0.45
-3.96
-7.27
-10.32
-13.17
-15.98
-18.90
-22.13
-25.88
-30.31
-35.33
-40.47
-44.82
-47.25
-46.76
-42.78
-35.45
-25.57
-14.36
-3.16
6.91
15.06
20.96
24.57
26.04
25.64
23.71
20.66
17.03
13.40
10.37
8.39
7.68
8.14
9.46
11.22
13.02
14.58
15.70
16.22
15.99
14.87
12.76
9.74
6.04
1.98
-2.12
-6.11
-10.05
-14.23
-19.02
-24.63
-30.97
-37.54
-43.49
-47.78
-49.47
-47.96
-43.12
-35.32
-25.27
-13.90
-2.16
9.08
19.06
27.14
32.80
35.75
36.06
34.11
30.58
26.29
21.99
18.24
15.39
13.63
13.03
13.57
15.04
17.03
18.96
20.26
20.52
19.60
17.63
14.89
11.63
8.04
4.17
0.14
-3.99
-8.18
-12.52
-17.26
-22.72
-29.04
-35.92
-42.53
-47.62
-49.84
-48.20
-42.40
-32.94
-20.94
-7.92
4.71
15.78
24.56
30.67
34.10
35.10
34.12
31.74
28.59
25.27
22.26
19.92
18.43
17.84
18.14
19.17
20.76
22.63
24.49
26.00
26.85
26.73
25.43
22.90
19.25
14.83
10.04
5.26
0.64
-3.96
-8.92
-14.66
-21.40
-28.93
-36.47
-42.83
-46.69
-46.94
-43.02
-35.09
-24.08
-11.41
1.29
12.64
21.65
27.89
31.41
32.54
31.72
29.45
26.18
22.31
18.31
14.64
11.79
10.10
9.73
10.57
12.26
14.25
15.94
16.82
16.56
15.08
12.48
9.04
5.08
0.92
-3.21
-7.26
-11.41
-16.05
-21.61
-28.34
-36.05
-43.94
-50.75
-55.02
-55.53
-51.61
-43.39
-31.72
-17.98
-3.75
9.48
20.53
28.64
33.54
35.36
34.50
31.56
27.22
22.21
17.28
13.17
10.40
9.22
9.49
10.77
12.49
14.09
15.21
15.62
15.20
13.88
11.62
8.45
4.46
-0.17
-5.22
-10.53
-16.10
-22.09
-28.77
-36.34
-44.72
-53.30
-60.96
-66.18
-67.50
-63.97
-55.48
-42.86
-27.65
-11.65
3.46
16.45
26.58
33.60
37.59
38.89
37.99
35.48
32.06
28.44
25.29
23.15
22.31
22.83
24.51
26.95
29.64
32.04
33.62
33.99
32.86
30.22
26.25
21.27
15.65
9.72
3.64
-2.53
-8.89
-15.59
-22.81
-30.63
-38.83
-46.81
-53.52
-57.64
-57.96
-53.76
-45.15
-33.04
-18.87
-4.23
9.55
21.48
31.00
37.79
41.76
43.03
41.96
39.19
35.57
31.94
29.01
27.17
26.51
26.90
28.12
29.92
32.01
34.04
35.55
35.99
34.94
32.17
27.79
22.19
15.89
9.44
3.27
-2.39
-7.59
-12.58
-17.87
-24.02
-31.30
-39.51
-47.81
-54.78
-58.80
-58.53
-53.33
-43.46
-29.93
-14.29
1.83
16.88
29.64
39.28
45.43
48.17
48.00
45.72
42.25
38.54
35.35
33.25
32.51
33.10
34.75
36.99
39.31
41.24
42.51
43.01
42.81
41.91
40.27
37.67
33.91
28.94
22.98
16.49
10.01
3.99
-1.42
-6.36
-11.23
-16.50
-22.52
-29.39
-36.86
-44.18
-50.24
-53.71
-53.44
-48.79
-39.94
-27.89
-14.11
-0.16
12.66
23.47
31.77
37.29
39.91
39.72
37.14
32.96
28.19
23.86
20.71
19.04
18.71
19.38
20.65
22.26
24.03
25.82
27.32
28.14
27.79
25.95
22.59
18.03
12.83
7.57
2.64
-1.88
-6.18
-10.61
-15.47
-20.95
-27.12
-33.88
-40.95
-47.74
-53.32
-56.54
-56.28
-51.86
-43.32
-31.46
-17.69
-3.55
9.55
20.55
28.79
33.99
36.12
35.51
32.72
28.56
23.95
19.69
16.35
14.22
13.32
13.54
14.65
16.37
18.36
20.23
21.61
22.16
21.64
19.90
16.90
12.76
7.69
2.01
-3.86
-9.58
-14.97
-20.07
-25.21
-30.83
-37.33
-44.76
-52.69
-60.10
-65.68
-68.02
-66.16
-59.79
-49.43
-36.22
-21.67
-7.25
5.80
16.65
24.85
30.21
32.79
32.88
30.94
27.65
23.84
20.37
17.88
16.76
17.07
18.50
20.61
22.96
25.20
27.07
28.38
28.84
28.10
25.85
22.01
16.87
11.00
5.18
-0.03
-4.36
-8.00
-11.48
-15.40
-20.28
-26.36
-33.55
-41.37
-49.00
-55.30
-58.99
-58.98
-54.70
-46.26
-34.58
-21.03
-7.19
5.61
16.48
25.02
31.17
35.07
36.89
36.90
35.42
32.94
30.08
27.53
25.84
25.30
25.92
27.40
29.25
31.02
32.32
32.97
32.89
32.11
30.63
28.40
25.34
21.41
16.66
11.33
5.74
0.29
-4.75
-9.28
-13.42
-17.50
-21.93
-27.05
-32.89
-39.10
-44.90
-49.17
-50.78
-48.95
-43.45
-34.73
-23.75
-11.73
0.19
11.08
20.32
27.51
32.42
34.98
35.25
33.61
30.69
27.35
24.47
22.72
22.35
23.26
25.00
27.06
28.99
30.50
31.50
31.97
31.97
31.50
30.46
28.76
26.23
22.84
18.63
13.86
8.94
4.26
0.06
-3.67
-7.23
-11.07
-15.61
-21.05
-27.31
-33.98
-40.35
-45.52
-48.55
-48.68
-45.50
-39.12
-30.19
-19.72
-8.83
1.45
10.41
17.62
22.83
25.87
26.68
25.35
22.26
18.08
13.67
9.88
7.26
6.02
5.98
6.75
7.90
9.08
10.08
10.76
11.04
10.90
10.29
9.15
7.39
4.93
1.78
-1.96
-6.04
-10.12
-13.95
-17.44
-20.78
-24.30
-28.38
-33.21
-38.61
-44.01
-48.48
-51.00
-50.71
-47.18
-40.48
-31.26
-20.48
-9.30
1.22
10.23
17.15
21.70
23.87
23.83
21.94
18.74
14.86
11.00
7.80
5.73
4.99
5.46
6.75
8.36
9.89
11.16
12.13
12.87
13.29
13.17
12.15
9.93
6.47
2.04
-2.87
-7.73
-12.18
-16.15
-19.78
-23.41
-27.38
-32.03
-37.49
-43.67
-50.03
-55.61
-59.14
-59.45
-55.84
-48.42
-38.04
-26.03
-13.77
-2.32
7.70
15.97
22.30
26.49
28.39
28.06
25.88
22.60
19.10
16.16
14.22
13.33
13.26
13.71
14.41
15.25
16.20
17.20
18.14
18.81
18.90
18.16
16.44
13.80
10.44
6.70
2.92
-0.72
-4.13
-7.40
-10.68
-14.19
-18.14
-22.73
-28.06
-34.03
-40.22
-45.78
-49.61
-50.60
-48.04
-41.82
-32.53
-21.23
-9.21
2.29
12.37
20.41
26.12
29.41
30.40
29.37
26.79
23.33
19.72
16.64
14.57
13.69
13.88
14.80
16.00
17.17
18.13
18.82
19.27
19.45
19.30
18.65
17.33
15.23
12.33
8.75
4.76
0.68
-3.18
-6.67
-9.80
-12.77
-15.89
-19.47
-23.68
-28.44
-33.35
-37.67
-40.45
-40.76
-38.03
-32.22
-23.94
-14.21
-4.16
5.25
13.42
20.02
24.91
27.92
28.91
27.83
24.89
20.61
15.72
11.07
7.38
5.06
4.15
4.34
5.13
6.06
6.86
7.48
8.02
8.56
8.92
8.74
7.56
5.10
1.49
-2.78
-7.04
-10.72
-13.67
-16.14
-18.71
-21.99
-26.30
-31.60
-37.32
-42.58
-46.31
-47.55
-45.65
-40.43
-32.25
-21.95
-10.69
0.36
10.19
18.12
23.79
27.13
28.23
27.31
24.69
20.78
16.13
11.37
7.14
3.93
1.98
1.26
1.51
2.36
3.41
4.34
4.90
4.94
4.28
2.77
0.32
-3.03
-7.02
-11.27
-15.34
-19.04
-22.45
-25.95
-30.10
-35.27
-41.52
-48.42
-55.09
-60.41
-63.21
-62.54
-57.93
-49.48
-37.93
-24.51
-10.65
2.26
13.12
21.25
26.38
28.61
28.34
26.20
22.96
19.34
15.94
13.19
11.24
10.14
9.86
10.29
11.30
12.63
13.95
14.81
14.84
13.75
11.45
8.09
3.95
-0.60
-5.21
-9.63
-13.71
-17.45
-21.07
-24.92
-29.40
-34.80
-41.02
-47.41
-52.82
-55.86
-55.33
-50.68
-42.17
-30.84
-18.12
-5.37
6.39
16.49
24.61
30.54
34.15
35.40
34.45
31.74
27.97
23.93
20.36
17.81
16.53
16.50
17.52
19.26
21.29
23.22
24.67
25.35
25.07
23.76
21.39
18.05
13.92
9.27
4.40
-0.43
-5.12
-9.76
-14.68
-20.30
-26.85
-34.17
-41.54
-47.72
-51.25
-50.94
-46.24
-37.48
-25.76
-12.51
0.80
13.03
23.36
31.23
36.24
38.26
37.48
34.59
30.61
26.61
23.39
21.29
20.21
19.80
19.77
19.97
20.38
20.92
21.39
21.45
20.67
18.80
15.88
12.21
8.28
4.47
0.94
-2.40
-5.84
-9.67
-14.04
-19.06
-24.72
-30.90
-37.30
-43.27
-47.81
-49.69
-47.91
-42.06
-32.55
-20.55
-7.67
4.55
14.93
22.83
28.09
30.84
31.34
29.96
27.13
23.38
19.29
15.43
12.24
10.00
8.73
8.33
8.62
9.39
10.40
11.38
11.97
11.77
10.53
8.17
4.89
1.13
-2.68
-6.24
-9.55
-12.90
-16.83
-21.76
-27.78
-34.48
-40.94
-45.85
-47.93
-46.26
-40.62
-31.58
-20.34
-8.35
3.03
12.84
20.58
26.07
29.29
30.32
29.26
26.41
22.30
17.65
13.29
9.91
7.96
7.52
8.33
9.88
11.60
13.01
13.77
13.76
12.99
11.57
9.57
7.01
3.89
0.21
-4.01
-8.73
-13.94
-19.72
-26.15
-33.21
-40.59
-47.55
-53.03
-55.82
-54.92
-49.90
-41.09
-29.48
-16.50
-3.54
8.23
18.09
25.64
30.73
33.35
33.63
31.92
28.80
25.04
21.44
18.69
17.23
17.17
18.30
20.26
22.55
24.61
25.95
26.10
24.76
21.91
17.74
12.70
7.35
2.19
-2.50
-6.69
-10.61
-14.69
-19.37
-24.96
-31.45
-38.38
-44.87
-49.73
-51.76
-50.10
-44.48
-35.37
-23.79
-11.08
1.41
12.62
21.87
28.83
33.41
35.62
35.60
33.65
30.34
26.46
22.89
20.35
19.22
19.41
20.60
22.33
24.28
26.23
27.99
29.29
29.72
28.94
26.76
23.34
19.05
14.40
9.79
5.37
1.06
-3.37
-8.16
-13.48
-19.34
-25.60
-31.81
-37.36
-41.37
-42.95
-41.30
-36.06
-27.53
-16.59
-4.56
7.16
17.41
25.52
31.25
34.63
35.87
35.24
33.10
29.99
26.60
23.61
21.50
20.41
20.15
20.38
20.83
21.40
22.11
22.92
23.61
23.79
23.01
20.95
17.63
13.35
8.61
3.86
-0.60
-4.69
-8.56
-12.44
-16.58
-21.21
-26.48
-32.33
-38.37
-43.85
-47.67
-48.69
-46.05
-39.55
-29.75
-17.91
-5.56
5.83
15.21
22.03
26.21
27.94
27.60
25.62
22.52
18.85
15.21
12.12
9.99
9.00
9.10
10.03
11.44
12.97
14.32
15.26
15.59
15.12
13.64
11.06
7.47
3.19
-1.34
-5.66
-9.48
-12.74
-15.71
-18.84
-22.63
-27.43
-33.20
-39.40
-45.06
-49.02
-50.19
-47.97
-42.26
-33.60
-22.91
-11.25
0.27
10.71
19.25
25.36
28.76
29.53
28.13
25.25
21.66
18.09
15.08
12.92
11.69
11.31
11.62
12.45
13.63
14.97
16.28
17.30
17.74
17.36
15.92
13.35
9.77
5.44
0.77
-3.90
-8.32
-12.46
-16.48
-20.68
-25.43
-30.97
-37.35
-44.14
-50.46
-55.05
-56.64
-54.25
-47.68
-37.60
-25.33
-12.45
-0.33
10.14
18.59
24.95
29.27
31.54
31.79
30.26
27.42
24.01
20.85
18.56
17.46
17.48
18.29
19.47
20.69
21.75
22.56
23.04
23.00
22.19
20.41
17.57
13.82
9.53
5.09
0.81
-3.23
-7.13
-11.13
-15.47
-20.29
-25.66
-31.54
-37.70
-43.67
-48.63
-51.58
-51.48
-47.75
-40.40
-30.14
-18.19
-5.88
5.69
15.74
23.85
29.81
33.48
34.81
33.99
31.50
28.11
24.72
22.11
20.69
20.47
21.13
22.23
23.35
24.28
24.89
25.12
24.89
24.15
22.78
20.73
18.03
14.74
11.01
7.00
2.93
-1.01
-4.72
-8.19
-11.60
-15.21
-19.33
-24.21
-29.85
-35.87
-41.56
-45.87
-47.75
-46.40
-41.50
-33.42
-22.99
-11.42
0.10
10.57
19.28
25.80
29.91
31.60
30.98
28.47
24.68
20.43
16.59
13.80
12.34
12.06
12.54
13.32
14.15
15.00
15.98
17.11
18.15
18.63
18.03
16.13
13.01
9.16
5.15
1.39
-1.96
-5.06
-8.12
-11.40
-15.05
-19.24
-24.06
-29.50
-35.20
-40.45
-44.18
-45.33
-43.26
-37.93
-30.01
-20.51
-10.55
-0.99
7.57
14.70
20.02
23.20
24.10
22.83
19.88
15.97
11.91
8.41
5.94
4.71
4.60
5.35
6.54
7.84
8.95
9.70
9.95
9.50
8.12
5.60
1.95
-2.51
-7.24
-11.67
-15.39
-18.34
-20.81
-23.32
-26.45
-30.63
-35.99
-42.31
-48.88
-54.66
-58.40
-58.96
-55.69
-48.63
-38.50
-26.49
-13.92
-1.91
8.64
17.13
23.17
26.57
27.37
25.96
23.00
19.36
15.89
13.22
11.68
11.24
11.63
12.51
13.57
14.62
15.64
16.58
17.29
17.48
16.72
14.66
11.23
6.67
1.56
-3.47
-7.95
-11.83
-15.32
-18.86
-22.87
-27.57
-33.00
-38.89
-44.78
-49.90
-53.32
-54.06
-51.37
-45.02
-35.35
-23.30
-10.18
2.62
13.93
22.90
29.11
32.56
33.55
32.57
30.22
27.14
23.91
21.01
18.80
17.43
16.86
16.90
17.24
17.67
18.09
18.55
19.10
19.65
19.86
19.30
17.52
14.41
10.17
5.35
0.58
-3.70
-7.36
-10.64
-14.05
-18.12
-23.22
-29.34
-36.05
-42.46
-47.35
-49.49
-47.99
-42.55
-33.62
-22.24
-9.81
2.32
13.12
21.90
28.33
32.25
33.68
32.82
30.12
26.30
22.24
18.71
16.28
15.13
15.11
15.88
17.10
18.51
19.93
21.23
22.19
22.64
22.33
21.15
19.07
16.16
12.58
8.58
4.42
0.35
-3.43
-6.99
-10.57
-14.64
-19.63
-25.80
-32.87
-40.02
-45.95
-49.27
-48.92
-44.50
-36.41
-25.75
-13.92
-2.29
8.07
16.48
22.62
26.32
27.64
26.76
24.09
20.28
16.07
12.17
9.12
7.20
6.48
6.86
8.14
10.06
12.24
14.26
15.67
16.09
15.32
13.35
10.36
6.64
2.50
-1.81
-6.14
-10.43
-14.81
-19.47
-24.76
-30.90
-37.82
-44.98
-51.38
-55.68
-56.66
-53.57
-46.40
-35.99
-23.63
-10.79
1.38
12.10
20.96
27.68
31.97
33.61
32.62
29.39
24.76
19.79
15.46
12.41
10.79
10.42
10.91
11.90
13.11
14.33
15.35
15.90
15.67
14.45
12.21
9.13
5.55
1.81
-1.83
-5.36
-8.95
-12.91
-17.52
-22.97
-29.27
-36.20
-43.15
-49.19
-53.13
-53.82
-50.50
-43.13
-32.41
-19.60
-6.24
6.28
16.91
25.08
30.55
33.39
33.88
32.44
29.63
26.10
22.52
19.43
17.25
16.16
16.10
16.91
18.31
20.07
21.96
23.69
24.90
25.17
24.16
21.74
18.04
13.46
8.53
3.68
-0.84
-5.08
-9.33
-14.02
-19.52
-26.05
-33.46
-41.16
-48.11
-53.05
-54.75
-52.44
-45.97
-35.97
-23.54
-10.08
3.15
15.11
25.05
32.50
37.18
39.08
38.48
36.02
32.58
29.04
26.13
24.31
23.66
24.02
25.07
26.40
27.68
28.66
29.22
29.29
28.86
27.85
26.16
23.65
20.27
16.08
11.34
6.37
1.48
-3.13
-7.46
-11.72
-16.25
-21.42
-27.36
-33.86
-40.18
-45.18
-47.59
-46.42
-41.28
-32.55
-21.30
-8.88
3.30
14.15
22.95
29.33
33.14
34.39
33.33
30.42
26.38
22.03
18.20
15.46
14.12
14.10
15.17
16.93
18.98
21.01
22.70
23.79
24.05
23.28
21.36
18.36
14.43
9.94
5.34
1.04
-2.68
-5.82
-8.72
-11.89
-15.88
-21.02
-27.26
-34.04
-40.45
-45.36
-47.66
-46.55
-41.74
-33.55
-22.86
-10.92
0.99
11.75
20.57
27.02
30.90
32.21
31.09
27.94
23.42
18.47
14.06
10.97
9.54
9.62
10.79
12.52
14.43
16.27
17.87
19.00
19.34
18.53
16.36
12.86
8.35
3.30
-1.83
-6.67
-11.05
-14.96
-18.57
-22.20
-26.31
-31.28
-37.27
-43.93
-50.33
-55.15
-57.01
-54.96
-48.83
-39.28
-27.56
-15.10
-3.11
7.59
16.49
23.28
27.71
29.63
29.12
26.65
23.07
19.39
16.54
14.99
14.80
15.64
17.03
18.55
19.92
20.99
21.64
21.73
21.17
19.86
17.80
15.05
11.70
7.86
3.62
-0.91
-5.59
-10.26
-14.76
-19.06
-23.32
-27.89
-33.17
-39.33
-45.99
-52.17
-56.42
-57.30
-53.91
-46.33
-35.50
-22.91
-10.06
1.95
12.53
21.36
28.22
32.80
34.83
34.31
31.69
27.86
23.88
20.68
18.81
18.36
19.11
20.69
22.71
24.85
26.84
28.39
29.28
29.28
28.25
26.16
23.06
19.10
14.51
9.63
4.81
0.36
-3.59
-7.12
-10.60
-14.48
-19.20
-24.98
-31.70
-38.86
-45.53
-50.54
-52.67
-51.05
-45.40
-36.17
-24.47
-11.71
0.76
11.94
21.25
28.40
33.25
35.74
35.91
33.99
30.51
26.22
21.96
18.47
16.24
15.45
15.98
17.47
19.47
21.49
23.14
24.15
24.44
24.04
23.00
21.35
19.07
16.08
12.36
7.99
3.21
-1.64
-6.14
-10.03
-13.28
-16.19
-19.28
-23.10
-28.01
-33.89
-40.12
-45.58
-49.01
-49.31
-45.93
-38.92
-28.98
-17.22
-4.90
6.81
16.90
24.64
29.53
31.42
30.50
27.35
22.82
17.88
13.37
9.89
7.64
6.59
6.47
7.00
7.94
9.13
10.51
12.01
13.50
14.79
15.58
15.55
14.47
12.22
8.92
4.88
0.55
-3.65
-7.47
-10.95
-14.42
-18.40
-23.28
-29.16
-35.63
-41.90
-46.87
-49.47
-48.90
-44.84
-37.48
-27.55
-16.13
-4.40
6.50
15.71
22.67
27.12
29.03
28.55
25.95
21.68
16.47
11.13
6.58
3.47
2.09
2.33
3.73
5.71
7.81
9.76
11.50
12.98
14.08
14.52
13.98
12.20
9.14
5.07
0.46
-4.16
-8.39
-12.08
-15.38
-18.70
-22.58
-27.52
-33.74
-41.00
-48.55
-55.12
-59.32
-59.93
-56.39
-48.93
-38.49
-26.39
-14.01
-2.44
7.61
15.71
21.59
25.09
26.21
25.16
22.50
18.99
15.50
12.79
11.26
10.99
11.68
12.88
14.15
15.22
16.06
16.73
17.30
17.69
17.70
17.00
15.28
12.45
8.60
4.07
-0.69
-5.23
-9.33
-13.00
-16.56
-20.51
-25.31
-31.22
-38.01
-44.98
-51.04
-54.99
-55.79
-52.87
-46.27
-36.56
-24.78
-12.12
0.22
11.25
20.27
26.85
30.89
32.51
32.02
29.93
26.82
23.35
20.15
17.74
16.44
16.28
17.05
18.32
19.63
20.59
21.00
20.85
20.22
19.17
17.70
15.71
13.09
9.82
6.04
2.03
-1.90
-5.54
-8.90
-12.19
-15.77
-20.00
-25.13
-31.14
-37.67
-43.97
-49.02
-51.66
-50.92
-46.34
-38.13
-27.14
-14.70
-2.22
9.17
18.65
25.78
30.38
32.38
31.89
29.29
25.26
20.75
16.71
13.90
12.59
12.66
13.62
14.91
16.08
16.92
17.37
17.47
17.24
16.63
15.50
13.76
11.38
8.41
5.04
1.47
-2.07
-5.42
-8.55
-11.64
-15.06
-19.25
-24.52
-30.83
-37.58
-43.67
-47.74
-48.62
-45.71
-39.19
-29.90
-19.05
-7.78
2.99
12.60
20.56
26.44
29.85
30.65
29.03
25.59
21.24
16.89
13.26
10.64
9.01
8.16
7.84
7.95
8.49
9.45
10.69
11.81
12.31
11.63
9.49
5.91
1.29
-3.85
-8.96
-13.72
-18.06
-22.13
-26.26
-30.79
-36.02
-41.87
-47.94
-53.34
-56.96
-57.67
-54.75
-48.15
-38.44
-26.70
-14.15
-1.91
9.16
18.43
25.46
29.99
31.93
31.48
29.13
25.62
21.75
18.32
15.87
14.68
14.74
15.78
17.39
19.05
20.35
20.97
20.74
19.64
17.64
14.78
11.08
6.62
1.69
-3.34
-8.03
-12.15
-15.79
-19.44
-23.80
-29.48
-36.66
-44.86
-52.93
-59.33
-62.54
-61.48
-55.88
-46.27
-33.90
-20.30
-6.93
5.13
15.28
23.22
28.84
32.08
32.95
31.68
28.79
25.13
21.68
19.27
18.30
18.71
20.06
21.81
23.60
25.22
26.65
27.78
28.36
27.95
26.19
22.92
18.43
13.30
8.19
3.57
-0.47
-4.19
-8.08
-12.68
-18.33
-25.16
-32.89
-40.93
-48.26
-53.61
-55.72
-53.69
-47.30
-37.11
-24.40
-10.68
2.62
14.50
24.40
32.05
37.29
39.96
40.02
37.70
33.66
28.91
24.54
21.40
19.83
19.64
20.30
21.29
22.28
23.21
24.17
25.10
25.73
25.63
24.39
21.85
18.24
13.95
9.48
5.15
0.97
-3.20
-7.64
-12.58
-18.18
-24.47
-31.40
-38.63
-45.55
-51.14
-54.14
-53.35
-48.13
-38.68
-26.12
-12.14
1.51
13.48
23.08
30.14
34.73
36.93
36.82
34.62
30.81
26.22
21.75
18.20
16.06
15.36
15.86
17.23
19.07
21.05
22.81
23.95
24.10
23.05
20.73
17.37
13.35
9.12
5.02
1.23
-2.29
-5.77
-9.57
-14.08
-19.59
-26.18
-33.55
-40.89
-46.97
-50.42
-50.13
-45.63
-37.33
-26.29
-13.92
-1.57
9.76
19.42
26.98
32.12
34.55
34.20
31.33
26.67
21.25
16.19
12.39
10.23
9.65
10.23
11.47
12.95
14.43
15.71
16.54
16.57
15.45
12.95
9.18
4.49
-0.59
-5.67
-10.61
-15.50
-20.60
-26.16
-32.31
-39.07
-46.27
-53.52
-60.07
-64.82
-66.49
-63.98
-56.79
-45.38
-31.05
-15.61
-0.82
12.04
22.34
29.97
35.07
37.81
38.31
36.82
33.83
30.16
26.75
24.43
23.59
24.14
25.56
27.24
28.69
29.65
30.08
29.99
29.30
27.81
25.30
21.61
16.80
11.17
5.16
-0.76
-6.24
-11.21
-15.83
-20.58
-25.99
-32.48
-40.06
-48.08
-55.30
-60.15
-61.22
-57.69
-49.67
-38.09
-24.44
-10.29
2.99
14.48
23.62
30.13
33.97
35.29
34.48
32.19
29.19
26.29
24.09
22.93
22.78
23.40
24.41
25.52
26.55
27.48
28.33
29.05
29.41
29.10
27.75
25.13
21.23
16.30
10.76
5.13
-0.13
-4.78
-8.82
-12.59
-16.62
-21.49
-27.57
-34.80
-42.48
-49.38
-53.92
-54.74
-51.07
-43.04
-31.61
-18.23
-4.38
8.78
20.51
30.30
37.77
42.53
44.30
43.10
39.50
34.50
29.38
25.26
22.79
22.05
22.64
23.96
25.49
26.93
28.19
29.22
29.90
29.96
29.08
27.07
23.90
19.80
15.15
10.34
5.70
1.42
-2.43
-5.96
-9.41
-13.16
-17.61
-23.09
-29.66
-36.92
-44.03
-49.82
-53.07
-52.90
-48.93
-41.45
-31.28
-19.53
-7.35
4.20
14.32
22.44
28.21
31.48
32.26
30.83
27.67
23.51
19.21
15.61
13.34
12.64
13.33
14.92
16.85
18.63
19.97
20.77
20.94
20.36
18.85
16.27
12.61
8.08
3.11
-1.85
-6.38
-10.29
-13.63
-16.70
-20.00
-24.07
-29.21
-35.26
-41.48
-46.64
-49.35
-48.54
-43.83
-35.66
-25.06
-13.37
-1.79
8.78
17.72
24.61
29.14
31.14
30.64
28.00
23.88
19.13
14.59
10.91
8.48
7.35
7.34
8.17
9.51
11.09
12.68
14.02
14.87
14.94
13.95
11.73
8.29
3.87
-1.15
-6.30
-11.22
-15.75
-20.00
-24.29
-29.08
-34.72
-41.34
-48.59
-55.66
-61.32
-64.28
-63.51
-58.59
-49.81
-38.07
-24.65
-10.86
2.17
13.53
22.60
28.98
32.48
33.22
31.61
28.35
24.30
20.26
16.89
14.56
13.39
13.26
13.93
15.10
16.51
17.94
19.19
20.06
20.29
19.67
18.00
15.22
11.40
6.80
1.77
-3.25
-7.94
-12.20
-16.18
-20.34
-25.26
-31.39
-38.73
-46.61
-53.76
-58.63
-59.86
-56.75
-49.45
-38.86
-26.26
-12.98
-0.09
11.67
21.77
29.82
35.49
38.57
39.08
37.35
34.05
30.00
26.09
23.00
21.03
20.16
20.07
20.36
20.75
21.06
21.29
21.41
21.32
20.84
19.74
17.83
15.04
11.45
7.25
2.75
-1.75
-5.98
-9.80
-13.30
-16.76
-20.58
-25.16
-30.63
-36.73
-42.65
-47.20
-49.05
-47.23
-41.44
-32.17
-20.61
-8.21
3.70
14.19
22.78
29.28
33.58
35.61
35.42
33.29
29.78
25.70
21.86
18.88
17.03
16.24
16.19
16.51
16.88
17.14
17.21
17.04
16.50
15.42
13.59
10.88
7.34
3.25
-0.99
-5.00
-8.53
-11.65
-14.68
-18.02
-22.02
-26.81
-32.26
-37.98
-43.34
-47.58
-49.91
-49.58
-46.10
-39.40
-29.91
-18.53
-6.53
4.81
14.34
21.31
25.45
26.96
26.38
24.47
21.95
19.39
17.15
15.32
13.89
12.89
12.39
12.55
13.47
15.05
16.92
18.57
19.47
19.25
17.83
15.31
11.99
8.16
4.12
0.06
-3.86
-7.60
-11.29
-15.27
-20.00
-25.84
-32.78
-40.21
-47.00
-51.68
-52.99
-50.20
-43.42
-33.47
-21.67
-9.44
2.02
11.82
19.50
24.81
27.75
28.50
27.37
24.83
21.43
17.76
14.36
11.68
9.94
9.15
9.12
9.55
10.11
10.54
10.69
10.40
9.60
8.19
6.11
3.37
0.06
-3.66
-7.52
-11.28
-14.80
-18.11
-21.53
-25.52
-30.51
-36.66
-43.58
-50.35
-55.71
-58.40
-57.57
-52.97
-44.96
-34.37
-22.24
-9.67
2.36
12.97
21.45
27.32
30.39
30.78
28.96
25.63
21.59
17.62
14.30
12.02
10.88
10.75
11.31
12.19
13.04
13.66
13.90
13.70
13.00
11.67
9.61
6.79
3.42
-0.15
-3.50
-6.35
-8.74
-11.00
-13.68
-17.25
-21.97
-27.70
-33.89
-39.68
-43.99
-45.82
-44.41
-39.49
-31.37
-20.85
-9.12
2.64
13.40
22.47
29.44
34.14
36.50
36.64
34.83
31.60
27.69
23.91
20.96
19.22
18.70
19.11
20.04
21.15
22.21
23.14
23.85
24.14
23.69
22.21
19.51
15.66
10.98
5.92
0.97
-3.54
-7.46
-10.88
-14.11
-17.56
-21.65
-26.63
-32.43
-38.49
-43.78
-47.09
-47.33
-43.93
-37.01
-27.37
-16.22
-4.89
5.58
14.53
21.59
26.61
29.45
30.03
28.42
25.02
20.56
16.02
12.35
10.19
9.68
10.46
11.92
13.39
14.44
14.93
14.91
14.48
13.61
12.20
10.13
7.41
4.22
0.92
-2.20
-5.02
-7.65
-10.45
-13.78
-17.95
-23.01
-28.68
-34.39
-39.27
-42.38
-42.80
-39.98
-33.83
-24.93
-14.26
-3.11
7.23
15.76
21.81
25.13
25.83
24.30
21.12
16.97
12.48
8.19
4.50
1.64
-0.21
-1.05
-0.95
-0.23
0.62
1.03
0.44
-1.48
-4.83
-9.41
-14.98
-21.22
-27.91
-34.91
-42.13
-49.52
-57.13
-65.16
-73.88
-83.49
-93.93
-104.70
-114.81
-123.01
-128.15
-129.62
-127.57
-122.89
-116.96
-111.12
-106.41
-103.40
-102.22
-102.76
-104.75
-107.79
-111.22
-114.07
-115.26
-113.83
-109.22
-101.45
-90.95
-78.36
-64.17
-48.57
-31.57
-13.15
6.47
26.72
46.76
65.68
82.77
97.65
110.38
121.34
131.09
140.09
148.51
155.95
161.56
164.26
163.25
158.58
151.34
143.50
137.28
134.42
135.66
140.56
147.76
155.39
161.46
164.07
161.64
153.14
138.38
118.29
94.86
70.76
48.48
29.58
14.32
1.69
-9.86
-21.73
-34.52
-47.94
-61.10
-72.92
-82.56
-89.54
-93.63
-94.78
-93.09
-88.81
-82.43
-74.51
-65.62
-56.16
-46.53
-37.18
-28.83
-22.30
-18.22
-16.58
-16.56
-16.67
-15.21
-10.90
-3.15
7.82
21.17
35.82
50.62
64.59
76.89
86.94
94.30
98.84
100.71
100.30
98.27
95.33
92.12
89.03
86.13
83.18
79.80
75.63
70.59
64.88
58.89
52.99
47.31
41.73
35.94
29.67
22.82
15.51
8.05
0.73
-6.24
-12.77
-18.94
-24.89
-30.79
-36.76
-42.80
-48.60
-53.60
-57.00
-57.95
-55.90
-50.76
-42.92
-33.25
-22.76
-12.44
-3.12
4.67
10.63
14.67
16.91
17.61
17.14
15.95
14.52
13.37
13.00
13.85
16.16
19.91
24.65
29.62
33.90
36.67
37.50
36.44
33.96
30.77
27.59
24.82
22.56
20.55
18.28
15.23
11.00
5.46
-1.20
-8.55
-15.92
-22.49
-27.37
-29.82
-29.43
-26.39
-21.67
-16.81
-13.50
-13.05
-15.88
-21.49
-28.74
-36.35
-43.39
-49.40
-54.33
-58.31
-61.44
-63.68
-64.94
-65.14
-64.29
-62.56
-60.19
-57.48
-54.82
-52.54
-50.93
-50.13
-50.19
-51.07
-52.70
-55.14
-58.44
-62.65
-67.68
-73.23
-78.77
-83.59
-86.83
-87.63
-85.20
-78.99
-68.86
-55.18
-38.83
-21.08
-3.32
13.20
27.51
38.99
47.40
52.85
55.75
56.67
56.22
54.83
52.75
50.00
46.64
42.91
39.26
36.28
34.39
33.75
34.07
34.85
35.48
35.51
34.76
33.24
31.04
28.14
24.47
19.86
14.19
7.43
-0.25
-8.53
-16.84
-24.35
-29.94
-32.40
-30.80
-24.82
-14.90
-2.17
11.88
25.89
38.80
49.99
59.05
65.77
70.18
72.54
73.42
73.58
73.62
73.87
74.20
74.16
73.23
71.02
67.46
62.80
57.44
51.82
46.21
40.69
35.15
29.41
23.35
16.98
10.44
3.98
-2.22
-8.15
-13.96
-19.94
-26.36
-33.17
-39.94
-45.70
-49.32
-49.85
-46.92
-40.91
-32.83
-23.96
-15.46
-8.13
-2.44
1.40
3.23
2.89
0.39
-3.91
-9.27
-14.62
-18.90
-21.39
-21.90
-20.78
-18.69
-16.36
-14.31
-12.86
-12.10
-12.10
-12.88
-14.43
-16.65
-19.33
-22.16
-24.90
-27.49
-30.12
-33.16
-37.09
-42.22
-48.53
-55.51
-62.09
-66.97
-68.90
-67.09
-61.44
-52.54
-41.45
-29.36
-17.32
-6.13
3.61
11.44
17.01
20.16
21.01
20.00
17.77
15.01
12.32
10.16
8.84
8.54
9.32
11.00
13.20
15.42
17.15
18.05
17.96
16.89
14.89
12.00
8.36
4.22
-0.12
-4.39
-8.61
-13.04
-18.01
-23.64
-29.58
-34.91
-38.43
-39.12
-36.44
-30.55
-22.19
-12.38
-2.10
7.83
16.77
24.20
29.64
32.71
33.28
31.62
28.33
24.35
20.60
17.81
16.30
16.05
16.79
18.18
19.97
21.95
23.94
25.75
27.15
27.94
28.03
27.41
26.09
24.04
21.18
17.44
12.77
7.19
0.86
-5.98
-12.86
-19.09
-23.69
-25.58
-23.97
-18.72
-10.50
-0.67
9.24
18.03
25.24
31.00
35.68
39.44
41.99
42.70
41.05
36.97
30.94
23.87
16.65
9.87
3.77
-1.58
-6.11
-9.66
-12.03
-13.21
-13.44
-13.23
-13.14
-13.63
-14.94
-17.07
-19.86
-23.14
-26.75
-30.65
-34.86
-39.45
-44.41
-49.50
-54.15
-57.41
-58.20
-55.63
-49.28
-39.53
-27.33
-14.03
-0.95
10.91
20.92
28.77
34.27
37.36
38.08
36.77
34.05
30.74
27.67
25.43
24.23
23.87
23.94
24.00
23.79
23.22
22.34
21.21
19.74
17.74
14.95
11.28
6.77
1.71
-3.60
-8.98
-14.44
-20.20
-26.43
-33.08
-39.71
-45.54
-49.55
-50.85
-48.88
-43.56
-35.38
-25.14
-13.85
-2.47
8.11
17.27
24.55
29.69
32.60
33.38
32.33
29.92
26.75
23.40
20.36
17.97
16.33
15.37
14.89
14.67
14.44
14.05
13.31
12.05
10.08
7.28
3.65
-0.58
-4.97
-9.08
-12.63
-15.66
-18.49
-21.61
-25.39
-29.84
-34.61
-39.01
-42.22
-43.45
-42.09
-37.89
-30.92
-21.69
-11.03
0.06
10.58
19.66
26.65
31.16
33.07
32.60
30.21
26.61
22.50
18.50
14.93
11.95
9.54
7.74
6.61
6.20
6.40
6.89
7.21
6.93
5.82
3.90
1.36
-1.49
-4.46
-7.41
-10.28
-13.08
-15.86
-18.76
-22.01
-25.82
-30.13
-34.46
-37.92
-39.40
-37.94
-33.13
-25.31
-15.47
-4.97
4.86
13.04
19.13
23.11
25.27
25.90
25.22
23.34
20.39
16.63
12.57
8.88
6.12
4.58
4.13
4.34
4.63
4.58
4.02
3.01
1.66
0.07
-1.79
-3.95
-6.38
-8.92
-11.41
-13.87
-16.56
-19.90
-24.24
-29.56
-35.21
-40.11
-43.03
-43.03
-39.79
-33.59
-25.24
-15.68
-5.84
3.47
11.61
18.02
22.32
24.36
24.25
22.32
19.11
15.22
11.16
7.39
4.17
1.63
-0.22
-1.48
-2.26
-2.71
-2.96
-3.13
-3.35
-3.74
-4.39
-5.45
-7.01
-9.19
-12.02
-15.52
-19.62
-24.27
-29.41
-34.88
-40.29
-44.94
-47.84
-48.00
-44.74
-38.03
-28.49
-17.27
-5.64
5.26
14.54
21.63
26.15
27.97
27.23
24.44
20.42
16.06
12.15
9.08
6.91
5.43
4.46
3.92
3.81
4.12
4.66
5.05
4.87
3.82
1.89
-0.68
-3.56
-6.51
-9.46
-12.52
-15.90
-19.83
-24.47
-29.87
-35.76
-41.55
-46.31
-48.87
-48.20
-43.73
-35.61
-24.72
-12.45
-0.30
10.51
19.21
25.50
29.39
31.09
30.90
29.17
26.34
22.95
19.51
16.44
14.03
12.36
11.42
11.16
11.46
12.14
12.90
13.33
12.99
11.58
9.04
5.56
1.54
-2.61
-6.59
-10.29
-13.85
-17.51
-21.54
-26.10
-31.09
-36.04
-40.19
-42.54
-42.17
-38.47
-31.38
-21.51
-10.00
1.74
12.42
21.08
27.22
30.74
31.79
30.73
28.04
24.28
20.09
16.10
12.79
10.50
9.36
9.30
10.07
11.28
12.42
13.00
12.70
11.47
9.56
7.31
5.05
2.87
0.67
-1.79
-4.68
-8.09
-12.02
-16.43
-21.27
-26.41
-31.56
-36.12
-39.24
-40.00
-37.69
-32.14
-23.79
-13.66
-2.98
7.02
15.46
21.82
25.90
27.69
27.34
25.14
21.57
17.34
13.27
10.14
8.46
8.33
9.48
11.34
13.30
14.77
15.42
15.08
13.82
11.81
9.26
6.31
3.06
-0.45
-4.23
-8.31
-12.77
-17.67
-23.08
-28.89
-34.79
-40.17
-44.22
-46.04
-44.88
-40.35
-32.57
-22.16
-10.23
1.92
13.00
21.99
28.28
31.69
32.38
30.78
27.42
22.94
18.00
13.25
9.29
6.49
4.98
4.60
5.01
5.77
6.45
6.69
6.27
5.09
3.14
0.52
-2.61
-6.07
-9.72
-13.43
-17.20
-21.19
-25.67
-30.89
-36.84
-43.05
-48.54
-52.04
-52.33
-48.70
-41.19
-30.62
-18.27
-5.53
6.45
16.85
25.13
30.96
34.13
34.60
32.64
28.86
24.19
19.61
15.97
13.73
12.96
13.37
14.50
15.90
17.12
17.84
17.79
16.74
14.62
11.49
7.56
3.17
-1.33
-5.71
-9.85
-13.88
-18.12
-22.94
-28.63
-35.13
-41.83
-47.64
-51.21
-51.34
-47.34
-39.33
-28.15
-15.14
-1.82
10.48
20.79
28.51
33.47
35.73
35.64
33.74
30.68
27.13
23.76
21.04
19.22
18.36
18.28
18.77
19.53
20.32
20.83
20.82
20.06
18.41
15.92
12.75
9.20
5.51
1.87
-1.74
-5.49
-9.73
-14.82
-21.00
-28.17
-35.77
-42.73
-47.78
-49.70
-47.71
-41.72
-32.32
-20.63
-7.98
4.30
15.16
23.87
29.97
33.37
34.28
33.13
30.58
27.35
24.14
21.47
19.65
18.77
18.76
19.41
20.46
21.62
22.63
23.26
23.29
22.55
20.92
18.40
15.05
11.10
6.82
2.50
-1.74
-6.00
-10.61
-16.00
-22.40
-29.70
-37.25
-43.95
-48.47
-49.67
-46.90
-40.21
-30.31
-18.43
-5.93
5.90
16.05
23.85
28.95
31.33
31.24
29.19
25.85
21.94
18.14
14.95
12.69
11.51
11.40
12.25
13.78
15.64
17.38
18.61
19.02
18.45
16.84
14.28
10.92
7.00
2.79
-1.49
-5.76
-10.14
-14.99
-20.69
-27.57
-35.53
-43.96
-51.71
-57.23
-59.05
-56.16
-48.39
-36.50
-21.97
-6.62
7.86
20.28
30.03
36.97
41.25
43.05
42.66
40.50
37.18
33.51
30.21
27.76
26.18
25.14
24.19
23.02
21.69
20.48
19.70
19.34
19.02
18.11
16.05
12.66
8.20
3.28
-1.48
-5.66
-9.27
-12.60
-16.17
-20.50
-25.94
-32.49
-39.71
-46.69
-52.19
-54.90
-53.83
-48.62
-39.59
-27.71
-14.30
-0.72
11.76
22.19
29.93
34.73
36.75
36.45
34.59
31.95
29.27
27.09
25.73
25.31
25.74
26.72
27.85
28.71
29.07
28.89
28.34
27.57
26.53
24.93
22.38
18.62
13.70
8.09
2.43
-2.72
-7.14
-11.00
-14.78
-18.97
-23.96
-29.86
-36.51
-43.48
-50.04
-55.26
-58.10
-57.67
-53.49
-45.74
-35.25
-23.27
-11.12
0.13
9.81
17.54
23.04
26.06
26.47
24.42
20.50
15.78
11.37
8.21
6.67
6.49
6.99
7.36
7.06
5.88
4.04
1.92
-0.06
-1.61
-2.61
-3.06
-3.00
-2.49
-1.66
-0.55
0.87
2.89
5.98
10.59
16.66
23.41
29.25
32.28
31.10
25.59
17.21
8.57
2.56
1.29
5.42
14.16
25.71
37.98
49.15
58.00
63.93
66.71
66.43
63.32
57.84
50.62
42.51
34.44
27.25
21.58
17.71
15.53
14.59
14.29
14.03
13.38
12.18
10.53
8.68
6.86
5.13
3.36
1.26
-1.43
-4.77
-8.60
-12.50
-16.03
-18.91
-21.15
-23.08
-25.21
-28.04
-31.90
-36.83
-42.54
-48.48
-53.84
-57.70
-59.10
-57.34
-52.08
-43.55
-32.55
-20.26
-7.97
3.24
12.60
19.74
24.55
27.09
27.51
26.13
23.48
20.34
17.55
15.82
15.52
16.63
18.76
21.34
23.84
25.81
27.01
27.33
26.75
25.28
22.98
19.90
16.08
11.58
6.59
1.34
-3.81
-8.54
-12.67
-16.27
-19.65
-23.24
-27.48
-32.66
-38.78
-45.49
-52.05
-57.39
-60.32
-59.85
-55.44
-47.27
-36.25
-23.72
-11.15
0.30
9.89
17.33
22.64
25.93
27.35
27.14
25.59
23.24
20.67
18.54
17.31
17.18
18.05
19.57
21.36
23.07
24.48
25.44
25.88
25.65
24.68
22.99
20.60
17.65
14.22
10.35
6.07
1.52
-3.06
-7.36
-11.10
-14.22
-16.92
-19.61
-22.79
-26.89
-32.12
-38.21
-44.44
-49.61
-52.35
-51.47
-46.42
-37.53
-25.84
-12.84
0.00
11.55
21.06
28.18
32.79
34.99
35.04
33.38
30.60
27.37
24.30
21.90
20.45
20.08
20.72
22.12
23.89
25.60
26.83
27.30
26.95
25.87
24.29
22.36
20.17
17.64
14.65
11.05
6.88
2.35
-2.29
-6.76
-10.88
-14.65
-18.21
-21.79
-25.62
-29.86
-34.55
-39.50
-44.31
-48.31
-50.65
-50.52
-47.33
-40.97
-31.94
-21.24
-10.05
0.51
9.68
17.03
22.37
25.63
26.81
26.01
23.63
20.26
16.71
13.74
11.81
11.15
11.61
12.84
14.43
15.94
17.04
17.52
17.34
16.56
15.32
13.75
11.90
9.74
7.23
4.35
1.13
-2.32
-5.90
-9.50
-13.07
-16.60
-20.14
-23.76
-27.64
-31.97
-36.84
-42.07
-47.07
-50.87
-52.31
-50.40
-44.73
-35.64
-24.22
-11.90
-0.16
9.89
17.61
22.78
25.49
26.03
24.81
22.35
19.25
16.14
13.58
11.92
11.27
11.46
12.15
12.97
13.69
14.24
14.71
15.17
15.60
15.75
15.23
13.72
11.16
7.72
3.80
-0.15
-3.81
-7.06
-9.93
-12.59
-15.26
-18.21
-21.71
-26.00
-31.14
-36.98
-42.92
-48.04
-51.23
-51.48
-48.21
-41.45
-31.90
-20.70
-9.11
1.78
11.23
18.83
24.40
27.87
29.24
28.67
26.50
23.31
19.77
16.56
14.17
12.82
12.48
12.97
14.01
15.35
16.80
18.18
19.41
20.31
20.76
20.53
19.44
17.43
14.53
10.94
6.92
2.77
-1.29
-5.14
-8.77
-12.28
-15.85
-19.74
-24.22
-29.47
-35.39
-41.46
-46.78
-50.21
-50.75
-47.78
-41.31
-31.97
-20.78
-8.94
2.44
12.53
20.73
26.70
30.28
31.48
30.50
27.79
24.00
19.91
16.30
13.75
12.56
12.61
13.51
14.72
15.79
16.47
16.73
16.69
16.49
16.14
15.50
14.36
12.48
9.71
6.13
1.98
-2.35
-6.44
-10.00
-13.00
-15.77
-18.83
-22.72
-27.66
-33.43
-39.27
-44.09
-46.76
-46.51
-43.05
-36.63
-27.91
-17.74
-7.03
3.36
12.63
20.16
25.44
28.23
28.62
27.02
24.03
20.37
16.67
13.39
10.86
9.22
8.51
8.67
9.51
10.72
11.92
12.72
12.77
11.87
10.01
7.33
4.09
0.57
-2.98
-6.44
-9.80
-13.17
-16.67
-20.41
-24.47
-28.92
-33.78
-38.93
-43.97
-48.15
-50.50
-50.02
-46.14
-38.89
-28.98
-17.57
-5.98
4.69
13.64
20.40
24.74
26.68
26.41
24.40
21.28
17.69
14.20
11.24
9.04
7.72
7.29
7.66
8.66
9.99
11.33
12.36
12.80
12.43
11.15
8.92
5.83
2.11
-1.92
-5.92
-9.69
-13.29
-16.96
-21.12
-26.16
-32.20
-39.01
-45.84
-51.59
-54.91
-54.70
-50.39
-42.24
-31.25
-18.86
-6.53
4.59
13.82
20.80
25.38
27.47
27.15
24.76
21.00
16.74
12.87
10.00
8.40
7.96
8.38
9.29
10.37
11.42
12.31
12.94
13.18
12.82
11.61
9.37
6.10
2.04
-2.41
-6.81
-10.93
-14.82
-18.78
-23.23
-28.54
-34.83
-41.94
-49.27
-55.82
-60.29
-61.39
-58.29
-50.98
-40.36
-27.89
-15.12
-3.12
7.67
17.26
25.75
32.98
38.62
42.41
44.51
45.45
45.94
46.48
47.13
47.63
47.72
47.50
47.44
48.14
49.79
51.86
53.18
52.43
48.75
42.11
33.34
23.69
14.25
5.58
-2.34
-9.87
-17.33
-24.75
-31.93
-38.60
-44.52
-49.47
-53.04
-54.63
-53.49
-49.11
-41.52
-31.44
-20.11
-8.84
1.32
9.76
16.21
20.53
22.62
22.43
20.17
16.42
12.06
8.04
5.12
3.67
3.71
4.98
7.13
9.69
12.24
14.28
15.45
15.44
14.20
11.83
8.54
4.64
0.47
-3.75
-7.89
-12.02
-16.38
-21.30
-27.01
-33.47
-40.13
-45.99
-49.88
-50.66
-47.62
-40.67
-30.44
-18.12
-5.19
6.90
17.02
24.46
29.04
30.95
30.58
28.42
25.01
20.92
16.80
13.26
10.81
9.67
9.72
10.54
11.62
12.51
12.88
12.60
11.69
10.22
8.34
6.16
3.73
1.06
-1.93
-5.32
-9.17
-13.51
-18.32
-23.65
-29.46
-35.54
-41.31
-45.77
-47.76
-46.28
-40.89
-31.98
-20.66
-8.41
3.35
13.55
21.58
27.21
30.42
31.31
30.19
27.54
24.03
20.42
17.38
15.32
14.35
14.31
14.89
15.76
16.66
17.42
17.97
18.19
17.95
17.03
15.25
12.53
9.03
5.06
0.97
-3.06
-7.13
-11.53
-16.60
-22.51
-29.05
-35.60
-41.22
-44.82
-45.47
-42.61
-36.28
-27.10
-16.13
-4.60
6.41
16.09
23.97
29.79
33.38
34.72
33.89
31.30
27.56
23.43
19.69
16.91
15.39
15.16
15.97
17.41
18.98
20.17
20.59
20.01
18.42
15.99
13.02
9.82
6.59
3.42
0.21
-3.25
-7.26
-12.08
-17.91
-24.68
-31.92
-38.79
-44.10
-46.57
-45.22
-39.76
-30.71
-19.34
-7.22
4.23
14.02
21.70
27.17
30.50
31.75
31.02
28.55
24.80
20.46
16.30
13.03
11.07
10.53
11.17
12.50
13.94
14.93
15.07
14.13
12.09
9.14
5.52
1.51
-2.68
-6.95
-11.35
-15.99
-21.06
-26.70
-32.93
-39.58
-46.15
-51.85
-55.64
-56.55
-53.85
-47.35
-37.50
-25.31
-12.11
0.74
12.08
21.11
27.38
30.85
31.79
30.80
28.64
26.12
23.89
22.35
21.56
21.40
21.60
21.96
22.37
22.79
23.19
23.46
23.34
22.50
20.62
17.51
13.20
7.99
2.35
-3.22
-8.35
-12.94
-17.23
-21.72
-26.95
-33.20
-40.26
-47.23
-52.72
-55.20
-53.48
-47.15
-36.77
-23.69
-9.62
3.83
15.54
24.88
31.66
35.85
37.54
36.98
34.67
31.41
28.11
25.57
24.15
23.76
23.97
24.36
24.67
24.91
25.15
25.39
25.45
24.94
23.51
20.99
17.49
13.35
9.03
4.88
1.12
-2.24
-5.42
-8.75
-12.61
-17.36
-23.16
-29.92
-37.13
-43.91
-49.10
-51.54
-50.33
-45.13
-36.32
-24.91
-12.31
0.07
11.04
19.84
26.15
29.93
31.40
30.87
28.80
25.78
22.44
19.43
17.28
16.27
16.43
17.56
19.31
21.26
23.06
24.49
25.43
25.81
25.53
24.46
22.40
19.23
15.02
10.04
4.79
-0.21
-4.58
-8.28
-11.65
-15.29
-19.81
-25.56
-32.42
-39.72
-46.38
-51.12
-52.89
-51.01
-45.39
-36.60
-25.64
-13.71
-2.03
8.40
16.92
23.15
26.97
28.46
27.89
25.77
22.70
19.40
16.50
14.46
13.44
13.39
14.06
15.20
16.62
18.15
19.65
20.86
21.45
21.07
19.45
16.54
12.55
7.91
3.12
-1.39
-5.41
-9.06
-12.70
-16.83
-21.87
-27.94
-34.77
-41.63
-47.42
-50.97
-51.26
-47.82
-40.87
-31.20
-20.04
-8.61
2.04
11.19
18.37
23.22
25.54
25.32
22.94
19.11
14.85
11.08
8.40
6.99
6.68
7.16
8.17
9.54
11.14
12.80
14.28
15.25
15.42
14.54
12.44
9.12
4.83
-0.02
-4.82
-9.06
-12.53
-15.42
-18.31
-21.95
-26.91
-33.32
-40.74
-48.20
-54.47
-58.30
-58.67
-55.07
-47.64
-37.14
-24.87
-12.26
-0.66
9.05
16.45
21.55
24.59
25.92
25.88
24.81
23.05
21.05
19.23
17.92
17.27
17.23
17.58
18.07
18.48
18.68
18.54
17.90
16.59
14.46
11.53
7.97
4.07
0.11
-3.80
-7.71
-11.70
-15.78
-19.89
-23.92
-27.92
-31.99
-36.16
-40.14
-43.26
-44.58
-43.26
-38.79
-31.17
-20.78
-8.21
5.84
20.49
34.62
46.96
56.31
61.89
63.59
61.97
58.04
52.93
47.62
42.82
38.96
36.20
34.40
33.22
32.14
30.70
28.65
25.98
22.88
19.58
16.19
12.66
8.83
4.57
-0.05
-4.81
-9.39
-13.52
-17.14
-20.44
-23.73
-27.35
-31.60
-36.57
-42.19
-48.03
-53.39
-57.33
-58.79
-56.96
-51.51
-42.78
-31.67
-19.45
-7.42
3.38
12.21
18.66
22.59
24.04
23.30
20.89
17.53
14.01
11.03
8.97
7.91
7.64
7.84
8.29
8.87
9.58
10.35
11.03
11.32
10.95
9.71
7.57
4.68
1.23
-2.52
-6.39
-10.24
-14.06
-18.01
-22.40
-27.59
-33.69
-40.38
-46.77
-51.59
-53.53
-51.69
-45.89
-36.65
-25.10
-12.59
-0.43
10.31
18.91
24.95
28.35
29.28
28.17
25.58
22.20
18.63
15.44
13.07
11.83
11.83
12.94
14.80
16.92
18.72
19.73
19.63
18.25
15.60
11.85
7.25
2.19
-2.91
-7.72
-12.05
-16.02
-19.93
-24.24
-29.34
-35.36
-42.06
-48.75
-54.35
-57.60
-57.43
-53.24
-45.17
-34.03
-21.12
-7.86
4.48
14.99
23.16
28.77
31.89
32.75
31.77
29.52
26.60
23.63
21.05
19.18
18.12
17.82
18.09
18.70
19.38
19.90
20.05
19.64
18.55
16.67
13.95
10.46
6.35
1.88
-2.69
-7.11
-11.33
-15.50
-19.98
-25.15
-31.24
-38.06
-44.90
-50.58
-53.79
-53.41
-48.94
-40.58
-29.28
-16.36
-3.27
8.76
18.80
26.29
30.95
32.81
32.16
29.59
25.90
21.89
18.37
15.85
14.61
14.63
15.70
17.46
19.49
21.37
22.75
23.35
22.95
21.45
18.87
15.40
11.31
6.93
2.61
-1.46
-5.21
-8.80
-12.58
-16.93
-22.26
-28.64
-35.67
-42.45
-47.63
-49.80
-47.94
-41.78
-31.88
-19.51
-6.24
6.42
17.29
25.66
31.21
33.95
34.11
32.14
28.59
24.13
19.46
15.25
12.05
10.23
9.93
11.01
13.11
15.74
18.34
20.38
21.46
21.37
20.03
17.49
13.89
9.49
4.51
-0.81
-6.29
-11.90
-17.74
-24.00
-30.83
-38.12
-45.32
-51.43
-55.17
-55.36
-51.34
-43.22
-31.89
-18.80
-5.53
6.60
16.74
24.55
30.00
33.12
33.94
32.56
29.27
24.70
19.74
15.38
12.39
11.10
11.35
12.67
14.36
15.86
16.74
16.68
15.53
13.26
9.95
5.84
1.30
-3.31
-7.74
-11.94
-16.07
-20.49
-25.63
-31.72
-38.69
-45.99
-52.57
-57.11
-58.29
-55.21
-47.79
-36.71
-23.31
-9.18
4.22
15.81
24.90
31.16
34.49
35.07
33.38
30.19
26.46
23.06
20.61
19.28
18.95
19.29
20.02
20.96
22.04
23.17
24.15
24.67
24.32
22.82
20.07
16.24
11.71
6.92
2.14
-2.51
-7.21
-12.26
-18.00
-24.61
-32.00
-39.66
-46.67
-51.74
-53.64
-51.44
-44.92
-34.69
-21.98
-8.26
5.06
16.86
26.35
33.02
36.61
37.16
35.17
31.52
27.28
23.45
20.64
19.01
18.40
18.57
19.36
20.76
22.61
24.53
25.89
26.00
24.43
21.22
16.80
11.83
6.89
2.27
-2.01
-6.04
-9.95
-13.89
-18.08
-22.82
-28.33
-34.51
-40.70
-45.68
-47.96
-46.31
-40.27
-30.39
-18.05
-5.04
7.03
17.10
24.74
29.89
32.67
33.17
31.57
28.27
23.93
19.45
15.64
13.13
12.13
12.52
13.98
16.09
18.42
20.51
21.84
21.92
20.40
17.19
12.55
6.95
0.97
-4.86
-10.21
-14.98
-19.25
-23.33
-27.61
-32.52
-38.27
-44.71
-51.11
-56.23
-58.62
-57.06
-51.01
-40.82
-27.70
-13.29
0.74
13.05
22.81
29.67
33.58
34.71
33.41
30.21
25.88
21.33
17.46
14.90
13.87
14.11
15.10
16.30
17.33
18.13
18.79
19.40
19.83
19.75
18.73
16.51
13.10
8.84
4.23
-0.28
-4.50
-8.60
-12.98
-18.10
-24.27
-31.45
-39.14
-46.38
-51.89
-54.45
-53.13
-47.62
-38.38
-26.46
-13.34
-0.47
10.97
20.21
26.91
31.01
32.71
32.33
30.36
27.38
24.04
20.92
18.47
16.98
16.52
17.04
18.31
20.06
21.94
23.58
24.63
24.88
24.18
22.53
19.97
16.53
12.37
7.65
2.66
-2.30
-6.99
-11.40
-15.67
-20.19
-25.34
-31.33
-38.07
-45.01
-51.20
-55.44
-56.60
-53.85
-47.11
-37.04
-24.98
-12.54
-1.20
8.10
14.97
19.48
21.93
22.66
21.98
20.31
18.22
16.42
15.63
16.42
19.02
23.28
28.77
34.88
41.00
46.59
51.19
54.40
55.80
55.04
52.00
46.88
40.23
32.92
25.81
19.57
14.40
10.01
5.81
1.06
-4.77
-11.95
-20.35
-29.52
-38.67
-46.80
-52.73
-55.38
-54.03
-48.59
-39.73
-28.66
-16.91
-5.91
3.35
10.35
14.95
17.26
17.46
15.87
12.98
9.45
6.08
3.65
2.65
3.22
5.11
7.80
10.69
13.28
15.25
16.47
16.94
16.63
15.47
13.37
10.30
6.42
2.07
-2.28
-6.24
-9.61
-12.49
-15.24
-18.36
-22.29
-27.30
-33.29
-39.77
-45.86
-50.43
-52.39
-50.92
-45.78
-37.33
-26.51
-14.56
-2.78
7.69
16.06
21.91
25.15
25.98
24.81
22.20
18.81
15.35
12.44
10.57
9.95
10.48
11.84
13.59
15.37
16.94
18.22
19.12
19.46
18.95
17.25
14.14
9.66
4.12
-1.97
-8.06
-13.66
-18.53
-22.65
-26.24
-29.70
-33.52
-38.10
-43.50
-49.26
-54.40
-57.63
-57.66
-53.74
-45.83
-34.75
-21.85
-8.68
3.44
13.61
21.41
26.74
29.70
30.49
29.47
27.13
24.15
21.21
18.92
17.61
17.35
17.93
19.01
20.27
21.45
22.45
23.28
23.92
24.32
24.22
23.24
21.03
17.46
12.78
7.56
2.49
-1.96
-5.71
-9.11
-12.70
-16.97
-22.14
-28.14
-34.56
-40.81
-46.09
-49.53
-50.27
-47.71
-41.75
-32.86
-22.02
-10.43
0.72
10.59
18.65
24.64
28.45
30.05
29.57
27.34
23.97
20.23
16.89
14.57
13.53
13.71
14.73
16.16
17.57
18.73
19.53
20.02
20.20
19.96
19.06
17.23
14.36
10.63
6.48
2.47
-0.97
-3.81
-6.35
-9.12
-12.57
-16.97
-22.28
-28.29
-34.67
-40.84
-46.02
-49.14
-49.14
-45.35
-37.84
-27.50
-15.84
-4.47
5.42
13.13
18.50
21.60
22.60
21.68
19.17
15.65
11.88
8.66
6.52
5.73
6.18
7.55
9.46
11.51
13.37
14.74
15.39
15.11
13.81
11.54
8.44
4.76
0.79
-3.18
-6.93
-10.40
-13.71
-17.12
-20.93
-25.40
-30.63
-36.46
-42.43
-47.82
-51.67
-53.03
-51.15
-45.78
-37.20
-26.25
-14.12
-2.10
8.64
17.24
23.17
26.28
26.74
25.07
22.02
18.40
15.04
12.49
11.05
10.72
11.31
12.48
13.88
15.21
16.22
16.78
16.75
16.07
14.68
12.53
9.66
6.14
2.12
-2.20
-6.64
-11.05
-15.45
-20.02
-25.11
-31.04
-37.86
-45.22
-52.22
-57.55
-59.88
-58.25
-52.40
-42.86
-30.79
-17.62
-4.72
6.81
16.26
23.21
27.53
29.27
28.75
26.50
23.26
19.82
16.91
15.02
14.31
14.71
15.93
17.68
19.67
21.69
23.49
24.84
25.49
25.19
23.77
21.23
17.68
13.38
8.63
3.77
-0.99
-5.54
-9.99
-14.58
-19.62
-25.39
-31.90
-38.75
-45.11
-49.77
-51.52
-49.49
-43.44
-33.98
-22.32
-9.97
1.70
11.69
19.49
24.85
27.75
28.29
26.75
23.67
19.82
16.10
13.27
11.79
11.73
12.81
14.55
16.51
18.34
19.83
20.86
21.30
21.04
19.92
17.85
14.83
11.02
6.74
2.36
-1.78
-5.54
-8.97
-12.42
-16.31
-21.07
-26.91
-33.54
-40.23
-45.78
-48.86
-48.36
-43.80
-35.51
-24.62
-12.68
-1.23
8.57
16.10
21.25
24.13
24.96
23.99
21.53
18.09
14.36
11.10
8.91
8.11
8.67
10.28
12.55
15.01
17.21
18.72
19.18
18.37
16.25
12.97
8.86
4.35
-0.17
-4.42
-8.34
-12.06
-15.90
-20.30
-25.62
-31.94
-38.90
-45.62
-50.83
-53.25
-51.96
-46.66
-37.79
-26.39
-13.83
-1.47
9.58
18.50
24.86
28.46
29.45
28.19
25.33
21.65
17.95
14.87
12.81
11.88
11.98
12.81
14.07
15.48
16.84
17.91
18.47
18.22
16.90
14.36
10.68
6.19
1.37
-3.34
-7.67
-11.63
-15.53
-19.86
-25.14
-31.67
-39.29
-47.26
-54.27
-58.74
-59.29
-55.15
-46.48
-34.23
-19.98
-5.43
7.99
19.24
27.80
33.46
36.35
36.84
35.50
33.07
30.31
27.85
26.14
25.33
25.33
25.90
26.79
27.74
28.54
28.96
28.76
27.70
25.61
22.43
18.29
13.45
8.30
3.20
-1.54
-5.79
-9.67
-13.48
-17.70
-22.79
-28.95
-35.99
-43.20
-49.41
-53.25
-53.51
-49.53
-41.39
-29.94
-16.61
-2.98
9.55
20.05
28.04
33.43
36.35
37.00
35.73
33.06
29.70
26.46
24.03
22.79
22.72
23.51
24.68
25.81
26.62
26.96
26.74
25.91
24.37
22.06
18.97
15.21
11.02
6.73
2.72
-0.76
-3.70
-6.44
-9.52
-13.51
-18.79
-25.33
-32.65
-39.83
-45.62
-48.74
-48.15
-43.35
-34.66
-23.15
-10.37
2.06
12.90
21.48
27.58
31.22
32.46
31.40
28.37
24.01
19.31
15.29
12.78
12.10
13.01
15.00
17.41
19.76
21.78
23.29
24.14
24.17
23.18
21.07
17.92
13.96
9.54
4.96
0.40
-4.10
-8.61
-13.25
-18.17
-23.53
-29.45
-35.85
-42.31
-48.01
-51.79
-52.48
-49.35
-42.32
-32.08
-19.91
-7.21
4.79
15.22
23.54
29.46
32.81
33.61
32.12
28.90
24.83
20.87
17.93
16.51
16.68
18.07
20.04
21.91
23.25
23.88
23.84
23.32
22.38
20.89
18.63
15.41
11.25
6.42
1.42
-3.35
-7.66
-11.60
-15.50
-19.78
-24.81
-30.75
-37.51
-44.65
-51.30
-56.32
-58.43
-56.60
-50.41
-40.28
-27.40
-13.40
0.14
12.06
21.69
28.83
33.43
35.54
35.23
32.88
29.18
25.11
21.75
19.86
19.72
20.97
22.94
24.91
26.42
27.39
27.96
28.29
28.33
27.83
26.40
23.76
19.86
14.91
9.31
3.48
-2.21
-7.59
-12.59
-17.35
-22.11
-27.17
-32.86
-39.28
-46.29
-53.28
-59.30
-63.15
-63.78
-60.57
-53.52
-43.26
-30.87
-17.50
-4.19
8.31
19.43
28.67
35.57
39.83
41.46
40.92
39.17
37.36
36.52
37.22
39.48
42.86
46.74
50.59
54.00
56.66
58.25
58.43
56.91
53.62
48.82
42.95
36.53
29.92
23.22
16.37
9.28
2.04
-5.06
-11.67
-17.51
-22.64
-27.37
-32.21
-37.55
-43.40
-49.29
-54.31
-57.35
-57.42
-54.03
-47.22
-37.64
-26.37
-14.62
-3.55
5.91
13.15
17.83
19.90
19.59
17.37
13.90
10.01
6.51
4.06
3.07
3.61
5.44
8.10
11.00
13.60
15.53
16.73
17.34
17.55
17.42
16.76
15.27
12.69
9.02
4.64
0.13
-4.00
-7.49
-10.51
-13.50
-16.98
-21.36
-26.76
-32.94
-39.30
-44.98
-48.91
-50.14
-47.95
-42.14
-33.12
-21.82
-9.44
2.76
13.68
22.54
28.83
32.29
32.95
31.08
27.29
22.43
17.51
13.43
10.86
10.02
10.63
12.14
13.88
15.31
16.21
16.62
16.65
16.37
15.62
14.03
11.27
7.14
1.86
-4.07
-9.98
-15.31
-19.75
-23.33
-26.32
-29.16
-32.36
-36.31
-41.21
-46.83
-52.45
-56.91
-58.90
-57.36
-51.81
-42.58
-30.60
-17.20
-3.71
8.71
19.21
27.22
32.41
34.78
34.58
32.34
28.73
24.45
20.22
16.65
14.23
13.22
13.58
14.94
16.71
18.36
19.49
20.05
20.20
20.12
19.83
19.12
17.65
15.13
11.50
6.97
1.99
-2.92
-7.39
-11.26
-14.71
-18.15
-22.04
-26.76
-32.42
-38.73
-45.00
-50.22
-53.21
-52.95
-48.87
-41.12
-30.56
-18.52
-6.41
4.63
13.94
21.30
26.64
29.93
31.13
30.25
27.57
23.69
19.44
15.60
12.82
11.39
11.32
12.37
14.15
16.19
18.05
19.41
20.11
20.11
19.44
18.04
15.78
12.58
8.57
4.11
-0.26
-4.08
-7.22
-9.93
-12.64
-15.80
-19.58
-23.95
-28.71
-33.61
-38.38
-42.61
-45.63
-46.57
-44.64
-39.42
-31.11
-20.58
-9.10
2.01
11.71
19.35
24.66
27.53
28.02
26.31
22.83
18.28
13.52
9.43
6.65
5.45
5.71
7.08
9.10
11.35
13.52
15.34
16.55
16.86
16.03
13.96
10.78
6.83
2.58
-1.45
-4.90
-7.67
-9.92
-12.03
-14.47
-17.63
-21.73
-26.76
-32.39
-38.02
-42.73
-45.52
-45.52
-42.24
-35.81
-26.85
-16.45
-5.72
4.36
13.06
19.86
24.38
26.37
25.84
23.15
19.04
14.47
10.30
7.13
5.16
4.20
3.97
4.17
4.67
5.45
6.51
7.73
8.83
9.38
8.93
7.20
4.23
0.39
-3.79
-7.81
-11.47
-14.83
-18.13
-21.69
-25.72
-30.39
-35.71
-41.49
-47.18
-51.85
-54.35
-53.59
-49.06
-40.96
-30.24
-18.28
-6.49
4.10
12.88
19.61
24.25
26.77
27.27
25.89
23.03
19.29
15.45
12.26
10.31
9.82
10.66
12.38
14.46
16.43
18.03
19.12
19.63
19.46
18.41
16.29
12.98
8.61
3.48
-1.91
-7.13
-11.93
-16.30
-20.52
-24.99
-30.03
-35.82
-42.15
-48.42
-53.71
-56.90
-56.96
-53.25
-45.74
-35.06
-22.40
-9.16
3.35
14.16
22.67
28.60
31.87
32.65
31.28
28.42
24.95
21.77
19.58
18.70
19.05
20.21
21.70
23.17
24.39
25.29
25.83
25.92
25.44
24.25
22.23
19.35
15.70
11.49
7.04
2.66
-1.46
-5.33
-9.18
-13.39
-18.31
-24.14
-30.74
-37.59
-43.78
-48.17
-49.70
-47.70
-42.06
-33.31
-22.48
-10.78
0.61
10.76
19.02
24.92
28.25
29.00
27.47
24.23
20.07
15.82
12.24
9.88
9.00
9.57
11.24
13.51
15.87
17.94
19.57
20.71
21.36
21.35
20.43
18.37
15.08
10.79
5.99
1.21
-3.14
-6.96
-10.45
-14.01
-18.10
-23.01
-28.75
-34.84
-40.44
-44.36
-45.48
-43.07
-37.06
-28.05
-17.18
-5.75
5.04
14.31
21.51
26.33
28.62
28.47
26.23
22.58
18.34
14.35
11.23
9.28
8.51
8.77
9.82
11.47
13.44
15.38
16.84
17.35
16.64
14.67
11.66
8.00
4.08
0.11
-3.90
-8.11
-12.75
-18.05
-24.16
-31.08
-38.63
-46.36
-53.53
-59.09
-61.92
-61.08
-56.12
-47.28
-35.44
-21.93
-8.17
4.59
15.45
23.87
29.52
32.42
32.77
31.10
28.16
24.82
21.86
19.80
18.84
18.83
19.51
20.51
21.54
22.38
22.82
22.65
21.65
19.66
16.57
12.47
7.65
2.51
-2.46
-6.91
-10.70
-14.06
-17.45
-21.53
-26.82
-33.45
-40.92
-48.16
-53.65
-55.92
-53.92
-47.40
-36.95
-23.86
-9.73
3.86
15.72
25.13
31.85
35.84
37.27
36.41
33.70
29.82
25.67
22.09
19.74
18.83
19.14
20.18
21.49
22.81
24.07
25.23
26.08
26.26
25.30
22.93
19.29
14.81
10.14
5.77
1.91
-1.59
-5.14
-9.16
-14.00
-19.79
-26.47
-33.72
-40.95
-47.21
-51.39
-52.40
-49.55
-42.80
-32.81
-20.84
-8.33
3.47
13.75
22.09
28.38
32.55
34.56
34.47
32.59
29.58
26.36
23.88
22.82
23.36
25.20
27.65
29.98
31.62
32.31
32.01
30.87
29.03
26.59
23.56
19.95
15.86
11.41
6.81
2.24
-2.17
-6.48
-10.82
-15.45
-20.69
-26.74
-33.57
-40.73
-47.36
-52.25
-54.17
-52.23
-46.17
-36.53
-24.46
-11.43
1.14
12.20
21.05
27.36
30.99
32.04
30.82
27.93
24.15
20.41
17.54
16.03
15.99
17.15
18.99
20.95
22.61
23.74
24.29
24.25
23.61
22.25
20.12
17.26
13.82
10.09
6.27
2.45
-1.47
-5.68
-10.40
-15.76
-21.79
-28.39
-35.23
-41.70
-46.89
-49.76
-49.34
-45.09
-37.19
-26.47
-14.23
-1.90
9.27
18.37
24.92
28.77
30.03
29.05
26.37
22.66
18.72
15.31
13.03
12.12
12.50
13.74
15.28
16.68
17.65
18.19
18.34
18.08
17.26
15.62
12.92
9.12
4.46
-0.61
-5.61
-10.23
-14.50
-18.81
-23.77
-29.90
-37.37
-45.69
-53.83
-60.36
-63.79
-63.07
-57.78
-48.31
-35.69
-21.38
-6.91
6.38
17.52
26.01
31.71
34.76
35.41
34.05
31.22
27.66
24.22
21.73
20.74
21.29
22.99
25.14
27.01
28.18
28.58
28.42
27.94
27.15
25.77
23.39
19.65
14.59
8.66
2.56
-3.06
-7.91
-12.18
-16.35
-21.03
-26.60
-33.04
-40.00
-46.80
-52.58
-56.36
-57.25
-54.56
-48.03
-38.03
-25.54
-11.96
1.20
12.73
21.89
28.42
32.45
34.27
34.22
32.67
30.09
27.09
24.36
22.42
21.58
21.77
22.63
23.77
24.86
25.70
26.17
26.14
25.47
23.94
21.47
18.11
14.05
9.59
4.99
0.43
-4.01
-8.32
-12.63
-17.11
-21.95
-27.30
-33.10
-39.03
-44.46
-48.50
-50.19
-48.69
-43.65
-35.25
-24.32
-12.06
0.16
11.18
20.19
26.76
30.80
32.41
31.77
29.14
25.08
20.34
15.91
12.71
11.33
11.81
13.64
15.98
18.03
19.38
19.94
19.84
19.20
17.93
15.86
12.85
8.99
4.61
0.18
-3.94
-7.59
-10.83
-13.94
-17.30
-21.32
-26.37
-32.53
-39.49
-46.44
-52.11
-55.08
-54.29
-49.36
-40.77
-29.72
-17.77
-6.44
3.13
10.27
14.72
16.59
16.17
14.03
10.93
7.78
5.43
4.48
5.13
7.14
10.01
13.23
16.44
19.57
22.68
25.84
28.91
31.47
32.96
32.84
30.90
27.29
22.51
17.19
11.83
6.68
1.70
-3.34
-8.71
-14.64
-21.13
-27.96
-34.49
-39.75
-42.61
-42.10
-37.74
-29.89
-19.60
-8.38
2.26
11.19
17.80
21.94
23.78
23.57
21.67
18.53
14.72
10.91
7.71
5.59
4.72
4.97
6.01
7.36
8.63
9.49
9.74
9.28
8.06
6.06
3.37
0.09
-3.61
-7.51
-11.40
-15.20
-18.88
-22.63
-26.73
-31.52
-37.17
-43.55
-50.06
-55.60
-58.83
-58.49
-53.89
-45.14
-33.23
-19.71
-6.32
5.55
15.10
22.11
26.79
29.45
30.33
29.65
27.63
24.69
21.41
18.48
16.44
15.60
15.89
17.06
18.76
20.61
22.34
23.60
24.07
23.42
21.53
18.47
14.53
10.14
5.64
1.26
-2.98
-7.25
-11.82
-16.96
-22.90
-29.66
-36.91
-43.93
-49.61
-52.73
-52.26
-47.67
-39.18
-27.67
-14.52
-1.18
11.03
21.21
28.85
33.75
35.97
35.74
33.53
29.96
25.80
21.79
18.60
16.56
15.74
15.93
16.80
17.98
19.22
20.36
21.23
21.65
21.41
20.27
18.07
14.85
10.81
6.33
1.87
-2.31
-6.14
-9.84
-13.80
-18.41
-23.92
-30.33
-37.22
-43.73
-48.72
-50.94
-49.46
-43.96
-34.89
-23.37
-10.92
0.91
10.96
18.51
23.36
25.68
25.79
24.18
21.36
17.92
14.47
11.58
9.74
9.24
10.08
11.93
14.29
16.62
18.46
19.59
19.91
19.41
18.03
15.72
12.47
8.44
3.95
-0.65
-5.03
-9.08
-12.90
-16.77
-21.01
-25.86
-31.28
-36.81
-41.63
-44.69
-44.99
-41.93
-35.49
-26.26
-15.23
-3.59
7.53
17.19
24.65
29.46
31.48
30.91
28.23
24.18
19.58
15.22
11.69
9.42
8.51
8.85
10.16
12.12
14.36
16.51
18.14
18.78
18.00
15.58
11.56
6.42
0.77
-4.76
-9.82
-14.41
-18.79
-23.37
-28.56
-34.61
-41.42
-48.49
-54.86
-59.21
-60.22
-56.98
-49.35
-38.07
-24.56
-10.48
2.66
13.82
22.40
28.20
31.22
31.72
30.16
27.22
23.72
20.42
17.91
16.51
16.27
17.03
18.49
20.29
22.03
23.29
23.69
22.95
20.95
17.76
13.66
9.02
4.27
-0.29
-4.53
-8.54
-12.51
-16.72
-21.49
-27.07
-33.53
-40.58
-47.45
-52.88
-55.47
-54.03
-48.13
-38.24
-25.65
-12.08
0.91
12.17
21.14
27.65
31.75
33.57
33.29
31.26
28.01
24.25
20.69
17.96
16.42
16.16
16.96
18.45
20.14
21.53
22.20
21.96
20.79
18.83
16.30
13.41
10.28
6.92
3.33
-0.47
-4.40
-8.38
-12.47
-16.92
-22.12
-28.31
-35.26
-42.11
-47.42
-49.58
-47.41
-40.68
-30.23
-17.68
-4.86
6.75
16.28
23.45
28.30
30.91
31.43
30.09
27.35
23.91
20.62
18.17
16.95
16.96
17.89
19.28
20.73
21.98
22.92
23.52
23.64
23.12
21.71
19.28
15.94
11.97
7.80
3.80
0.15
-3.21
-6.55
-10.25
-14.67
-20.01
-26.22
-32.87
-39.16
-44.04
-46.41
-45.46
-40.91
-33.12
-22.99
-11.71
-0.51
9.55
17.71
23.55
26.96
28.04
27.10
24.59
21.09
17.29
13.90
11.49
10.41
10.65
11.97
13.94
16.10
18.07
19.50
20.11
19.63
17.93
14.98
11.01
6.36
1.43
-3.43
-8.00
-12.19
-16.03
-19.76
-23.75
-28.40
-33.95
-40.15
-46.21
-50.86
-52.76
-50.85
-44.80
-35.12
-22.94
-9.78
2.83
13.57
21.55
26.39
28.15
27.33
24.66
21.03
17.25
14.03
11.92
11.17
11.78
13.44
15.65
17.85
19.58
20.56
20.68
19.89
18.17
15.52
12.02
7.89
3.42
-1.10
-5.53
-9.83
-14.08
-18.45
-23.12
-28.23
-33.94
-40.24
-46.79
-52.75
-56.89
-57.84
-54.68
-47.23
-36.24
-23.14
-9.53
3.22
14.22
23.01
29.40
33.27
34.57
33.49
30.50
26.49
22.47
19.41
17.86
17.89
19.12
20.91
22.70
24.08
24.88
25.11
24.75
23.71
21.84
18.99
15.15
10.53
5.49
0.45
-4.24
-8.46
-12.24
-15.86
-19.68
-24.12
-29.48
-35.71
-42.38
-48.50
-52.73
-53.70
-50.43
-42.79
-31.58
-18.35
-4.90
7.26
17.25
24.79
30.01
33.20
34.54
34.16
32.25
29.18
25.57
22.14
19.58
18.30
18.40
19.63
21.51
23.44
24.91
25.57
25.37
24.45
23.00
21.14
18.79
15.82
12.11
7.79
3.21
-1.19
-5.07
-8.42
-11.62
-15.25
-19.90
-25.85
-32.86
-40.11
-46.47
-50.64
-51.61
-48.83
-42.43
-33.12
-21.99
-10.26
1.04
11.06
19.18
24.92
28.01
28.36
26.30
22.50
17.94
13.60
10.27
8.40
8.06
9.00
10.82
13.08
15.40
17.50
19.18
20.34
20.85
20.61
19.47
17.38
14.42
10.83
6.97
3.16
-0.45
-3.90
-7.41
-11.33
-15.94
-21.49
-27.92
-34.80
-41.25
-46.10
-48.17
-46.65
-41.40
-32.94
-22.36
-10.96
0.09
9.89
17.85
23.59
26.92
27.76
26.28
22.96
18.53
13.89
9.87
7.09
5.82
5.96
7.18
8.99
10.97
12.78
14.22
15.12
15.30
14.56
12.74
9.82
5.96
1.53
-3.04
-7.33
-11.14
-14.45
-17.45
-20.50
-24.03
-28.39
-33.77
-39.99
-46.40
-51.88
-55.08
-54.82
-50.46
-42.21
-31.07
-18.51
-6.06
5.05
14.11
20.88
25.41
27.85
28.32
26.98
24.17
20.47
16.66
13.55
11.73
11.37
12.22
13.75
15.40
16.75
17.68
18.19
18.31
17.95
16.89
14.89
11.88
8.06
3.86
-0.28
-4.03
-7.35
-10.48
-13.81
-17.68
-22.37
-27.91
-34.15
-40.68
-46.74
-51.29
-53.15
-51.34
-45.43
-35.85
-23.77
-10.77
1.58
12.20
20.56
26.59
30.44
32.25
32.12
30.21
26.91
22.83
18.75
15.39
13.16
12.14
12.08
12.62
13.41
14.28
15.18
16.11
16.92
17.36
17.09
15.79
13.29
9.76
5.56
1.16
-2.99
-6.70
-10.01
-13.19
-16.68
-20.90
-26.13
-32.37
-39.13
-45.46
-50.09
-51.71
-49.44
-43.14
-33.51
-21.86
-9.73
1.53
11.04
18.33
23.25
25.80
26.08
24.37
21.13
17.00
12.78
9.20
6.83
6.00
6.65
8.50
11.03
13.68
15.95
17.59
18.50
18.70
18.18
16.86
14.61
11.43
7.54
3.36
-0.65
-4.23
-7.48
-10.79
-14.70
-19.56
-25.42
-31.95
-38.50
-44.21
-48.07
-49.15
-46.74
-40.60
-31.14
-19.38
-6.76
5.23
15.40
23.05
28.02
30.39
30.45
28.56
25.15
20.81
16.27
12.28
9.39
7.89
7.68
8.46
9.75
11.15
12.28
12.86
12.67
11.55
9.44
6.41
2.64
-1.68
-6.26
-10.81
-15.12
-19.18
-23.25
-27.81
-33.43
-40.32
-48.14
-55.81
-61.77
-64.44
-62.73
-56.44
-46.29
-33.64
-20.07
-7.03
4.45
13.76
20.63
25.03
27.08
27.00
25.17
22.12
18.55
15.17
12.68
11.53
11.88
13.57
16.15
19.02
21.54
23.13
23.44
22.34
19.96
16.56
12.51
8.16
3.74
-0.64
-5.02
-9.53
-14.41
-19.88
-26.09
-33.01
-40.31
-47.28
-52.89
-55.95
-55.47
-50.94
-42.50
-31.00
-17.76
-4.22
8.36
19.06
27.29
32.71
35.20
34.90
32.28
28.15
23.55
19.45
16.54
15.10
14.98
15.80
17.12
18.57
19.95
21.08
21.81
21.97
21.36
19.85
17.46
14.38
10.85
7.10
3.20
-0.97
-5.62
-10.99
-17.20
-24.18
-31.61
-38.88
-45.03
-48.98
-49.66
-46.38
-39.13
-28.62
-16.15
-3.26
8.68
18.69
26.28
31.33
33.99
34.56
33.42
31.03
27.87
24.42
21.13
18.40
16.54
15.74
15.99
17.06
18.50
19.74
20.26
19.76
18.21
15.78
12.66
9.01
4.87
0.28
-4.67
-9.79
-14.90
-20.03
-25.33
-30.99
-36.89
-42.47
-46.69
-48.34
-46.53
-41.01
-32.24
-21.22
-9.16
2.77
13.63
22.71
29.46
33.58
35.04
34.09
31.31
27.41
23.14
19.19
16.12
14.29
13.76
14.33
15.53
16.78
17.52
17.40
16.31
14.35
11.73
8.71
5.49
2.13
-1.33
-4.98
-8.96
-13.51
-18.87
-25.19
-32.34
-39.70
-46.21
-50.50
-51.27
-47.76
-40.04
-29.02
-16.20
-3.16
8.78
18.79
26.44
31.56
34.08
34.10
31.90
28.03
23.30
18.57
14.58
11.85
10.54
10.57
11.62
13.22
14.80
15.83
15.89
14.74
12.36
8.94
4.73
-0.03
-5.17
-10.64
-16.41
-22.48
-28.89
-35.66
-42.73
-49.80
-56.19
-60.92
-62.77
-60.73
-54.29
-43.69
-29.91
-14.48
0.98
15.05
26.73
35.48
41.17
43.93
44.12
42.31
39.15
35.39
31.70
28.62
26.49
25.43
25.37
26.04
27.14
28.24
29.00
29.04
28.11
26.02
22.76
18.41
13.27
7.76
2.36
-2.54
-6.84
-10.80
-15.01
-20.11
-26.41
-33.59
-40.61
-45.89
-47.82
-45.30
-38.14
-27.16
-13.92
-0.25
12.30
22.66
30.38
35.42
37.95
38.21
36.49
33.23
29.06
24.78
21.19
18.87
18.02
18.39
19.47
20.71
21.76
22.52
23.06
23.40
23.39
22.68
20.94
18.08
14.33
10.18
6.09
2.28
-1.40
-5.39
-10.13
-15.91
-22.65
-29.88
-36.78
-42.28
-45.25
-44.75
-40.31
-32.13
-21.08
-8.48
4.21
15.75
25.32
32.47
37.07
39.17
38.96
36.83
33.35
29.29
25.50
22.72
21.39
21.55
22.87
24.74
26.51
27.65
27.89
27.22
25.73
23.58
20.88
17.71
14.14
10.34
6.47
2.67
-1.05
-4.75
-8.65
-12.96
-17.89
-23.52
-29.69
-36.03
-41.84
-46.15
-47.98
-46.48
-41.34
-32.87
-21.97
-9.90
1.95
12.46
20.80
26.56
29.69
30.38
29.07
26.40
23.09
19.83
17.22
15.57
14.96
15.19
15.97
16.93
17.81
18.34
18.36
17.75
16.43
14.44
11.92
9.06
6.09
3.10
0.03
-3.30
-7.10
-11.54
-16.70
-22.52
-28.84
-35.32
-41.46
-46.44
-49.27
-49.03
-45.17
-37.73
-27.48
-15.65
-3.59
7.55
17.01
24.44
29.62
32.43
32.82
30.95
27.34
22.84
18.49
15.16
13.37
13.05
13.80
15.03
16.26
17.18
17.71
17.84
17.45
16.37
14.41
11.52
7.89
3.81
-0.36
-4.44
-8.44
-12.57
-17.11
-22.27
-28.10
-34.50
-41.16
-47.50
-52.67
-55.67
-55.50
-51.56
-43.82
-32.99
-20.34
-7.37
4.60
14.58
22.08
26.95
29.29
29.41
27.70
24.73
21.19
17.80
15.22
13.83
13.70
14.57
16.02
17.64
19.17
20.47
21.53
22.28
22.54
22.04
20.52
17.96
14.52
10.62
6.67
2.94
-0.51
-3.88
-7.46
-11.54
-16.38
-22.17
-28.86
-36.08
-43.01
-48.41
-50.93
-49.55
-43.92
-34.58
-22.74
-9.90
2.48
13.32
21.94
27.99
31.39
32.24
30.89
27.87
23.97
19.99
16.68
14.49
13.55
13.57
14.09
14.56
14.67
14.37
13.86
13.35
12.90
12.30
11.15
9.14
6.20
2.61
-1.15
-4.67
-7.77
-10.55
-13.25
-16.10
-19.30
-22.97
-27.19
-31.97
-37.07
-41.82
-45.17
-45.92
-43.20
-36.75
-27.13
-15.58
-3.59
7.47
16.63
23.39
27.61
29.38
28.99
26.82
23.37
19.25
15.08
11.39
8.54
6.69
5.85
5.87
6.56
7.66
8.91
9.97
10.48
10.09
8.57
5.87
2.13
-2.31
-7.00
-11.49
-15.48
-18.95
-22.12
-25.43
-29.35
-34.22
-40.01
-46.19
-51.83
-55.73
-56.76
-54.19
-47.97
-38.75
-27.76
-16.46
-6.13
2.41
8.76
12.81
14.60
14.17
11.71
7.68
2.88
-1.67
-5.02
-6.57
-6.16
-4.02
-0.56
3.80
8.70
13.75
18.54
22.64
25.74
27.75
28.74
28.90
28.37
27.18
25.32
22.87
19.97
16.76
13.21
9.03
3.74
-2.93
-10.81
-19.03
-26.23
-30.94
-32.10
-29.46
-23.65
-15.84
-7.35
0.73
7.67
13.12
16.88
18.87
19.08
17.71
15.18
12.12
9.19
6.88
5.36
4.52
4.13
3.94
3.93
4.12
4.61
5.27
5.80
5.78
4.87
2.92
0.07
-3.30
-6.83
-10.23
-13.43
-16.49
-19.64
-23.13
-27.22
-32.07
-37.66
-43.68
-49.44
-53.91
-55.93
-54.58
-49.45
-40.79
-29.52
-16.94
-4.45
6.77
15.81
22.21
25.81
26.79
25.63
23.02
19.70
16.41
13.66
11.71
10.54
10.01
9.93
10.17
10.67
11.32
11.94
12.23
11.84
10.53
8.26
5.28
1.89
-1.58
-4.99
-8.37
-11.86
-15.66
-19.93
-24.77
-30.20
-36.05
-41.87
-46.90
-50.06
-50.34
-47.04
-40.10
-30.19
-18.50
-6.43
4.75
14.13
21.20
25.81
28.04
28.13
26.44
23.45
19.78
16.06
12.84
10.47
9.09
8.64
8.95
9.83
11.13
12.67
14.24
15.48
15.95
15.18
12.94
9.31
4.68
-0.37
-5.30
-9.90
-14.33
-19.01
-24.44
-30.87
-38.16
-45.67
-52.39
-57.10
-58.65
-56.22
-49.59
-39.28
-26.44
-12.63
0.50
11.69
20.11
25.53
28.09
28.25
26.64
23.88
20.62
17.40
14.66
12.68
11.63
11.53
12.27
13.62
15.21
16.57
17.29
17.13
16.06
14.18
11.69
8.66
5.14
1.15
-3.19
-7.68
-12.13
-16.49
-21.03
-26.12
-32.12
-38.97
-46.08
-52.30
-56.21
-56.60
-52.76
-44.82
-33.66
-20.68
-7.37
4.98
15.52
23.76
29.50
32.68
33.35
31.76
28.49
24.41
20.49
17.55
15.99
15.79
16.58
17.93
19.53
21.22
22.84
24.14
24.70
24.05
21.90
18.31
13.66
8.60
3.74
-0.55
-4.29
-7.78
-11.51
-15.92
-21.32
-27.70
-34.77
-41.79
-47.71
-51.29
-51.35
-47.18
-38.77
-26.93
-13.12
0.91
13.49
23.44
30.15
33.58
34.06
32.12
28.43
23.70
18.76
14.37
11.16
9.49
9.37
10.54
12.57
14.99
17.39
19.32
20.41
20.32
18.89
16.18
12.57
8.52
4.46
0.61
-3.08
-6.92
-11.31
-16.61
-23.05
-30.50
-38.37
-45.63
-50.88
-52.70
-50.09
-42.87
-31.80
-18.41
-4.49
8.32
18.88
26.65
31.51
33.66
33.42
31.20
27.48
22.87
18.07
13.85
10.86
9.53
9.93
11.76
14.44
17.17
19.22
20.05
19.44
17.43
14.25
10.20
5.53
0.41
-5.06
-10.75
-16.64
-22.77
-29.33
-36.54
-44.47
-52.68
-60.19
-65.49
-67.05
-63.82
-55.70
-43.56
-28.97
-13.73
0.65
13.15
23.18
30.45
34.79
36.22
35.07
32.06
28.18
24.48
21.86
20.82
21.42
23.38
26.18
29.19
31.80
33.50
33.91
32.85
30.30
26.45
21.58
16.06
10.17
4.21
-1.66
-7.39
-13.09
-19.01
-25.54
-32.97
-41.30
-50.00
-57.97
-63.66
-65.51
-62.40
-54.16
-41.61
-26.38
-10.42
4.51
17.23
27.17
34.32
38.89
41.18
41.52
40.27
37.94
35.15
32.55
30.66
29.73
29.72
30.35
31.28
32.25
33.13
33.82
34.25
34.14
33.13
30.88
27.20
22.23
16.43
10.39
4.64
-0.56
-5.34
-10.19
-15.71
-22.42
-30.35
-39.02
-47.26
-53.58
-56.43
-54.74
-48.14
-37.18
-23.12
-7.70
7.29
20.35
30.44
37.10
40.39
40.75
38.87
35.59
31.76
28.20
25.55
24.23
24.30
25.55
27.49
29.58
31.34
32.45
32.82
32.42
31.27
29.35
26.61
23.04
18.74
13.93
8.92
4.05
-0.46
-4.57
-8.42
-12.34
-16.77
-22.09
-28.50
-35.89
-43.67
-50.76
-55.82
-57.48
-54.84
-47.79
-37.03
-23.97
-10.26
2.58
13.48
21.82
27.37
30.15
30.42
28.66
25.60
22.13
19.08
17.03
16.19
16.42
17.36
18.68
20.09
21.47
22.67
23.45
23.45
22.32
19.86
16.16
11.60
6.73
2.06
-2.12
-5.81
-9.25
-12.78
-16.79
-21.62
-27.43
-34.08
-41.04
-47.32
-51.65
-52.79
-49.92
-42.97
-32.65
-20.27
-7.32
4.83
15.27
23.45
29.16
32.37
33.20
32.00
29.32
25.95
22.75
20.46
19.47
19.74
20.92
22.46
23.90
24.97
25.54
25.66
25.29
24.32
22.55
19.83
16.07
11.38
6.07
0.54
-4.81
-9.80
-14.49
-19.25
-24.58
-31.00
-38.70
-47.43
-56.35
-64.08
-69.06
-69.94
-66.00
-57.43
-45.29
-31.22
-16.99
-4.07
6.60
14.61
19.97
22.95
23.97
23.63
22.69
21.95
22.04
23.33
25.77
29.03
32.64
36.15
39.21
41.58
43.07
43.48
42.67
40.59
37.30
33.00
27.91
22.31
16.48
10.70
5.25
0.27
-4.25
-8.56
-13.13
-18.45
-24.88
-32.36
-40.32
-47.69
-53.14
-55.41
-53.74
-47.93
-38.55
-26.69
-13.64
-0.69
11.11
20.97
28.42
33.18
35.29
35.08
33.14
30.28
27.36
25.07
23.78
23.53
24.04
24.89
25.70
26.22
26.38
26.23
25.87
25.28
24.32
22.72
20.22
16.73
12.36
7.52
2.70
-1.65
-5.34
-8.53
-11.59
-15.04
-19.35
-24.81
-31.39
-38.76
-46.15
-52.47
-56.41
-56.76
-52.82
-44.68
-33.31
-20.24
-7.10
4.81
14.77
22.53
28.13
31.56
32.81
31.91
29.19
25.31
21.25
17.97
16.02
15.50
15.93
16.64
16.99
16.68
15.76
14.50
13.12
11.58
9.59
6.70
2.64
-2.56
-8.51
-14.60
-20.31
-25.31
-29.56
-33.22
-36.55
-39.80
-43.14
-46.63
-50.13
-53.16
-54.99
-54.64
-51.20
-44.17
-33.68
-20.48
-5.83
8.89
22.43
33.90
42.77
48.85
52.17
52.95
51.64
48.84
45.30
41.75
38.82
36.87
35.93
35.77
35.96
36.05
35.68
34.69
33.01
30.72
27.87
24.46
20.46
15.85
10.68
5.13
-0.54
-6.01
-11.04
-15.55
-19.71
-23.92
-28.66
-34.27
-40.71
-47.37
-53.16
-56.78
-57.10
-53.53
-46.16
-35.77
-23.55
-10.87
1.10
11.33
19.13
24.10
26.16
25.57
22.95
19.19
15.22
11.87
9.61
8.59
8.62
9.34
10.37
11.37
12.15
12.62
12.79
12.64
12.09
11.01
9.19
6.52
3.02
-1.09
-5.47
-9.75
-13.73
-17.44
-21.10
-25.10
-29.74
-35.15
-41.05
-46.73
-51.06
-52.77
-50.84
-44.90
-35.39
-23.48
-10.75
1.32
11.64
19.68
25.27
28.49
29.44
28.36
25.58
21.65
17.28
13.18
9.91
7.78
6.83
6.89
7.73
9.04
10.53
11.85
12.62
12.48
11.15
8.61
5.04
0.88
-3.34
-7.17
-10.40
-13.16
-15.81
-18.84
-22.63
-27.33
-32.75
-38.40
-43.44
-46.85
-47.62
-44.93
-38.53
-28.83
-16.86
-4.07
8.10
18.48
26.37
31.44
33.69
33.31
30.68
26.46
21.49
16.69
12.86
10.46
9.48
9.62
10.35
11.21
11.93
12.33
12.31
11.71
10.40
8.24
5.28
1.72
-2.15
-5.98
-9.64
-13.15
-16.65
-20.37
-24.49
-29.15
-34.38
-40.03
-45.65
-50.47
-53.42
-53.43
-49.77
-42.31
-31.69
-19.13
-6.14
5.86
15.80
23.12
27.70
29.78
29.81
28.31
25.78
22.65
19.30
16.09
13.38
11.47
10.51
10.50
11.19
12.21
13.19
13.80
13.82
13.05
11.36
8.64
4.93
0.52
-4.18
-8.71
-12.81
-16.56
-20.39
-24.81
-30.11
-36.03
-41.73
-45.95
-47.44
-45.35
-39.57
-30.71
-19.90
-8.40
2.60
12.22
19.82
25.05
27.73
27.95
26.03
22.52
18.10
13.47
9.24
5.84
3.50
2.26
2.00
2.48
3.36
4.34
5.11
5.43
5.09
3.98
2.02
-0.68
-3.89
-7.26
-10.47
-13.33
-15.94
-18.62
-21.85
-25.96
-30.87
-36.00
-40.32
-42.62
-41.88
-37.61
-30.01
-19.91
-8.59
2.59
12.46
20.18
25.32
27.78
27.77
25.64
21.91
17.23
12.36
8.05
4.85
3.00
2.34
2.45
2.79
2.88
2.49
1.60
0.31
-1.22
-2.92
-4.79
-6.91
-9.38
-12.27
-15.65
-19.60
-24.19
-29.50
-35.34
-41.21
-46.17
-49.00
-48.54
-44.14
-35.95
-24.90
-12.43
-0.03
11.05
20.00
26.40
30.08
31.01
29.37
25.61
20.48
14.97
10.04
6.46
4.52
4.14
4.88
6.20
7.55
8.47
8.70
8.07
6.60
4.44
1.82
-1.08
-4.18
-7.62
-11.66
-16.58
-22.58
-29.65
-37.48
-45.44
-52.54
-57.59
-59.39
-57.02
-50.17
-39.30
-25.62
-10.81
3.39
15.57
24.84
30.88
33.78
33.93
31.90
28.33
24.00
19.67
16.03
13.55
12.43
12.53
13.47
14.77
15.97
16.72
16.82
16.18
14.77
12.61
9.66
5.94
1.53
-3.42
-8.74
-14.37
-20.39
-27.04
-34.48
-42.49
-50.23
-56.32
-59.11
-57.31
-50.44
-39.08
-24.70
-9.19
5.69
18.63
28.89
36.20
40.52
42.08
41.29
38.77
35.31
31.74
28.71
26.53
25.22
24.62
24.48
24.63
24.91
25.08
24.88
23.99
22.15
19.32
15.69
11.62
7.46
3.40
-0.58
-4.76
-9.56
-15.40
-22.47
-30.63
-39.21
-47.10
-52.87
-55.15
-53.05
-46.41
-35.84
-22.66
-8.45
5.19
17.01
26.17
32.29
35.37
35.78
34.04
30.82
26.82
22.73
19.15
16.64
15.54
15.96
17.66
20.15
22.71
24.64
25.48
25.03
23.36
20.74
17.46
13.75
9.79
5.73
1.65
-2.41
-6.56
-11.09
-16.40
-22.83
-30.37
-38.48
-46.02
-51.44
-53.23
-50.34
-42.63
-30.91
-16.74
-2.00
11.56
22.66
30.67
35.47
37.28
36.50
33.64
29.29
24.19
19.16
15.00
12.35
11.52
12.41
14.48
17.00
19.18
20.42
20.48
19.39
17.44
14.98
12.25
9.36
6.24
2.74
-1.33
-6.07
-11.56
-17.76
-24.54
-31.54
-38.11
-43.24
-45.78
-44.69
-39.41
-30.21
-18.12
-4.78
8.09
19.11
27.45
32.87
35.50
35.66
33.77
30.38
26.21
22.09
18.74
16.63
15.82
16.05
16.86
17.84
18.73
19.38
19.64
19.31
18.13
15.87
12.52
8.27
3.47
-1.49
-6.38
-11.26
-16.41
-22.29
-29.27
-37.35
-46.01
-54.15
-60.30
-62.96
-61.00
-54.07
-42.68
-28.15
-12.21
3.34
17.04
27.93
35.61
40.14
41.85
41.27
39.02
35.78
32.22
28.98
26.51
25.06
24.58
24.82
25.40
26.00
26.38
26.34
25.73
24.38
22.11
18.90
14.89
10.43
5.90
1.56
-2.57
-6.76
-11.42
-17.03
-23.89
-31.99
-40.85
-49.43
-56.29
-59.88
-58.99
-53.18
-42.93
-29.52
-14.65
0.05
13.25
24.12
32.23
37.43
39.86
39.87
38.06
35.19
32.06
29.39
27.67
27.09
27.53
28.70
30.17
31.54
32.51
32.89
32.57
31.45
29.41
26.38
22.35
17.49
12.15
6.76
1.69
-2.95
-7.28
-11.63
-16.43
-21.95
-28.33
-35.34
-42.41
-48.59
-52.67
-53.42
-49.93
-42.04
-30.43
-16.54
-2.16
11.09
22.06
30.18
35.35
37.77
37.78
35.86
32.63
28.88
25.39
22.75
21.25
20.79
21.04
21.63
22.26
22.74
23.05
23.14
22.92
22.23
20.83
18.52
15.21
11.11
6.54
1.93
-2.38
-6.28
-9.83
-13.37
-17.27
-21.96
-27.67
-34.41
-41.72
-48.63
-53.73
-55.53
-52.98
-45.87
-35.02
-22.01
-8.66
3.49
13.44
20.78
25.48
27.71
27.75
25.99
23.00
19.50
16.25
13.90
12.76
12.88
14.02
15.76
17.66
19.37
20.68
21.49
21.73
21.25
19.81
17.26
13.64
9.26
4.67
0.41
-3.22
-6.30
-9.23
-12.54
-16.69
-21.90
-27.98
-34.35
-40.13
-44.23
-45.54
-43.32
-37.31
-27.94
-16.22
-3.49
8.90
19.82
28.48
34.47
37.72
38.38
36.87
33.72
29.63
25.36
21.64
18.97
17.59
17.38
17.99
18.99
20.02
20.80
21.18
21.01
20.14
18.47
15.97
12.80
9.21
5.47
1.77
-1.88
-5.59
-9.57
-14.08
-19.28
-25.13
-31.30
-37.07
-41.43
-43.34
-41.98
-37.13
-29.17
-19.14
-8.31
2.05
10.97
17.83
22.33
24.39
24.09
21.71
17.78
13.03
8.32
4.45
1.94
0.99
1.39
2.73
4.46
6.07
7.14
7.42
6.81
5.33
3.11
0.35
-2.80
-6.29
-10.11
-14.34
-19.08
-24.43
-30.42
-36.99
-43.81
-50.28
-55.47
-58.37
-58.07
-54.07
-46.58
-36.39
-24.78
-13.07
-2.37
6.62
13.57
18.44
21.32
22.31
21.56
19.29
15.87
11.78
7.69
4.27
2.10
1.48
2.36
4.26
6.44
8.13
8.69
7.82
5.62
2.44
-1.28
-5.22
-9.26
-13.48
-18.15
-23.55
-29.95
-37.39
-45.56
-53.77
-60.89
-65.66
-66.89
-63.86
-56.52
-45.56
-32.23
-18.03
-4.37
7.65
17.39
24.53
29.03
31.05
30.91
29.11
26.25
23.01
19.98
17.63
16.20
15.70
16.00
16.88
18.09
19.40
20.46
20.90
20.35
18.45
15.01
10.10
4.00
-2.75
-9.58
-15.99
-21.79
-27.13
-32.50
-38.53
-45.63
-53.71
-62.01
-69.12
-73.33
-73.15
-67.80
-57.48
-43.32
-27.07
-10.60
4.53
17.31
27.36
34.63
39.31
41.60
41.80
40.34
37.83
35.04
32.69
31.24
30.82
31.22
32.15
33.33
34.64
36.03
37.33
38.17
38.06
36.52
33.33
28.62
22.86
16.62
10.44
4.63
-0.78
-5.90
-10.93
-16.09
-21.66
-27.98
-35.28
-43.48
-51.92
-59.26
-63.76
-63.81
-58.55
-48.18
-34.01
-17.98
-2.07
12.28
24.37
34.07
41.58
47.09
50.71
52.44
52.40
50.91
48.49
45.81
43.45
41.78
40.83
40.46
40.41
40.52
40.65
40.74
40.68
40.22
39.11
37.04
33.80
29.36
23.88
17.75
11.44
5.47
0.17
-4.33
-8.21
-11.78
-15.44
-19.54
-24.32
-29.97
-36.50
-43.65
-50.75
-56.69
-60.03
-59.48
-54.33
-44.76
-31.88
-17.30
-2.68
10.76
22.30
31.65
38.71
43.40
45.66
45.60
43.62
40.44
36.95
33.96
32.02
31.34
31.77
32.96
34.47
35.87
36.83
37.15
36.68
35.43
33.43
30.80
27.76
24.51
21.23
17.98
14.74
11.43
7.96
4.34
0.57
-3.27
-7.22
-11.33
-15.66
-20.31
-25.32
-30.71
-36.32
-41.81
-46.51
-49.49
-49.81
-46.80
-40.38
-31.15
-20.24
-8.97
1.53
10.51
17.58
22.61
25.61
26.69
26.12
24.35
22.01
19.78
18.18
17.50
17.79
18.84
20.33
21.90
23.22
24.00
24.06
23.32
21.82
19.65
17.03
14.25
11.55
9.10
6.93
4.91
2.87
0.59
-1.95
-4.70
-7.52
-10.29
-13.03
-15.95
-19.26
-23.13
-27.48
-31.95
-35.90
-38.58
-39.28
-37.56
-33.35
-27.00
-19.14
-10.57
-2.13
5.45
11.52
15.64
17.63
17.64
16.13
13.78
11.29
9.21
7.76
6.89
6.42
6.17
6.08
6.15
6.42
6.83
7.27
7.54
7.48
6.99
6.07
4.80
3.32
1.78
0.29
-1.10
-2.41
-3.73
-5.17
-6.76
-8.50
-10.40
-12.47
-14.82
-17.58
-20.84
-24.53
-28.33
-31.69
-33.93
-34.43
-32.83
-29.13
-23.64
-16.97
-9.86
-3.05
2.86
7.41
10.39
11.79
11.85
10.91
9.38
7.57
5.73
4.06
2.76
2.04
2.10
2.95
4.37
5.89
6.96
7.24
6.69
5.56
4.23
2.95
1.75
0.43
-1.21
-3.16
-5.21
-6.99
-8.27
-9.05
-9.65
-10.51
-12.03
-14.32
-17.25
-20.56
-23.91
-26.97
-29.44
-30.97
-31.24
-29.95
-26.95
-22.33
-16.46
-9.90
-3.37
2.50
7.17
10.26
11.60
11.20
9.25
6.18
2.64
-0.62
-2.93
-3.84
-3.34
-1.81
0.11
1.84
3.04
3.73
4.16
4.55
5.04
5.49
5.67
5.33
4.30
2.60
0.41
-2.10
-4.74
-7.42
-10.08
-12.68
-15.15
-17.44
-19.55
-21.55
-23.58
-25.69
-27.75
-29.40
-30.06
-29.16
-26.34
-21.67
-15.64
-9.00
-2.54
3.06
7.41
10.33
11.81
11.93
10.87
8.93
6.43
3.76
1.29
-0.72
-2.08
-2.75
-2.77
-2.19
-1.14
0.17
1.49
2.54
3.04
2.82
1.84
0.21
-1.80
-3.88
-5.81
-7.52
-9.12
-10.77
-12.56
-14.48
-16.48
-18.54
-20.75
-23.20
-25.85
-28.30
-29.94
-30.09
-28.33
-24.65
-19.49
-13.54
-7.46
-1.85
2.84
6.26
8.14
8.43
7.30
5.24
2.82
0.65
-0.95
-1.87
-2.21
-2.13
-1.78
-1.26
-0.61
0.10
0.77
1.27
1.45
1.20
0.45
-0.72
-2.24
-3.98
-5.89
-7.96
-10.20
-12.59
-15.07
-17.62
-20.21
-22.91
-25.74
-28.66
-31.43
-33.64
-34.79
-34.39
-32.12
-27.91
-22.07
-15.15
-7.90
-1.16
4.42
8.40
10.71
11.51
11.12
9.89
8.12
6.11
4.12
2.41
1.17
0.50
0.37
0.73
1.44
2.37
3.39
4.33
5.04
5.34
5.12
4.30
2.89
0.95
-1.41
-4.05
-6.86
-9.76
-12.75
-15.92
-19.38
-23.12
-27.02
-30.74
-33.75
-35.45
-35.27
-32.86
-28.23
-21.83
-14.45
-7.00
-0.27
5.26
9.39
12.17
13.66
13.85
12.76
10.50
7.46
4.26
1.63
0.12
-0.10
0.72
2.06
3.36
4.31
4.86
5.17
5.38
5.49
5.30
4.58
3.20
1.23
-1.10
-3.56
-6.08
-8.80
-11.92
-15.63
-19.96
-24.67
-29.31
-33.24
-35.78
-36.28
-34.33
-29.86
-23.14
-14.90
-6.05
2.39
9.51
14.69
17.61
18.32
17.17
14.67
11.49
8.24
5.43
3.42
2.39
2.28
2.91
3.98
5.15
6.11
6.67
6.73
6.30
5.44
4.18
2.51
0.42
-2.11
-5.06
-8.37
-11.92
-15.70
-19.69
-23.92
-28.32
-32.68
-36.58
-39.37
-40.37
-38.94
-34.76
-27.96
-19.10
-9.18
0.67
9.41
16.26
20.83
23.08
23.29
21.86
19.25
15.88
12.24
8.75
5.86
3.93
3.20
3.70
5.25
7.45
9.79
11.82
13.21
13.82
13.65
12.77
11.18
8.86
5.78
1.95
-2.51
-7.51
-12.98
-18.83
-24.94
-31.01
-36.43
-40.38
-41.95
-40.47
-35.74
-28.09
-18.36
-7.63
3.01
12.63
20.55
26.33
29.75
30.83
29.73
26.89
22.87
18.38
14.16
10.83
8.83
8.32
9.18
11.01
13.22
15.10
16.06
15.79
14.32
12.05
9.50
7.13
5.10
3.22
1.10
-1.71
-5.52
-10.41
-16.23
-22.58
-28.76
-33.86
-36.81
-36.66
-32.89
-25.66
-15.78
-4.52
6.71
16.73
24.71
30.21
33.09
33.47
31.71
28.36
24.15
19.85
16.17
13.63
12.51
12.80
14.27
16.43
18.72
20.61
21.71
21.88
21.20
19.84
17.99
15.71
12.97
9.71
5.84
1.31
-3.91
-9.79
-16.16
-22.52
-27.98
-31.42
-31.70
-28.17
-20.95
-11.02
0.06
10.65
19.49
26.03
30.31
32.64
33.30
32.40
29.95
26.17
21.60
17.06
13.44
11.32
10.81
11.59
13.06
14.64
15.89
16.66
16.94
16.77
16.18
15.13
13.57
11.48
8.88
5.74
2.04
-2.44
-7.86
-14.22
-21.19
-27.92
-33.27
-36.00
-35.24
-30.70
-22.85
-12.61
-1.24
10.08
20.32
28.75
34.87
38.41
39.30
37.76
34.24
29.45
24.22
19.44
15.79
13.77
13.47
14.65
16.81
19.26
21.35
22.56
22.60
21.47
19.38
16.63
13.53
10.29
6.93
3.35
-0.69
-5.49
-11.25
-17.94
-25.14
-32.00
-37.36
-40.05
-39.16
-34.39
-26.08
-15.24
-3.22
8.54
18.78
26.62
31.67
33.98
33.91
31.99
28.80
24.89
20.79
17.02
14.05
12.30
11.92
12.78
14.42
16.21
17.50
17.82
17.01
15.18
12.62
9.67
6.52
3.22
-0.34
-4.37
-9.11
-14.74
-21.27
-28.45
-35.65
-41.89
-45.99
-46.88
-43.87
-36.94
-26.75
-14.52
-1.72
10.25
20.31
27.81
32.55
34.69
34.63
32.84
29.79
25.94
21.76
17.79
14.50
12.32
11.41
11.59
12.44
13.47
14.19
14.28
13.63
12.18
9.94
6.90
3.13
-1.22
-5.93
-10.80
-15.76
-20.99
-26.83
-33.50
-40.75
-47.69
-52.85
-54.62
-51.85
-44.28
-32.74
-18.80
-4.34
9.01
20.10
28.38
33.72
36.26
36.33
34.39
31.02
26.97
22.94
19.59
17.34
16.42
16.77
18.20
20.30
22.58
24.51
25.53
25.24
23.48
20.34
16.25
11.74
7.23
2.93
-1.27
-5.65
-10.53
-16.14
-22.55
-29.63
-36.94
-43.73
-48.87
-51.09
-49.32
-43.10
-32.85
-19.85
-5.86
7.33
18.43
26.75
32.20
35.04
35.68
34.60
32.34
29.45
26.53
24.07
22.50
21.97
22.43
23.65
25.25
26.89
28.23
29.12
29.41
29.05
27.89
25.79
22.64
18.51
13.71
8.71
3.92
-0.42
-4.35
-8.22
-12.47
-17.55
-23.68
-30.70
-37.97
-44.31
-48.30
-48.54
-44.26
-35.59
-23.62
-10.09
3.14
14.58
23.39
29.38
32.71
33.73
32.72
30.03
26.12
21.70
17.60
14.63
13.27
13.55
15.04
17.06
18.95
20.36
21.21
21.63
21.67
21.25
20.10
17.98
14.85
10.96
6.79
2.88
-0.36
-2.81
-4.71
-6.51
-8.70
-11.63
-15.37
-19.72
-24.21
-28.18
-30.90
-31.70
-30.06
-25.76
-18.95
-10.22
-0.41
9.46
18.47
25.89
31.22
34.18
34.68
32.81
28.96
23.85
18.42
13.62
10.12
8.12
7.41
7.51
8.02
8.71
9.52
10.38
11.09
11.32
10.70
9.03
6.36
2.92
-0.94
-4.97
-9.02
-13.09
-17.18
-21.36
-25.72
-30.40
-35.48
-40.90
-46.27
-50.78
-53.41
-53.15
-49.37
-42.10
-32.05
-20.42
-8.56
2.36
11.49
18.40
22.94
25.19
25.37
23.88
21.28
18.25
15.47
13.39
12.22
11.88
12.10
12.61
13.23
13.91
14.63
15.36
15.88
15.85
14.89
12.80
9.61
5.56
1.11
-3.31
-7.35
-10.89
-14.05
-17.15
-20.66
-25.01
-30.44
-36.72
-43.09
-48.37
-51.21
-50.56
-46.05
-38.04
-27.54
-15.83
-4.16
6.49
15.48
22.38
26.93
29.01
28.73
26.51
23.09
19.41
16.33
14.38
13.70
14.07
15.07
16.27
17.37
18.20
18.71
18.89
18.71
18.08
16.86
14.88
12.03
8.32
3.99
-0.58
-4.93
-8.75
-12.06
-15.15
-18.54
-22.70
-27.87
-33.85
-40.06
-45.53
-49.14
-49.84
-46.98
-40.53
-31.15
-20.00
-8.43
2.35
11.52
18.58
23.37
25.81
25.99
24.23
21.10
17.48
14.23
11.99
11.03
11.22
12.19
13.59
15.20
16.91
18.57
19.97
20.72
20.40
18.73
15.68
11.48
6.66
1.76
-2.78
-6.71
-10.03
-12.94
-15.75
-18.83
-22.55
-27.13
-32.58
-38.51
-44.05
-48.06
-49.35
-47.13
-41.27
-32.41
-21.72
-10.52
0.04
9.22
16.57
21.90
25.19
26.52
26.10
24.30
21.59
18.47
15.44
12.96
11.34
10.76
11.19
12.39
13.97
15.52
16.66
17.18
16.98
16.01
14.23
11.63
8.26
4.33
0.19
-3.82
-7.44
-10.64
-13.66
-16.85
-20.61
-25.22
-30.67
-36.67
-42.55
-47.32
-49.83
-49.09
-44.58
-36.49
-25.70
-13.61
-1.63
9.05
17.77
24.25
28.46
30.43
30.32
28.42
25.31
21.80
18.78
16.91
16.39
16.99
18.13
19.23
19.94
20.22
20.23
20.17
20.10
19.83
19.03
17.36
14.63
10.88
6.40
1.64
-2.96
-7.11
-10.78
-14.22
-17.87
-22.26
-27.69
-34.12
-41.04
-47.52
-52.40
-54.53
-53.13
-47.97
-39.46
-28.55
-16.44
-4.35
6.71
16.05
23.20
27.95
30.28
30.35
28.57
25.54
21.97
18.59
15.95
14.34
13.78
14.11
15.02
16.17
17.23
17.94
18.14
17.76
16.80
15.27
13.19
10.57
7.51
4.18
0.83
-2.27
-5.02
-7.54
-10.17
-13.30
-17.27
-22.13
-27.62
-33.16
-37.92
-40.99
-41.51
-38.91
-33.12
-24.62
-14.40
-3.70
6.22
14.40
20.22
23.48
24.28
22.98
20.14
16.48
12.68
9.32
6.77
5.21
4.62
4.92
5.92
7.39
9.02
10.46
11.36
11.47
10.71
9.08
6.68
3.60
-0.01
-3.96
-8.03
-11.98
-15.70
-19.31
-23.15
-27.61
-32.96
-39.10
-45.38
-50.71
-53.75
-53.35
-48.89
-40.56
-29.27
-16.44
-3.54
8.17
17.85
25.03
29.53
31.36
30.73
28.10
24.23
19.99
16.19
13.40
11.80
11.22
11.35
11.79
12.26
12.57
12.63
12.33
11.56
10.21
8.18
5.46
2.14
-1.61
-5.59
-9.63
-13.65
-17.68
-21.87
-26.40
-31.45
-37.08
-43.07
-48.87
-53.57
-56.06
-55.35
-50.86
-42.71
-31.74
-19.30
-6.89
4.18
13.06
19.39
23.11
24.45
23.73
21.40
18.04
14.25
10.66
7.77
5.92
5.26
5.79
7.32
9.58
12.18
14.64
16.48
17.28
16.78
14.93
11.87
7.90
3.42
-1.15
-5.55
-9.65
-13.54
-17.53
-22.01
-27.31
-33.50
-40.25
-46.66
-51.45
-53.24
-51.02
-44.50
-34.28
-21.69
-8.32
4.34
15.27
23.92
30.03
33.53
34.41
32.84
29.32
24.64
19.77
15.56
12.55
10.92
10.55
11.17
12.44
14.04
15.63
16.88
17.51
17.32
16.20
14.21
11.47
8.23
4.74
1.29
-2.03
-5.27
-8.74
-12.92
-18.19
-24.64
-31.87
-38.95
-44.63
-47.62
-46.94
-42.19
-33.75
-22.63
-10.24
1.91
12.57
20.95
26.70
29.82
30.57
29.26
26.30
22.19
17.55
13.06
9.38
6.99
6.05
6.43
7.69
9.32
10.83
11.92
12.46
12.41
11.76
10.45
8.39
5.55
2.06
-1.87
-5.98
-10.13
-14.37
-18.92
-24.07
-29.98
-36.37
-42.53
-47.28
-49.33
-47.61
-41.71
-32.08
-19.98
-7.12
4.85
14.69
21.85
26.34
28.48
28.69
27.30
24.61
20.97
16.91
13.09
10.13
8.45
8.17
9.06
10.65
12.30
13.38
13.38
12.04
9.42
5.87
1.87
-2.16
-6.05
-9.91
-14.04
-18.81
-24.48
-31.11
-38.51
-46.12
-52.93
-57.62
-58.82
-55.53
-47.58
-35.75
-21.62
-7.06
6.25
17.17
25.16
30.13
32.30
32.06
29.95
26.67
23.01
19.66
17.15
15.70
15.30
15.73
16.72
17.95
19.08
19.78
19.70
18.60
16.33
12.92
8.57
3.59
-1.70
-7.10
-12.57
-18.23
-24.28
-30.90
-38.04
-45.38
-52.18
-57.32
-59.58
-57.91
-51.81
-41.56
-28.24
-13.40
1.25
14.31
24.86
32.45
37.01
38.70
37.82
34.91
30.68
26.06
21.96
19.13
17.92
18.26
19.66
21.46
23.02
23.88
23.83
22.87
21.07
18.55
15.40
11.74
7.75
3.60
-0.69
-5.28
-10.50
-16.70
-24.04
-32.25
-40.55
-47.67
-52.17
-52.81
-48.88
-40.49
-28.51
-14.40
0.24
13.89
25.40
34.06
39.55
41.92
41.51
38.94
35.06
30.80
27.01
24.28
22.83
22.62
23.38
24.72
26.22
27.51
28.23
28.10
26.99
24.86
21.84
18.17
14.03
9.59
4.97
0.20
-4.73
-9.90
-15.49
-21.75
-28.82
-36.52
-44.11
-50.25
-53.36
-51.98
-45.47
-34.29
-20.02
-4.83
9.10
20.20
27.81
32.02
33.40
32.61
30.23
26.72
22.65
18.69
15.57
13.89
13.88
15.38
17.86
20.65
23.15
24.94
25.79
25.58
24.24
21.79
18.35
14.16
9.51
4.68
-0.21
-5.25
-10.68
-16.84
-23.93
-31.82
-39.85
-46.84
-51.26
-51.72
-47.43
-38.55
-26.20
-12.10
1.90
14.35
24.36
31.54
35.81
37.22
36.00
32.60
27.78
22.55
17.91
14.67
13.23
13.48
15.01
17.21
19.45
21.23
22.20
22.11
20.83
18.35
14.79
10.44
5.63
0.67
-4.35
-9.54
-15.19
-21.67
-29.20
-37.67
-46.50
-54.66
-60.74
-63.26
-61.14
-54.02
-42.50
-28.04
-12.61
1.85
13.92
22.90
28.74
31.83
32.70
31.83
29.66
26.61
23.15
19.82
17.10
15.32
14.57
14.72
15.45
16.40
17.11
17.17
16.19
13.89
10.21
5.36
-0.27
-6.24
-12.19
-17.99
-23.67
-29.43
-35.48
-42.06
-49.31
-57.21
-65.37
-72.85
-78.20
-79.71
-75.84
-65.87
-50.18
-30.27
-8.36
13.29
32.81
49.13
61.88
71.19
77.53
81.55
84.05
85.95
88.06
90.93
94.54
98.32
101.25
102.29
100.66
96.16
89.12
80.19
70.09
59.37
48.38
37.30
26.36
15.91
6.35
-1.93
-8.75
-14.27
-18.94
-23.41
-28.34
-34.24
-41.24
-49.04
-56.84
-63.44
-67.45
-67.72
-63.59
-55.20
-43.45
-29.80
-15.85
-2.98
7.84
16.07
21.52
24.23
24.38
22.33
18.69
14.26
9.98
6.66
4.86
4.70
5.92
8.00
10.38
12.63
14.46
15.77
16.52
16.64
16.03
14.56
12.16
8.87
4.92
0.62
-3.61
-7.45
-10.74
-13.60
-16.33
-19.41
-23.26
-28.08
-33.70
-39.55
-44.64
-47.87
-48.18
-44.90
-37.96
-27.95
-15.98
-3.43
8.33
18.22
25.56
29.98
31.51
30.44
27.31
22.96
18.30
14.28
11.60
10.59
11.20
13.01
15.48
18.05
20.25
21.79
22.46
22.16
20.82
18.45
15.13
11.02
6.34
1.35
-3.67
-8.49
-12.97
-17.12
-21.07
-25.07
-29.44
-34.42
-39.99
-45.80
-51.08
-54.75
-55.68
-53.01
-46.50
-36.67
-24.68
-11.99
0.01
10.33
18.49
24.35
27.93
29.29
28.49
25.85
21.97
17.82
14.49
12.87
13.30
15.42
18.39
21.19
23.08
23.85
23.69
23.03
22.15
21.06
19.44
16.93
13.37
8.91
4.00
-0.79
-5.04
-8.62
-11.73
-14.82
-18.39
-22.87
-28.42
-34.92
-41.86
-48.36
-53.24
-55.27
-53.44
-47.36
-37.46
-24.95
-11.50
1.24
12.04
20.28
25.89
29.09
30.17
29.46
27.30
24.22
20.87
17.99
16.24
15.96
17.08
19.16
21.56
23.64
24.99
25.49
25.20
24.23
22.64
20.33
17.18
13.21
8.62
3.78
-0.88
-5.11
-8.79
-11.96
-14.77
-17.44
-20.25
-23.58
-27.79
-33.11
-39.35
-45.75
-51.13
-54.07
-53.40
-48.56
-39.83
-28.27
-15.37
-2.73
8.41
17.35
23.94
28.29
30.61
30.99
29.58
26.70
22.98
19.31
16.53
15.12
15.09
16.01
17.30
18.50
19.44
20.10
20.56
20.78
20.62
19.87
18.32
15.86
12.55
8.62
4.44
0.45
-3.00
-5.77
-8.02
-10.17
-12.73
-16.18
-20.75
-26.39
-32.66
-38.85
-43.96
-46.94
-46.83
-43.12
-35.90
-25.95
-14.58
-3.21
6.93
15.06
20.86
24.36
25.69
25.03
22.60
18.84
14.44
10.21
6.94
5.07
4.65
5.39
6.79
8.42
9.98
11.31
12.32
12.87
12.81
12.00
10.36
7.87
4.65
0.95
-2.95
-6.69
-10.04
-12.91
-15.41
-17.85
-20.68
-24.30
-28.96
-34.53
-40.45
-45.76
-49.30
-49.97
-47.10
-40.62
-31.14
-19.83
-8.05
2.90
12.08
18.98
23.48
25.74
26.08
24.87
22.60
19.78
17.02
14.83
13.59
13.34
13.83
14.63
15.30
15.57
15.43
14.99
14.36
13.55
12.43
10.76
8.38
5.27
1.60
-2.34
-6.25
-9.88
-13.17
-16.22
-19.32
-22.80
-26.98
-31.95
-37.48
-42.90
-47.20
-49.28
-48.22
-43.62
-35.74
-25.48
-14.08
-2.78
7.51
16.21
23.05
27.82
30.37
30.63
28.76
25.25
20.95
16.81
13.72
12.12
12.06
13.15
14.80
16.45
17.67
18.31
18.39
18.05
17.32
16.08
14.05
10.98
6.86
2.00
-2.95
-7.37
-10.85
-13.44
-15.55
-17.84
-20.92
-25.18
-30.64
-36.95
-43.35
-48.77
-51.98
-51.88
-47.89
-40.16
-29.60
-17.60
-5.65
4.96
13.48
19.58
23.26
24.66
24.03
21.72
18.24
14.30
10.65
7.95
6.59
6.60
7.68
9.42
11.38
13.25
14.85
16.07
16.83
17.00
16.41
14.96
12.60
9.48
5.85
2.03
-1.72
-5.40
-9.24
-13.61
-18.87
-25.11
-31.99
-38.89
-44.86
-48.93
-50.22
-48.12
-42.49
-33.74
-22.84
-11.14
-0.04
9.28
16.13
20.31
21.96
21.40
19.02
15.36
11.09
7.00
3.84
2.09
1.79
2.61
4.00
5.43
6.62
7.42
7.71
7.37
6.20
4.07
1.11
-2.35
-5.89
-9.20
-12.29
-15.43
-19.05
-23.52
-29.04
-35.53
-42.56
-49.40
-54.95
-57.91
-57.16
-52.11
-43.01
-31.00
-17.70
-4.84
6.25
14.79
20.57
23.68
24.46
23.32
20.76
17.38
13.78
10.55
8.18
6.99
7.11
8.45
10.68
13.29
15.69
17.29
17.68
16.70
14.44
11.13
7.14
2.78
-1.66
-6.05
-10.38
-14.83
-19.67
-25.22
-31.71
-39.05
-46.70
-53.60
-58.38
-59.75
-56.91
-49.82
-39.27
-26.59
-13.26
-0.57
10.59
19.73
26.64
31.23
33.55
33.78
32.31
29.71
26.66
23.85
21.76
20.64
20.43
20.88
21.62
22.32
22.68
22.48
21.57
19.81
17.12
13.54
9.26
4.59
-0.12
-4.64
-8.97
-13.31
-17.98
-23.31
-29.47
-36.27
-43.21
-49.39
-53.72
-55.06
-52.58
-46.11
-36.13
-23.83
-10.71
1.79
12.56
20.94
26.73
29.98
30.92
29.94
27.50
24.22
20.80
17.88
15.99
15.44
16.28
18.26
20.97
23.88
26.37
27.91
28.11
26.82
24.13
20.37
15.98
11.45
7.06
2.90
-1.12
-5.29
-9.88
-15.15
-21.27
-28.14
-35.26
-41.67
-46.05
-47.02
-43.65
-35.84
-24.45
-11.09
2.40
14.42
23.97
30.70
34.73
36.35
35.95
33.91
30.75
27.07
23.62
21.09
19.95
20.32
21.93
24.27
26.74
28.84
30.21
30.68
30.12
28.45
25.62
21.70
16.90
11.59
6.15
0.87
-4.13
-9.01
-14.03
-19.56
-25.85
-32.87
-40.16
-46.83
-51.64
-53.40
-51.30
-45.18
-35.72
-24.15
-11.94
-0.45
9.30
16.69
21.39
23.32
22.65
19.83
15.57
10.80
6.41
3.10
1.21
0.68
1.14
2.05
2.91
3.38
3.26
2.54
1.25
-0.55
-2.85
-5.57
-8.56
-11.48
-13.87
-15.28
-15.40
-14.27
-12.24
-9.97
-8.11
-7.17
-7.27
-8.06
-8.74
-8.21
-5.36
0.60
9.83
21.77
35.21
48.62
60.48
69.59
75.23
77.13
75.42
70.58
63.38
54.80
45.91
37.69
30.83
25.71
22.35
20.52
19.81
19.68
19.58
19.04
17.75
15.57
12.56
8.85
4.59
-0.05
-4.89
-9.71
-14.31
-18.64
-22.95
-27.71
-33.51
-40.57
-48.52
-56.28
-62.21
-64.74
-62.83
-56.37
-46.24
-33.93
-21.03
-8.84
1.80
10.47
16.97
21.08
22.66
21.76
18.82
14.70
10.51
7.27
5.64
5.73
7.19
9.44
11.90
14.17
15.99
17.13
17.32
16.32
13.97
10.41
6.12
1.75
-2.13
-5.31
-8.06
-10.98
-14.75
-19.76
-26.09
-33.35
-40.89
-47.81
-53.05
-55.46
-54.08
-48.40
-38.68
-26.00
-12.06
1.30
12.65
21.25
27.06
30.50
32.06
32.13
30.95
28.75
25.87
22.83
20.20
18.48
17.89
18.36
19.55
20.99
22.23
22.96
22.94
22.08
20.27
17.47
13.71
9.19
4.25
-0.67
-5.21
-9.25
-12.96
-16.78
-21.23
-26.69
-33.14
-40.06
-46.55
-51.40
-53.44
-51.77
-46.02
-36.52
-24.25
-10.65
2.70
14.44
23.73
30.27
34.26
36.08
36.17
34.90
32.66
29.89
27.13
24.92
23.58
23.14
23.36
23.83
24.19
24.30
24.20
23.96
23.56
22.75
21.16
18.42
14.39
9.33
3.84
-1.33
-5.60
-8.83
-11.40
-14.08
-17.70
-22.74
-29.20
-36.40
-43.28
-48.54
-50.99
-49.78
-44.62
-35.84
-24.37
-11.63
0.87
11.79
20.27
25.97
29.05
29.90
28.96
26.69
23.50
19.88
16.40
13.63
11.97
11.54
12.15
13.33
14.66
15.78
16.56
16.94
16.86
16.18
14.73
12.45
9.46
6.10
2.76
-0.21
-2.73
-4.91
-7.04
-9.52
-12.67
-16.71
-21.64
-27.15
-32.62
-37.15
-39.76
-39.66
-36.53
-30.55
-22.37
-12.93
-3.24
5.81
13.52
19.36
23.02
24.35
23.56
21.11
17.74
14.31
11.56
9.97
9.67
10.46
11.98
13.82
15.60
16.99
17.73
17.56
16.35
14.05
10.84
6.99
2.92
-1.02
-4.54
-7.57
-10.20
-12.78
-15.73
-19.48
-24.30
-30.19
-36.76
-43.17
-48.35
-51.15
-50.67
-46.52
-38.97
-28.93
-17.67
-6.54
3.43
11.56
17.62
21.56
23.45
23.44
21.80
19.06
15.92
13.15
11.33
10.72
11.19
12.40
14.00
15.71
17.39
18.90
20.06
20.60
20.24
18.74
16.07
12.32
7.79
2.86
-2.12
-6.86
-11.21
-15.26
-19.31
-23.83
-29.26
-35.76
-42.93
-49.83
-55.10
-57.36
-55.66
-49.89
-40.71
-29.38
-17.34
-5.79
4.43
12.84
19.23
23.49
25.63
25.83
24.47
22.12
19.42
16.98
15.22
14.38
14.44
15.22
16.42
17.77
18.95
19.76
19.98
19.47
18.07
15.65
12.18
7.83
2.89
-2.24
-7.15
-11.57
-15.46
-18.99
-22.55
-26.53
-31.29
-37.00
-43.44
-49.95
-55.41
-58.54
-58.12
-53.45
-44.60
-32.46
-18.56
-4.68
7.64
17.42
24.37
28.78
31.16
31.95
31.33
29.42
26.42
22.82
19.42
17.06
16.26
17.02
18.79
20.77
22.27
22.92
22.59
21.35
19.21
16.15
12.16
7.46
2.38
-2.60
-7.10
-10.89
-13.99
-16.60
-18.92
-21.17
-23.49
-25.83
-27.88
-28.96
-28.09
-24.26
-16.98
-6.53
5.95
18.80
30.37
39.61
46.18
50.39
52.80
53.74
53.28
51.19
47.33
41.78
35.03
27.87
21.14
15.51
11.29
8.42
6.61
5.50
4.80
4.33
3.90
3.25
2.06
-0.02
-3.12
-7.14
-11.71
-16.38
-20.78
-24.80
-28.63
-32.69
-37.42
-43.01
-49.22
-55.24
-59.82
-61.60
-59.58
-53.47
-43.83
-31.91
-19.24
-7.26
3.06
11.14
16.83
20.12
21.15
20.20
17.79
14.64
11.55
9.24
8.04
7.94
8.64
9.76
11.03
12.35
13.67
14.86
15.63
15.56
14.37
11.97
8.63
4.80
0.93
-2.67
-5.98
-9.13
-12.37
-15.97
-20.15
-25.08
-30.73
-36.79
-42.50
-46.72
-48.20
-46.05
-40.00
-30.63
-19.18
-7.15
4.11
13.67
21.01
25.91
28.31
28.31
26.23
22.76
18.82
15.37
13.13
12.33
12.77
13.99
15.49
16.93
18.14
19.01
19.47
19.36
18.52
16.83
14.31
11.08
7.39
3.55
-0.17
-3.61
-6.79
-9.93
-13.39
-17.53
-22.60
-28.55
-34.94
-40.95
-45.49
-47.49
-46.11
-41.06
-32.67
-21.90
-10.06
1.46
11.53
19.38
24.73
27.63
28.38
27.40
25.21
22.40
19.56
17.24
15.82
15.49
16.16
17.53
19.20
20.76
21.88
22.38
22.17
21.21
19.53
17.18
14.27
10.93
7.38
3.84
0.46
-2.74
-5.91
-9.34
-13.41
-18.40
-24.32
-30.81
-37.05
-41.92
-44.29
-43.28
-38.63
-30.77
-20.68
-9.66
1.04
10.43
17.89
23.07
25.83
26.22
24.48
21.08
16.73
12.27
8.49
5.98
5.00
5.47
6.99
9.00
10.98
12.49
13.25
13.14
12.12
10.27
7.69
4.61
1.25
-2.18
-5.56
-8.94
-12.52
-16.56
-21.34
-26.98
-33.33
-39.90
-45.78
-49.82
-50.90
-48.21
-41.68
-31.90
-20.13
-7.81
3.72
13.51
20.96
25.84
28.12
27.97
25.79
22.20
18.03
14.07
10.99
9.12
8.57
9.19
10.76
13.03
15.61
18.02
19.68
20.07
18.88
16.18
12.36
8.04
3.74
-0.27
-4.03
-7.83
-12.09
-17.17
-23.31
-30.44
-38.14
-45.60
-51.67
-55.03
-54.62
-49.92
-41.15
-29.29
-15.80
-2.26
9.90
19.65
26.46
30.28
31.41
30.43
27.99
24.73
21.24
18.01
15.51
14.12
14.01
15.13
17.14
19.51
21.64
23.04
23.37
22.50
20.42
17.26
13.29
8.85
4.32
-0.02
-4.07
-7.99
-12.15
-17.01
-22.96
-30.10
-38.11
-46.23
-53.26
-57.83
-58.78
-55.44
-47.92
-37.11
-24.34
-11.07
1.50
12.56
21.62
28.37
32.61
34.29
33.65
31.32
28.18
25.23
23.19
22.39
22.71
23.76
25.11
26.46
27.63
28.49
28.86
28.52
27.21
24.78
21.30
16.99
12.16
7.20
2.36
-2.24
-6.64
-11.03
-15.70
-20.95
-26.99
-33.81
-40.98
-47.65
-52.58
-54.52
-52.57
-46.49
-36.82
-24.76
-11.75
0.86
12.03
21.16
27.93
32.26
34.21
34.02
32.16
29.25
26.04
23.22
21.31
20.55
20.90
22.16
24.01
26.11
28.16
29.86
30.92
31.08
30.22
28.31
25.46
21.83
17.63
13.00
8.11
3.06
-2.01
-6.95
-11.77
-16.56
-21.56
-27.03
-33.06
-39.35
-45.12
-49.22
-50.39
-47.76
-41.16
-31.23
-19.28
-6.82
4.81
14.70
22.43
27.85
30.95
31.75
30.40
27.33
23.25
19.06
15.65
13.60
13.13
14.02
15.79
17.88
19.77
21.16
21.88
21.87
21.18
19.84
17.87
15.38
12.50
9.40
6.36
3.52
0.96
-1.47
-4.05
-7.16
-11.06
-15.89
-21.56
-27.76
-33.92
-39.27
-42.87
-43.84
-41.57
-35.99
-27.62
-17.46
-6.68
3.61
12.55
19.55
24.23
26.43
26.19
23.87
20.14
15.87
11.89
8.87
7.17
6.82
7.65
9.38
11.69
14.24
16.70
18.74
20.07
20.45
19.72
17.83
14.89
11.13
7.00
2.89
-0.88
-4.21
-7.31
-10.56
-14.44
-19.26
-25.06
-31.53
-38.00
-43.51
-47.02
-47.56
-44.52
-37.87
-28.18
-16.65
-4.69
6.28
15.26
21.73
25.64
27.24
26.91
25.09
22.32
19.22
16.44
14.57
13.86
14.20
15.20
16.34
17.24
17.78
18.05
18.21
18.35
18.29
17.69
16.18
13.48
9.64
4.99
0.03
-4.73
-9.02
-12.86
-16.58
-20.61
-25.33
-30.87
-37.06
-43.39
-49.07
-53.13
-54.60
-52.74
-47.28
-38.57
-27.51
-15.41
-3.62
6.72
14.90
20.59
23.85
24.90
24.10
21.93
18.96
15.87
13.33
11.93
11.92
13.24
15.48
18.05
20.39
22.09
22.98
23.04
22.39
21.12
19.25
16.77
13.66
9.98
5.92
1.77
-2.21
-5.87
-9.32
-12.91
-17.13
-22.35
-28.60
-35.43
-41.89
-46.78
-48.93
-47.59
-42.64
-34.60
-24.52
-13.64
-3.07
6.36
14.16
20.01
23.76
25.30
24.69
22.29
18.74
14.91
11.58
9.37
8.48
8.75
9.81
11.26
12.77
14.16
15.40
16.41
17.02
16.98
15.96
13.77
10.44
6.33
1.91
-2.33
-6.15
-9.62
-13.02
-16.72
-20.96
-25.81
-31.13
-36.52
-41.34
-44.73
-45.78
-43.78
-38.49
-30.30
-20.23
-9.55
0.47
8.87
15.09
18.88
20.19
19.16
16.17
11.88
7.20
3.06
0.14
-1.30
-1.49
-0.95
-0.23
0.26
0.35
0.01
-0.75
-1.93
-3.61
-5.83
-8.62
-11.93
-15.66
-19.64
-23.63
-27.41
-30.86
-34.02
-37.12
-40.44
-44.05
-47.54
-50.06
-50.46
-47.70
-41.23
-31.07
-17.82
-2.45
13.92
30.06
44.84
57.28
66.68
72.83
76.02
76.87
76.11
74.36
71.89
68.78
64.96
60.40
55.18
49.48
43.49
37.43
31.47
25.70
20.13
14.77
9.56
4.54
-0.28
-4.88
-9.27
-13.53
-17.84
-22.39
-27.44
-33.19
-39.67
-46.62
-53.41
-59.06
-62.46
-62.63
-59.10
-52.06
-42.35
-31.14
-19.71
-9.15
-0.21
6.62
11.12
13.27
13.27
11.54
8.72
5.54
2.75
0.91
0.36
1.09
2.83
5.09
7.32
9.05
10.02
10.13
9.41
7.96
5.85
3.18
0.02
-3.52
-7.31
-11.31
-15.56
-20.26
-25.67
-31.96
-38.96
-46.07
-52.18
-55.97
-56.28
-52.45
-44.58
-33.58
-20.88
-8.06
3.48
12.74
19.21
22.86
24.02
23.29
21.40
19.02
16.71
14.86
13.69
13.32
13.77
14.93
16.57
18.34
19.88
20.87
21.08
20.37
18.61
15.81
12.02
7.49
2.61
-2.25
-6.86
-11.31
-15.98
-21.39
-27.83
-35.13
-42.52
-48.78
-52.54
-52.73
-48.88
-41.24
-30.67
-18.41
-5.79
6.04
16.16
23.95
29.08
31.53
31.56
29.70
26.66
23.13
19.78
17.12
15.49
15.01
15.55
16.76
18.19
19.39
20.07
20.12
19.52
18.29
16.37
13.71
10.31
6.35
2.13
-2.04
