1705582701.00
64.000000
-0.00
-0.00
-0.00
-0.00
-0.00
-0.00
-0.00
-0.00
-0.00
-0.00
0.00
0.01
0.01
-0.00
-0.03
-0.05
-0.05
0.00
0.13
0.36
0.66
1.01
1.37
1.72
2.06
2.40
2.79
3.24
3.80
4.42
5.06
5.66
6.20
6.68
7.15
7.68
8.31
9.14
10.09
11.04
11.88
12.56
13.14
13.76
14.65
15.96
17.91
20.32
22.90
25.38
27.58
29.57
31.68
34.32
37.81
42.54
48.15
54.10
59.83
64.97
69.58
74.14
79.34
85.71
93.76
103.00
112.62
121.73
129.77
136.75
143.30
150.75
157.77
166.64
177.95
191.79
206.97
220.57
228.25
225.36
208.53
176.87
132.76
80.05
23.07
-34.94
-92.44
-149.16
-205.23
-260.37
-313.74
-363.88
-409.83
-450.90
-486.49
-515.72
-537.19
-549.16
-549.88
-538.25
-514.05
-478.47
-433.63
-382.14
-326.66
-269.41
-212.14
-156.10
-102.33
-51.68
-5.14
36.43
72.35
102.36
126.60
145.58
160.00
170.57
177.92
182.45
184.44
184.11
181.75
177.71
172.38
166.19
159.47
152.48
145.36
138.18
130.97
123.80
116.71
109.79
103.10
96.69
90.60
84.85
79.44
74.38
69.70
65.38
61.45
57.91
54.74
51.95
49.53
47.50
45.84
44.55
43.61
43.00
42.64
42.46
42.33
42.08
41.55
40.55
38.91
36.50
33.26
29.17
24.26
18.67
12.60
6.29
0.01
-5.97
-11.40
-16.06
-19.80
-22.53
-24.23
-24.94
-24.75
-23.80
-22.22
-20.16
-17.77
-15.17
-12.43
-9.63
-6.83
-4.07
-1.35
1.32
3.95
6.57
9.20
11.87
14.63
17.44
20.28
23.15
26.05
28.97
31.95
35.01
38.17
41.49
44.87
48.25
51.59
54.86
58.08
61.25
64.44
67.73
71.25
74.91
78.71
82.71
86.98
91.60
96.67
102.27
108.44
115.26
122.38
129.52
136.39
142.63
147.86
151.62
153.34
152.23
149.66
146.07
141.75
136.89
131.65
126.13
120.45
114.69
108.95
103.36
97.70
91.84
85.66
79.14
72.25
65.05
57.68
50.29
43.11
36.12
29.33
22.80
16.57
10.71
5.32
0.50
-3.64
-6.98
-9.62
-11.68
-13.30
-14.65
-15.84
-16.91
-17.86
-18.61
-19.07
-19.33
-19.54
-19.93
-20.74
-22.14
-24.12
-26.53
-29.08
-31.54
-33.88
-36.28
-39.14
-42.90
-47.82
-53.89
-60.74
-67.81
-74.59
-80.92
-87.03
-93.57
-101.25
-110.61
-121.69
-134.07
-147.02
-159.80
-172.00
-183.64
-195.20
-207.48
-221.57
-238.55
-259.11
-282.85
-307.79
-330.29
-345.93
-350.91
-343.58
-325.17
-299.34
-270.77
-243.44
-219.52
-199.29
-181.86
-166.32
-152.25
-139.82
-129.39
-121.08
-114.72
-109.96
-106.41
-103.63
-100.92
-97.21
-91.15
-81.47
-67.54
-49.67
-29.16
-7.89
12.18
29.55
43.49
54.00
61.60
67.04
70.95
73.70
75.34
75.79
75.00
73.19
70.84
68.54
66.74
65.51
64.50
63.16
60.94
57.56
53.07
47.75
41.93
35.89
29.79
23.65
17.34
10.63
3.18
-5.31
-14.86
-25.03
-34.74
-42.47
-46.56
-45.77
-39.76
-29.18
-15.62
-1.04
12.73
24.45
33.70
40.70
45.98
50.07
53.22
55.47
56.78
57.21
57.02
56.63
56.50
56.91
58.00
59.77
62.14
65.02
68.12
70.90
72.56
72.20
69.20
63.51
55.79
47.16
38.85
31.69
25.87
20.94
16.04
10.24
2.87
-6.30
-16.89
-27.91
-37.88
-45.05
-47.92
-45.71
-38.67
-28.06
-15.78
-3.73
6.66
14.73
20.56
24.61
27.42
29.41
30.77
31.57
31.93
32.03
32.18
32.75
33.94
35.75
37.85
39.69
40.75
40.72
39.70
38.15
36.63
35.52
34.88
34.44
33.81
32.75
31.20
29.27
26.96
24.14
20.57
16.17
11.27
6.76
3.83
3.63
6.75
12.96
21.31
30.36
38.78
45.62
50.53
53.63
55.29
55.86
55.48
54.19
51.99
49.03
45.59
42.10
38.89
36.09
33.59
31.18
28.64
25.88
22.99
20.11
17.28
14.41
11.26
7.62
3.44
-1.12
-5.75
-10.21
-14.40
-18.49
-22.80
-27.66
-33.28
-39.55
-46.01
-51.81
-55.91
-57.34
-55.49
-50.41
-42.82
-33.87
-24.75
-16.34
-8.99
-2.63
2.97
7.91
12.09
15.25
17.15
17.78
17.45
16.67
16.04
16.02
16.75
18.06
19.51
20.64
21.10
20.79
19.81
18.32
16.41
14.01
10.92
7.01
2.27
-3.03
-8.49
-13.66
-18.21
-22.06
-25.30
-28.27
-31.43
-35.38
-40.65
-47.60
-56.08
-65.29
-73.81
-79.86
-81.95
-79.32
-72.32
-62.17
-50.65
-39.40
-29.51
-21.35
-14.65
-8.96
-3.93
0.52
4.19
6.78
8.14
8.40
7.94
7.26
6.78
6.67
6.85
7.09
7.21
7.11
6.83
6.43
5.92
5.23
4.24
2.84
1.00
-1.23
-3.80
-6.67
-9.83
-13.27
-16.88
-20.43
-23.60
-26.14
-27.98
-29.35
-30.76
-32.85
-36.14
-40.85
-46.77
-53.19
-59.04
-63.03
-63.93
-60.90
-53.77
-43.18
-30.46
-17.28
-5.21
4.69
12.02
16.99
20.19
22.26
23.66
24.57
24.99
24.83
24.13
23.07
21.95
21.05
20.51
20.26
20.11
19.94
19.71
19.52
19.39
19.20
18.60
17.14
14.43
10.34
5.05
-0.94
-6.98
-12.44
-16.88
-20.16
-22.47
-24.34
-26.38
-29.19
-33.12
-38.14
-43.84
-49.35
-53.58
-55.33
-53.65
-48.10
-39.00
-27.42
-14.90
-3.03
7.04
14.79
20.40
24.36
27.18
29.14
30.22
30.30
29.30
27.42
25.10
22.87
21.17
20.11
19.54
19.06
18.32
17.12
15.45
13.49
11.38
9.17
6.75
3.95
0.64
-3.17
-7.28
-11.40
-15.25
-18.61
-21.42
-23.77
-25.88
-28.08
-30.79
-34.39
-39.15
-45.04
-51.52
-57.49
-61.48
-62.00
-58.13
-49.86
-38.28
-25.16
-12.43
-1.55
6.86
12.91
17.17
20.20
22.38
23.79
24.47
24.47
23.95
23.15
22.31
21.63
21.14
20.84
20.56
20.12
19.36
18.19
16.66
14.87
12.96
10.85
8.41
5.36
1.55
-3.03
-8.23
-13.74
-19.27
-24.49
-29.17
-33.13
-36.26
-38.65
-40.68
-42.99
-46.41
-51.46
-57.91
-64.69
-70.12
-72.56
-71.11
-66.00
-58.38
-49.72
-41.19
-33.36
-26.33
-20.13
-14.89
-10.97
-8.59
-7.64
-7.58
-7.73
-7.52
-6.70
-5.30
-3.49
-1.40
1.00
3.71
6.72
9.87
12.89
15.47
17.34
18.36
18.46
17.64
15.92
13.30
9.76
5.31
0.05
-5.79
-11.92
-18.01
-23.86
-29.39
-34.76
-40.26
-46.41
-53.74
-62.71
-73.39
-85.19
-96.81
-106.37
-111.92
-112.03
-106.24
-95.25
-80.66
-64.44
-48.37
-33.74
-21.21
-10.89
-2.56
4.15
9.66
14.33
18.42
22.07
25.40
28.47
31.26
33.68
35.51
36.50
36.51
35.64
34.23
32.72
31.38
30.15
28.61
26.15
22.29
16.95
10.45
3.43
-3.53
-10.07
-16.26
-22.56
-29.70
-38.49
-49.49
-62.80
-77.77
-92.92
-106.08
-114.85
-117.17
-111.92
-99.25
-80.52
-57.97
-34.08
-10.94
10.09
28.52
44.44
58.16
69.91
79.70
87.49
93.41
97.93
101.73
105.50
109.60
114.00
118.40
122.42
125.86
128.69
130.88
132.24
132.43
131.06
127.85
122.83
116.23
108.47
99.89
90.83
81.51
72.10
62.65
53.10
43.21
32.60
20.88
7.78
-6.67
-21.99
-37.22
-50.93
-61.55
-67.59
-68.20
-63.35
-53.94
-41.67
-28.42
-15.89
-5.09
3.60
10.39
15.64
19.61
22.39
23.97
24.50
24.27
23.83
23.69
24.18
25.29
26.73
28.07
28.88
28.84
27.72
25.44
22.12
18.07
13.84
10.01
6.91
4.46
2.20
-0.55
-4.24
-8.91
-14.09
-19.12
-23.44
-26.83
-29.56
-32.20
-35.50
-40.18
-46.76
-55.27
-65.13
-74.94
-82.66
-86.04
-83.33
-73.88
-58.51
-39.28
-18.83
0.39
16.86
30.10
40.52
48.87
55.74
61.35
65.50
67.94
68.59
67.69
65.76
63.38
61.02
58.87
56.81
54.50
51.48
47.45
42.32
36.26
29.56
22.48
14.99
6.80
-2.58
-13.50
-25.97
-39.68
-54.02
-68.16
-81.06
-91.33
-97.43
-98.14
-93.16
-83.53
-71.46
-59.53
-49.50
-41.58
-34.42
-26.09
-15.23
-1.88
12.60
26.31
37.79
46.65
53.45
59.04
63.96
68.05
70.75
71.51
70.33
67.82
65.01
62.82
61.68
61.38
61.21
60.47
58.73
56.06
52.91
49.79
46.95
44.25
41.22
37.23
31.87
25.10
17.33
9.26
1.54
-5.46
-11.85
-18.19
-25.25
-33.67
-43.63
-54.62
-65.46
-74.53
-80.14
-80.99
-76.54
-67.19
-54.17
-39.23
-24.16
-10.41
1.15
10.23
16.91
21.47
24.26
25.64
26.02
25.84
25.54
25.47
25.87
26.81
28.23
29.91
31.56
32.83
33.44
33.25
32.28
30.64
28.48
25.79
22.49
18.40
13.46
7.79
1.74
-4.30
-10.05
-15.47
-20.75
-26.35
-32.75
-40.33
-49.22
-59.03
-68.83
-77.18
-82.31
-82.62
-77.15
-66.02
-50.40
-32.17
-13.34
4.52
20.50
34.28
45.87
55.28
62.41
67.12
69.46
69.71
68.47
66.48
64.42
62.74
61.56
60.77
60.11
59.26
58.05
56.43
54.49
52.35
50.04
47.42
44.22
40.03
34.59
27.86
20.17
12.09
4.30
-2.75
-8.97
-14.64
-20.35
-26.75
-34.31
-43.26
-53.36
-63.94
-73.84
-81.62
-85.82
-85.38
-80.07
-70.57
-58.42
-45.48
-33.45
-23.42
-15.72
-10.12
-6.13
-3.32
-1.43
-0.29
0.22
0.36
0.42
0.66
1.18
1.83
2.34
2.50
2.33
2.07
2.15
2.86
4.26
6.04
7.69
8.70
8.85
8.23
7.19
6.06
5.00
3.84
2.28
-0.00
-3.08
-6.77
-10.72
-14.62
-18.33
-22.00
-26.02
-30.85
-36.88
-44.24
-52.71
-61.59
-69.70
-75.50
-77.46
-74.41
-66.05
-53.04
-36.98
-19.92
-3.76
10.13
21.23
29.65
35.89
40.52
43.98
46.49
48.19
49.18
49.61
49.65
49.57
49.66
50.13
51.08
52.46
54.04
55.48
56.43
56.60
55.85
54.20
51.83
49.00
45.97
42.86
39.64
36.13
32.13
27.57
22.57
17.46
12.56
8.07
3.90
-0.33
-5.25
-11.57
-19.90
-30.47
-42.93
-56.13
-68.21
-76.91
-80.16
-76.82
-67.08
-52.53
-35.61
-18.74
-3.65
9.13
19.87
29.10
36.98
43.02
46.29
46.10
42.48
36.44
29.58
23.52
19.20
16.72
15.52
14.82
14.12
13.39
12.83
12.54
12.21
11.12
8.42
3.51
-3.66
-12.51
-22.09
-31.47
-40.06
-47.87
-55.46
-63.70
-73.36
-84.70
-97.03
-108.57
-116.77
-118.86
-112.88
-98.45
-77.08
-51.82
-26.38
-3.95
13.64
26.14
34.55
40.30
44.52
47.73
49.87
50.69
50.09
48.32
45.82
43.09
40.44
38.09
36.18
35.00
34.93
36.22
38.79
42.03
44.94
46.47
45.81
42.75
37.60
31.00
23.65
15.99
8.10
-0.20
-9.24
-19.19
-29.79
-40.16
-48.87
-54.21
-54.69
-49.56
-39.19
-24.98
-8.95
6.84
20.84
32.27
41.11
47.81
52.92
56.94
60.12
62.63
64.50
65.77
66.47
66.67
66.42
65.76
64.77
63.55
62.21
60.77
59.02
56.53
52.69
46.94
39.06
29.31
18.46
7.52
-2.56
-11.22
-18.41
-24.59
-30.50
-36.90
-44.32
-52.81
-61.82
-70.20
-76.42
-78.99
-76.95
-70.23
-59.73
-47.07
-34.02
-21.96
-11.56
-2.73
5.02
12.15
18.81
24.80
29.75
33.40
35.80
37.32
38.44
39.51
40.66
41.78
42.62
42.94
42.64
41.77
40.42
38.70
36.60
34.00
30.76
26.71
21.79
16.09
9.82
3.28
-3.17
-9.27
-14.83
-19.86
-24.54
-29.27
-34.54
-40.87
-48.70
-58.02
-68.25
-78.14
-85.95
-89.92
-88.77
-82.20
-70.97
-56.72
-41.35
-26.51
-13.14
-1.51
8.64
17.65
25.69
32.75
38.63
43.18
46.37
48.39
49.56
50.22
50.65
50.99
51.25
51.35
51.19
50.59
49.46
47.65
45.09
41.80
37.84
33.34
28.42
23.21
17.78
12.25
6.79
1.61
-3.09
-7.25
-11.02
-14.84
-19.26
-24.88
-32.07
-40.90
-51.00
-61.42
-70.69
-77.06
-78.80
-74.73
-64.70
-49.81
-32.19
-14.49
0.88
12.33
19.40
22.59
22.84
21.16
18.28
14.64
10.51
6.25
2.35
-0.62
-2.11
-1.81
0.32
4.02
8.85
14.27
19.75
24.78
28.83
31.44
32.16
30.74
27.25
22.09
15.98
9.68
3.79
-1.52
-6.52
-11.72
-17.62
-24.42
-31.78
-38.81
-44.25
-46.79
-45.47
-39.97
-30.76
-18.99
-6.05
6.71
18.35
28.45
36.94
43.92
49.48
53.63
56.40
57.95
58.53
58.52
58.21
57.79
57.31
56.72
55.98
55.07
54.08
53.09
52.14
51.12
49.79
47.82
44.87
40.83
35.86
30.41
25.08
20.41
16.56
13.30
9.96
5.75
0.04
-7.29
-15.73
-24.19
-31.25
-35.56
-36.23
-33.05
-26.55
-17.78
-8.02
1.61
10.36
17.96
24.53
30.28
35.35
39.65
42.88
44.77
45.21
44.43
42.92
41.19
39.61
38.16
36.55
34.32
31.08
26.73
21.43
15.54
9.49
3.64
-1.81
-6.85
-11.61
-16.25
-20.85
-25.37
-29.56
-33.13
-35.90
-37.97
-39.66
-41.50
-44.01
-47.57
-52.28
-57.93
-64.00
-69.65
-73.83
-75.48
-73.78
-68.45
-59.92
-49.16
-37.45
-25.93
-15.29
-5.74
2.87
10.79
18.15
24.90
30.92
36.18
40.74
44.83
48.69
52.46
56.17
59.81
63.37
66.89
70.39
73.81
76.99
79.61
81.32
81.81
80.80
78.10
73.65
67.50
59.90
51.25
42.08
32.81
23.68
14.66
5.51
-4.03
-14.10
-24.73
-35.83
-47.27
-58.74
-69.63
-78.94
-85.42
-87.87
-85.65
-78.99
-68.96
-57.22
-45.43
-34.79
-25.88
-18.78
-13.35
-9.51
-7.33
-6.89
-8.13
-10.71
-14.08
-17.52
-20.32
-21.78
-21.30
-18.40
-12.96
-5.35
3.46
12.04
18.86
22.72
23.08
20.26
15.23
9.34
3.94
0.05
-1.99
-2.53
-2.59
-3.50
-6.47
-12.21
-20.61
-30.86
-41.54
-50.93
-57.25
-59.01
-55.25
-45.98
-32.30
-16.27
-0.41
13.13
23.05
29.35
33.04
35.63
38.50
42.58
48.20
55.21
63.18
71.31
78.39
82.86
83.25
78.82
70.04
58.65
46.99
36.99
29.13
22.12
13.40
0.32
-18.59
-42.82
-69.90
-96.23
-118.20
-133.33
-140.90
-141.82
-137.94
-131.13
-122.45
-112.12
-99.98
-86.28
-72.10
-59.21
-49.42
-43.70
-41.76
-42.19
-43.16
-43.04
-40.84
-36.28
-29.62
-21.50
-12.83
-4.54
2.63
8.43
13.23
17.90
23.37
30.26
38.58
47.72
56.58
63.92
68.60
69.89
67.61
62.20
54.65
46.34
38.74
33.00
29.74
28.81
29.36
30.16
29.98
28.13
24.67
20.44
16.54
13.73
11.97
10.24
7.01
0.95
-8.49
-20.74
-34.52
-48.44
-61.55
-73.80
-85.74
-98.15
-111.44
-125.30
-138.74
-150.37
-158.76
-162.76
-161.63
-155.00
-142.87
-125.72
-104.60
-81.25
-57.92
-37.05
-20.74
-10.26
-5.71
-5.98
-9.04
-12.48
-14.09
-12.34
-6.72
2.51
14.43
28.00
42.23
56.28
69.46
81.07
90.41
96.86
100.04
99.90
96.69
90.87
83.01
73.71
63.57
53.08
42.69
32.71
23.37
14.97
7.83
2.15
-2.12
-5.50
-8.77
-12.67
-17.32
-21.98
-24.96
-24.25
-18.22
-6.24
10.97
31.64
53.50
74.41
92.72
107.35
117.66
123.31
124.33
121.18
114.91
107.02
99.10
92.40
87.46
83.94
80.96
77.40
72.40
65.51
56.67
45.97
33.42
18.82
1.89
-17.57
-39.44
-63.19
-87.95
-112.66
-136.19
-157.52
-175.71
-189.94
-199.59
-204.50
-205.08
-202.24
-197.20
-191.12
-184.62
-177.71
-169.78
-159.76
-146.34
-128.18
-104.26
-74.26
-38.92
-0.14
39.19
75.99
107.69
132.80
150.84
161.86
165.76
162.18
150.77
132.04
107.84
81.35
56.16
35.11
19.31
8.08
-0.36
-7.85
-15.44
-23.28
-31.06
-38.65
-46.52
-55.60
-66.98
-81.22
-98.16
-116.95
-136.39
-155.37
-173.28
-190.06
-206.23
-222.66
-240.24
-259.82
-282.15
-307.89
-337.42
-370.37
-404.89
-437.37
-462.91
-476.71
-475.81
-460.27
-433.22
-399.60
-364.39
-330.99
-300.68
-273.25
-247.92
-224.29
-202.47
-182.74
-165.00
-148.63
-132.75
-116.69
-100.35
-84.22
-69.13
-55.80
-44.46
-34.79
-26.04
-17.38
-8.28
1.37
11.19
20.54
28.80
35.61
41.03
45.43
49.35
53.31
57.58
62.15
66.79
71.05
74.52
76.93
78.26
78.80
79.06
79.61
80.86
82.96
85.71
88.70
91.53
94.09
96.73
100.25
105.62
113.65
124.63
138.17
153.43
169.41
185.36
201.05
216.76
233.17
251.25
272.09
296.64
325.15
356.38
387.26
413.24
429.52
432.76
422.44
401.10
373.30
343.88
316.33
292.16
271.29
253.09
237.19
223.74
213.09
205.23
199.58
195.11
190.84
186.16
181.01
175.80
171.06
166.99
163.36
159.43
154.37
147.58
139.02
129.13
118.57
107.85
97.08
86.07
74.56
62.55
50.43
38.86
28.55
19.99
13.35
8.55
5.40
3.67
3.08
3.24
3.67
3.87
3.49
2.47
1.00
-0.52
-1.78
-2.66
-3.41
-4.52
-6.47
-9.51
-13.53
-18.07
-22.50
-26.27
-29.01
-30.66
-31.39
-31.58
-31.58
-31.70
-32.16
-33.05
-34.40
-36.15
-38.13
-40.13
-41.91
-43.29
-44.28
-44.97
-45.49
-45.92
-46.17
-46.04
-45.37
-44.09
-42.29
-40.17
-37.98
-35.93
-34.19
-32.91
-32.14
-31.82
-31.77
-31.74
-31.58
-31.34
-31.30
-31.83
-33.25
-35.57
-38.54
-41.69
-44.45
-46.32
-47.04
-46.59
-45.29
-43.89
-43.40
-44.86
-49.03
-55.91
-64.63
-73.50
-80.63
-84.42
-84.18
-80.18
-73.41
-65.11
-56.21
-47.21
-38.26
-29.47
-21.14
-13.80
-8.02
-4.17
-2.23
-1.84
-2.43
-3.52
-4.83
-6.33
-8.17
-10.47
-13.20
-16.10
-18.79
-20.92
-22.33
-23.19
-23.88
-24.85
-26.51
-28.98
-32.25
-36.27
-41.09
-46.93
-54.02
-62.46
-71.95
-81.81
-91.09
-98.81
-104.30
-107.19
-107.39
-104.83
-99.29
-90.39
-77.70
-61.02
-40.66
-17.53
6.96
31.09
53.18
71.92
86.52
96.83
103.16
106.17
106.61
105.18
102.44
98.83
94.73
90.48
86.42
82.76
79.54
76.58
73.59
70.16
66.01
61.00
55.14
48.56
41.47
34.18
27.01
20.31
14.38
9.32
4.87
0.51
-4.61
-11.23
-19.83
-30.39
-42.33
-54.52
-65.60
-74.16
-79.01
-79.42
-75.26
-67.05
-55.80
-42.85
-29.52
-17.02
-6.23
2.29
8.25
11.65
12.74
12.03
10.33
8.56
7.65
8.31
10.89
15.35
21.28
28.05
34.95
41.28
46.42
49.90
51.55
51.53
50.43
49.08
48.23
48.20
48.73
48.96
47.80
44.40
38.38
30.04
20.24
10.08
0.67
-7.21
-13.25
-17.66
-20.97
-23.93
-27.00
-30.22
-33.06
-34.65
-34.07
-30.79
-24.90
-17.14
-8.72
-0.92
5.23
9.26
11.36
12.16
12.52
13.23
14.88
17.86
22.48
28.99
37.51
47.96
59.90
72.64
85.30
97.13
107.52
116.11
122.56
126.52
127.58
125.33
119.53
110.15
97.39
81.50
62.88
41.89
18.97
-5.20
-29.70
-53.33
-74.81
-93.01
-107.30
-117.62
-124.53
-128.76
-130.91
-131.13
-129.21
-124.82
-118.03
-109.49
-100.39
-91.97
-85.08
-79.81
-75.58
-71.49
-66.67
-60.60
-53.20
-44.76
-35.82
-27.01
-18.89
-11.90
-6.18
-1.62
2.07
5.22
8.02
10.55
12.76
14.62
16.13
17.35
18.30
18.88
18.96
18.41
17.20
15.45
13.39
11.31
9.42
7.77
6.16
4.25
1.62
-1.95
-6.31
-10.88
-14.81
-17.28
-17.79
-16.30
-13.19
-9.06
-4.49
0.12
4.56
8.74
12.60
16.08
19.22
22.23
25.51
29.49
34.48
40.39
46.74
52.75
57.61
60.62
61.40
59.91
56.44
51.57
46.08
40.86
36.63
33.83
32.35
31.67
31.00
29.59
27.01
23.26
18.68
13.70
8.59
3.30
-2.49
-9.29
-17.37
-26.47
-35.72
-43.64
-48.66
-49.50
-45.75
-37.96
-27.50
-16.18
-5.66
2.94
9.24
13.51
16.36
18.46
20.25
21.89
23.29
24.29
24.72
24.53
23.72
22.39
20.59
18.43
15.99
13.41
10.81
8.29
5.89
3.50
0.88
-2.23
-6.08
-10.72
-16.04
-21.70
-27.26
-32.32
-36.70
-40.43
-43.69
-46.75
-49.80
-52.92
-56.16
-59.52
-62.96
-66.33
-69.33
-71.53
-72.48
-71.83
-69.52
-65.75
-60.89
-55.37
-49.48
-43.29
-36.83
-30.15
-23.46
-17.18
-11.79
-7.67
-4.85
-2.97
-1.35
0.68
3.53
7.10
10.92
14.36
17.03
18.98
20.57
22.27
24.29
26.47
28.32
29.27
29.01
27.55
25.19
22.36
19.40
16.50
13.78
11.33
9.22
7.36
5.36
2.64
-1.40
-7.02
-13.83
-20.87
-26.85
-30.67
-31.82
-30.46
-27.27
-23.13
-18.75
-14.57
-10.73
-7.34
-4.48
-2.23
-0.68
0.30
0.91
1.50
2.34
3.55
5.00
6.39
7.42
7.91
7.93
7.79
7.87
8.51
9.79
11.51
13.26
14.53
14.88
14.09
12.17
9.39
6.07
2.53
-1.07
-4.71
-8.46
-12.43
-16.69
-21.34
-26.47
-32.15
-38.35
-44.80
-50.94
-55.95
-58.97
-59.38
-56.99
-52.01
-44.97
-36.39
-26.77
-16.47
-5.87
4.56
14.20
22.41
28.64
32.69
34.70
35.23
35.03
34.91
35.45
36.79
38.63
40.37
41.40
41.44
40.69
39.70
39.09
39.16
39.63
39.75
38.64
35.67
30.82
24.74
18.50
13.25
9.90
8.77
9.43
10.61
10.22
5.82
-4.75
-22.33
-45.63
-71.12
-93.83
-108.81
-112.78
-105.26
-88.54
-66.68
-44.10
-24.19
-8.76
1.95
8.69
12.65
14.97
16.51
17.83
19.16
20.39
21.27
21.48
20.82
19.40
17.61
16.10
15.57
16.60
19.38
23.62
28.59
33.19
36.35
37.21
35.48
31.44
25.94
20.02
14.60
10.24
6.95
4.28
1.60
-1.66
-5.76
-10.68
-16.18
-22.03
-28.10
-34.26
-40.28
-45.68
-49.76
-51.73
-51.02
-47.44
-41.31
-33.29
-24.20
-14.81
-5.68
2.83
10.47
17.06
22.47
26.64
29.66
31.80
33.42
34.87
36.33
37.74
38.89
39.51
39.50
38.97
38.21
37.54
37.18
37.09
37.08
36.82
36.02
34.52
32.38
29.68
26.55
22.99
18.90
14.27
9.23
4.24
-0.10
-3.35
-5.47
-6.90
-8.52
-11.19
-15.55
-21.72
-29.38
-37.84
-46.26
-53.72
-59.39
-62.59
-62.95
-60.53
-55.76
-49.19
-41.35
-32.50
-22.73
-12.14
-1.15
9.39
18.42
24.92
28.40
29.13
28.07
26.61
26.09
27.49
31.04
36.09
41.08
43.87
42.53
36.24
25.88
14.01
3.82
-2.26
-3.62
-1.73
0.62
0.74
-2.85
-10.07
-19.77
-30.44
-40.72
-49.49
-55.83
-59.08
-59.20
-56.97
-53.84
-51.27
-49.91
-49.25
-47.95
-44.70
-38.90
-30.96
-21.91
-12.63
-3.54
5.38
14.11
22.16
28.68
32.90
34.67
34.58
33.72
33.11
33.26
33.96
34.56
34.38
33.05
30.70
27.91
25.43
23.84
23.27
23.27
23.03
21.61
18.42
13.45
7.29
1.07
-4.07
-7.27
-8.38
-7.95
-7.20
-7.47
-9.78
-14.26
-20.01
-25.43
-28.76
-28.91
-25.78
-20.12
-13.03
-5.33
2.76
11.49
21.20
31.91
43.13
54.00
63.63
71.39
77.06
80.69
82.52
82.84
81.92
80.00
77.26
73.84
69.92
65.84
61.99
58.88
56.71
55.29
53.90
51.51
47.22
40.53
31.57
20.88
9.13
-3.12
-15.48
-27.63
-39.25
-49.99
-59.68
-68.47
-76.78
-85.08
-93.48
-101.45
-107.79
-110.97
-109.58
-102.89
-90.97
-74.77
-55.70
-35.32
-15.06
3.97
20.92
35.19
46.32
54.04
58.33
59.65
58.96
57.67
57.19
58.59
62.22
67.64
74.00
80.41
86.33
91.67
96.55
100.88
104.04
104.81
101.67
93.37
79.42
60.46
38.19
15.12
-6.03
-22.88
-33.96
-38.86
-38.12
-32.95
-24.78
-14.97
-4.63
5.33
14.05
20.72
24.69
25.66
23.87
20.11
15.52
11.18
8.01
6.54
7.07
9.54
13.44
17.38
19.01
15.30
3.30
-18.60
-49.59
-85.97
-121.82
-150.69
-167.65
-170.93
-162.37
-146.51
-128.58
-112.74
-100.87
-92.81
-87.41
-83.68
-81.42
-80.86
-81.90
-83.50
-83.81
-81.02
-74.34
-64.66
-54.21
-45.66
-40.93
-40.38
-42.79
-45.96
-47.82
-47.07
-43.56
-37.95
-31.16
-23.82
-16.10
-7.77
1.32
10.99
20.56
29.02
35.49
39.47
41.15
41.27
40.93
41.19
42.69
45.51
49.15
52.84
55.84
57.77
58.56
58.40
57.42
55.55
52.59
48.35
42.84
36.38
29.47
22.67
16.31
10.50
5.05
-0.24
-5.66
-11.43
-17.70
-24.50
-31.69
-38.84
-45.18
-49.80
-51.72
-50.32
-45.47
-37.66
-27.85
-17.22
-6.82
2.58
10.64
17.33
22.77
27.10
30.38
32.61
33.76
33.93
33.42
32.65
32.05
31.89
32.16
32.60
32.84
32.66
32.03
31.14
30.20
29.31
28.34
27.01
25.07
22.40
19.11
15.40
11.56
7.74
3.98
0.13
-4.00
-8.64
-13.90
-19.75
-25.99
-32.33
-38.30
-43.37
-46.93
-48.39
-47.34
-43.66
-37.63
-29.84
-21.06
-12.00
-3.20
4.96
12.16
18.03
22.19
24.37
24.64
23.48
21.73
20.28
19.82
20.58
22.30
24.50
26.64
28.35
29.52
30.20
30.51
30.48
30.05
29.05
27.25
24.50
20.77
16.24
11.21
6.07
1.15
-3.37
-7.55
-11.62
-15.96
-20.84
-26.32
-32.08
-37.48
-41.64
-43.75
-43.32
-40.31
-35.03
-28.04
-19.92
-11.20
-2.42
5.82
12.90
18.32
21.87
23.67
24.14
23.81
23.13
22.37
21.68
21.10
20.64
20.31
20.06
19.82
19.51
19.11
18.61
17.95
17.00
15.55
13.39
10.42
6.72
2.49
-1.98
-6.46
-10.74
-14.75
-18.56
-22.37
-26.51
-31.27
-36.74
-42.54
-47.83
-51.44
-52.25
-49.59
-43.53
-34.81
-24.54
-13.79
-3.35
6.39
15.23
22.99
29.37
34.12
37.11
38.51
38.84
38.81
39.09
40.12
41.98
44.38
46.84
48.86
50.17
50.86
51.32
52.02
53.27
54.96
56.63
57.64
57.51
56.18
54.03
51.80
50.21
49.84
51.02
53.92
58.54
64.49
70.67
75.18
75.58
69.77
57.05
38.76
18.18
-0.46
-13.38
-18.38
-15.28
-5.63
8.13
23.32
37.45
48.22
53.67
52.53
44.77
31.99
17.06
3.16
-7.64
-15.39
-22.39
-32.29
-48.52
-72.64
-103.44
-137.03
-167.82
-190.32
-200.53
-197.16
-181.66
-157.76
-130.21
-103.57
-81.10
-64.44
-53.75
-48.23
-46.64
-47.69
-50.07
-52.59
-54.17
-54.17
-52.41
-49.34
-45.77
-42.48
-40.04
-38.47
-37.46
-36.51
-35.25
-33.66
-32.16
-31.39
-32.02
-34.32
-37.97
-42.05
-45.18
-46.00
-43.53
-37.60
-28.73
-18.01
-6.64
4.36
14.39
23.28
31.04
37.76
43.39
47.80
50.86
52.50
52.93
52.52
51.73
50.97
50.42
50.06
49.67
48.96
47.74
46.00
43.81
41.35
38.72
35.90
32.78
29.24
25.27
21.00
16.75
12.84
9.41
6.34
3.29
-0.15
-4.26
-9.11
-14.61
-20.55
-26.71
-32.83
-38.52
-43.21
-46.20
-46.85
-44.79
-40.08
-33.23
-25.09
-16.61
-8.63
-1.75
3.70
7.63
10.16
11.52
12.02
11.96
11.64
11.27
11.01
10.91
10.98
11.21
11.60
12.09
12.61
13.01
13.12
12.77
11.87
10.42
8.55
6.40
4.16
1.92
-0.35
-2.72
-5.41
-8.63
-12.62
-17.49
-23.20
-29.40
-35.52
-40.74
-44.20
-45.15
-43.17
-38.28
-31.00
-22.14
-12.64
-3.30
5.37
13.11
19.81
25.41
29.75
32.70
34.28
34.71
34.43
33.93
33.55
33.35
33.20
32.82
31.99
30.70
29.11
27.42
25.72
23.91
21.69
18.73
14.84
10.09
4.87
-0.30
-4.99
-9.03
-12.57
-16.02
-19.79
-24.25
-29.56
-35.72
-42.47
-49.29
-55.35
-59.59
-60.94
-58.69
-52.70
-43.55
-32.35
-20.41
-8.89
1.53
10.63
18.48
25.22
30.83
35.10
37.81
38.93
38.75
37.91
37.14
37.02
37.76
39.11
40.54
41.49
41.58
40.72
39.11
37.03
34.68
32.15
29.33
26.13
22.48
18.39
13.93
9.20
4.28
-0.75
-5.76
-10.64
-15.32
-19.79
-24.24
-28.98
-34.36
-40.54
-47.33
-54.14
-59.98
-63.72
-64.39
-61.43
-54.86
-45.27
-33.71
-21.32
-9.13
2.18
12.26
21.07
28.64
35.01
40.14
43.97
46.52
48.03
48.96
49.82
51.07
52.88
55.06
57.20
58.76
59.46
59.34
58.74
58.23
58.31
59.16
60.63
62.20
63.34
63.65
63.14
62.17
61.35
61.33
62.49
64.85
68.05
71.43
74.11
74.95
72.70
66.30
55.24
40.00
22.07
3.71
-12.79
-25.71
-34.30
-38.59
-38.96
-35.68
-28.70
-17.95
-3.87
12.18
28.03
41.07
49.08
50.76
46.12
36.35
23.48
9.63
-3.61
-15.70
-27.31
-40.02
-55.66
-75.43
-99.26
-125.55
-151.50
-173.71
-189.06
-195.45
-192.16
-180.01
-161.21
-138.96
-116.87
-98.21
-85.21
-78.67
-77.97
-81.49
-87.21
-93.30
-98.42
-101.82
-103.27
-102.90
-101.09
-98.18
-94.35
-89.46
-83.03
-74.48
-63.35
-49.61
-33.67
-16.38
1.26
18.29
33.84
47.26
58.19
66.50
72.39
76.31
78.81
80.39
81.36
81.77
81.52
80.48
78.62
76.09
73.18
70.21
67.42
64.79
62.11
59.06
55.37
50.85
45.51
39.51
33.08
26.51
20.07
13.91
8.10
2.56
-2.98
-8.85
-15.38
-22.71
-30.66
-38.61
-45.67
-50.84
-53.29
-52.55
-48.59
-41.82
-33.00
-23.01
-12.82
-3.25
5.10
11.93
17.27
21.34
24.41
26.70
28.32
29.36
29.97
30.36
30.75
31.29
31.99
32.70
33.23
33.44
33.23
32.67
31.81
30.67
29.21
27.26
24.60
21.05
16.55
11.25
5.44
-0.47
-6.13
-11.36
-16.22
-20.92
-25.79
-31.17
-37.30
-44.25
-51.86
-59.53
-66.37
-71.22
-72.91
-70.65
-64.25
-54.23
-41.71
-28.12
-14.77
-2.62
7.87
16.69
24.04
30.12
35.08
38.87
41.46
42.88
43.33
43.13
42.61
42.03
41.51
41.03
40.54
40.01
39.46
38.85
38.04
36.77
34.74
31.78
27.93
23.51
18.88
14.32
9.83
5.19
0.12
-5.59
-11.86
-18.46
-25.02
-31.25
-36.97
-42.20
-47.14
-52.05
-57.18
-62.50
-67.68
-71.95
-74.34
-73.85
-69.88
-62.39
-51.94
-39.57
-26.43
-13.51
-1.46
9.36
18.84
26.87
33.35
38.11
41.11
42.55
42.84
42.53
42.09
41.75
41.53
41.28
40.87
40.23
39.35
38.24
36.85
35.06
32.77
29.92
26.55
22.75
18.58
14.09
9.28
4.21
-0.97
-6.06
-10.77
-14.91
-18.49
-21.79
-25.38
-29.89
-35.83
-43.16
-51.28
-58.96
-64.78
-67.39
-65.98
-60.48
-51.48
-40.10
-27.66
-15.31
-3.90
6.11
14.57
21.51
26.94
30.87
33.28
34.28
34.19
33.48
32.69
32.15
31.95
31.93
31.81
31.46
30.87
30.13
29.34
28.37
26.97
24.85
21.85
18.05
13.67
9.02
4.30
-0.39
-5.10
-9.93
-15.12
-20.91
-27.51
-34.94
-42.87
-50.57
-56.91
-60.69
-60.94
-57.27
-50.02
-40.14
-28.84
-17.24
-6.09
4.21
13.55
21.76
28.63
33.80
37.05
38.42
38.27
37.25
35.99
34.93
34.21
33.70
33.11
32.17
30.73
28.85
26.74
24.59
22.47
20.17
17.32
13.55
8.73
3.11
-2.82
-8.52
-13.69
-18.37
-22.89
-27.66
-33.05
-39.33
-46.52
-54.50
-62.76
-70.43
-76.32
-79.08
-77.71
-71.87
-62.06
-49.51
-35.69
-21.90
-8.96
2.86
13.52
23.06
31.31
38.02
42.94
46.05
47.59
48.05
47.92
47.65
47.39
47.17
46.84
46.23
45.23
43.76
41.81
39.33
36.31
32.73
28.64
24.11
19.21
13.93
8.18
1.87
-5.06
-12.45
-19.99
-27.32
-34.21
-40.75
-47.33
-54.62
-63.26
-73.64
-85.63
-98.47
-110.80
-121.02
-127.66
-129.83
-127.54
-121.59
-113.29
-103.94
-94.41
-84.93
-75.32
-65.39
-55.34
-45.99
-38.60
-34.29
-33.49
-35.58
-38.86
-41.00
-39.63
-32.89
-19.93
-1.14
21.70
45.55
66.60
81.41
88.00
86.71
80.11
71.90
65.37
62.04
61.31
61.27
59.82
55.79
49.19
40.73
31.11
20.64
9.25
-3.13
-16.16
-29.05
-40.76
-50.29
-56.96
-60.49
-60.86
-58.19
-52.60
-44.13
-33.01
-19.93
-6.18
6.50
16.47
23.02
26.76
29.44
33.05
38.84
46.84
56.06
65.20
73.36
80.18
85.49
89.05
90.61
90.44
89.70
90.12
93.03
98.15
103.19
104.69
99.76
87.70
70.59
52.30
36.76
26.20
20.65
18.48
17.73
17.38
17.70
19.88
24.97
33.16
43.63
55.11
66.77
78.78
92.21
108.21
127.14
148.00
168.70
186.79
200.23
207.78
208.91
203.50
191.69
174.05
151.83
127.08
102.37
80.03
61.69
47.90
38.27
31.66
26.54
21.15
13.91
3.77
-9.57
-25.37
-42.12
-57.87
-70.83
-79.62
-83.61
-82.94
-78.57
-72.06
-65.31
-60.14
-57.82
-58.67
-61.96
-66.17
-69.49
-70.29
-67.67
-61.56
-52.83
-42.93
-33.58
-26.24
-21.76
-20.14
-20.67
-22.24
-23.77
-24.57
-24.39
-23.41
-22.07
-20.92
-20.53
-21.50
-24.30
-29.13
-35.72
-43.34
-50.87
-57.20
-61.57
-63.88
-64.73
-65.22
-66.62
-70.03
-76.13
-85.02
-96.17
-108.41
-120.17
-129.86
-136.38
-139.57
-140.32
-140.28
-141.19
-144.23
-149.62
-156.68
-164.31
-171.42
-177.34
-181.69
-184.24
-184.65
-182.49
-177.48
-169.71
-159.72
-148.23
-135.80
-122.55
-108.29
-92.81
-76.38
-59.96
-45.09
-33.35
-25.74
-22.25
-21.76
-22.50
-22.74
-21.48
-18.87
-15.76
-13.06
-10.76
-7.49
-0.76
11.92
31.88
58.38
88.74
119.26
146.54
168.54
184.86
196.25
203.69
207.54
207.37
202.17
191.11
174.27
152.95
129.63
107.27
88.37
74.17
64.40
57.61
52.04
46.41
40.26
33.86
27.69
22.11
17.28
13.52
11.35
11.29
12.98
14.78
14.09
8.55
-2.32
-16.36
-29.36
-37.03
-37.04
-30.12
-19.54
-9.26
-1.96
1.97
4.19
7.20
12.85
21.42
31.42
40.29
45.41
45.16
39.45
29.78
18.58
8.35
0.88
-3.18
-4.17
-3.02
-0.78
1.69
3.72
4.80
4.45
2.28
-1.88
-7.82
-14.70
-21.15
-25.49
-26.17
-22.48
-14.80
-4.51
6.46
16.25
23.50
27.54
28.39
26.78
23.92
21.38
20.71
23.00
28.61
37.28
48.37
61.20
75.18
89.48
102.72
112.79
117.21
113.89
102.03
82.65
58.50
33.33
10.85
-6.22
-16.59
-20.35
-18.57
-12.80
-4.65
4.47
13.56
22.05
29.81
37.01
43.84
50.26
55.85
59.95
62.01
61.91
60.12
57.52
55.03
53.27
52.50
52.67
53.58
55.00
56.67
58.16
59.00
58.78
57.37
55.09
52.66
50.96
50.64
51.79
53.78
55.38
54.92
50.72
41.48
26.70
6.93
-16.11
-39.90
-61.61
-78.85
-90.11
-95.04
-94.30
-89.15
-81.02
-71.22
-60.75
-50.41
-40.83
-32.49
-25.81
-21.01
-18.19
-17.26
-17.93
-19.70
-21.94
-23.99
-25.32
-25.65
-24.97
-23.58
-21.90
-20.45
-19.72
-20.15
-22.04
-25.51
-30.47
-36.57
-43.25
-49.89
-55.91
-60.89
-64.73
-67.69
-70.35
-73.51
-77.93
-83.94
-91.31
-99.16
-106.08
-110.62
-111.56
-108.36
-101.14
-90.66
-78.03
-64.52
-51.27
-39.32
-29.42
-22.06
-17.44
-15.39
-15.50
-17.16
-19.75
-22.72
-25.74
-28.63
-31.37
-34.02
-36.79
-39.94
-43.74
-48.29
-53.42
-58.61
-63.13
-66.19
-67.23
-66.02
-62.64
-57.38
-50.63
-42.85
-34.65
-26.84
-20.34
-15.88
-13.62
-13.02
-12.82
-11.56
-8.05
-1.80
6.90
17.22
28.19
39.04
49.31
58.79
67.35
74.80
80.88
85.26
87.70
88.09
86.63
83.78
80.32
77.13
74.94
74.11
74.48
75.48
76.32
76.32
75.01
72.27
68.17
62.95
56.88
50.19
43.11
35.69
27.90
19.62
10.82
1.78
-6.73
-13.53
-17.35
-17.23
-13.04
-5.51
3.88
13.42
21.73
28.09
32.54
35.61
38.01
40.21
42.37
44.32
45.71
46.15
45.41
43.51
40.77
37.81
35.36
34.16
34.68
37.05
40.97
45.80
50.63
54.36
55.89
54.16
48.46
38.59
25.10
9.11
-8.14
-25.61
-42.87
-59.81
-76.16
-91.00
-102.63
-109.06
-108.81
-101.65
-88.86
-72.75
-55.73
-39.65
-25.32
-12.83
-1.94
7.46
15.21
21.04
24.85
26.89
27.68
27.85
27.89
28.07
28.44
28.96
29.60
30.25
30.64
30.32
28.68
25.27
19.98
13.24
5.99
-0.76
-6.27
-10.52
-14.22
-18.55
-24.53
-32.56
-42.03
-51.48
-59.04
-63.05
-62.60
-57.74
-49.42
-39.05
-28.15
-17.93
-9.12
-1.97
3.60
7.85
11.06
13.45
15.23
16.68
18.10
19.87
22.20
24.97
27.69
29.47
29.41
26.76
21.36
13.64
4.54
-4.81
-13.41
-20.71
-26.67
-31.68
-36.27
-40.88
-45.67
-50.37
-54.39
-56.90
-57.02
-54.15
-48.09
-39.17
-28.18
-16.17
-4.21
6.78
16.04
23.04
27.38
28.89
27.75
24.61
20.53
16.71
14.14
13.26
13.81
14.94
15.67
15.21
13.40
10.72
7.96
5.89
4.76
4.22
3.35
1.10
-3.28
-9.88
-18.02
-26.37
-33.35
-37.58
-38.28
-35.36
-29.40
-21.38
-12.38
-3.36
5.00
12.27
18.18
22.54
25.27
26.41
26.20
25.06
23.48
21.96
20.85
20.25
20.01
19.84
19.39
18.40
16.79
14.66
12.22
9.70
7.21
4.67
1.77
-1.85
-6.54
-12.36
-19.00
-25.70
-31.38
-34.90
-35.32
-32.25
-26.02
-17.62
-8.42
0.16
7.12
12.00
14.96
16.50
17.08
16.97
16.11
14.34
11.55
7.90
3.86
0.06
-2.97
-5.05
-6.31
-7.11
-7.80
-8.55
-9.36
-10.16
-10.97
-12.01
-13.60
-16.08
-19.60
-24.12
-29.48
-35.52
-42.13
-49.10
-55.94
-61.72
-65.25
-65.39
-61.50
-53.81
-43.33
-31.66
-20.39
-10.70
-3.13
2.35
6.05
8.31
9.27
9.02
7.68
5.61
3.33
1.40
0.13
-0.56
-1.00
-1.66
-2.79
-4.33
-5.98
-7.42
-8.60
-9.80
-11.62
-14.71
-19.57
-26.30
-34.57
-43.68
-52.67
-60.41
-65.67
-67.34
-64.72
-57.86
-47.77
-36.28
-25.49
-17.01
-11.38
-7.92
-5.19
-1.77
3.03
8.89
14.75
19.42
22.15
22.90
22.27
21.07
20.03
19.52
19.46
19.47
19.02
17.71
15.38
12.21
8.80
5.89
4.16
3.95
4.95
6.16
6.05
3.05
-3.79
-14.18
-26.43
-37.82
-45.52
-47.50
-43.33
-34.10
-21.91
-9.06
2.64
12.11
18.98
23.22
25.01
24.68
22.73
19.90
17.06
14.99
14.10
14.37
15.43
16.70
17.62
17.90
17.49
16.51
15.06
12.96
9.79
5.05
-1.41
-9.05
-16.51
-21.95
-23.64
-20.71
-13.53
-3.61
6.93
16.18
23.09
27.60
30.33
31.97
32.71
32.25
29.97
25.46
18.82
10.78
2.43
-5.01
-10.56
-13.58
-13.94
-12.03
-8.71
-5.17
-2.64
-1.97
-3.56
-7.31
-12.90
-19.83
-27.49
-34.89
-40.68
-43.36
-41.83
-35.84
-26.24
-14.65
-2.84
7.76
16.44
23.03
27.57
30.16
30.86
29.83
27.44
24.23
20.74
17.35
14.20
11.26
8.41
5.60
2.89
0.38
-1.76
-3.48
-4.84
-6.09
-7.62
-9.96
-13.65
-19.05
-26.18
-34.48
-42.85
-49.65
-53.11
-51.78
-44.97
-33.04
-17.28
0.51
18.71
36.34
53.28
69.99
86.97
104.26
121.05
135.89
147.17
153.70
155.21
152.46
146.88
140.01
133.09
126.74
121.08
116.06
111.74
108.30
105.80
103.77
101.16
96.55
88.75
77.38
63.11
47.38
31.83
17.75
5.84
-3.65
-10.59
-14.67
-15.57
-13.08
-7.47
0.44
9.49
18.56
26.85
34.10
40.45
46.22
51.63
56.52
60.40
62.59
62.55
60.15
55.80
50.36
44.78
39.86
35.92
32.78
29.91
26.67
22.60
17.66
12.20
6.86
2.23
-1.40
-4.21
-6.72
-9.48
-12.76
-16.45
-20.15
-23.41
-25.77
-26.78
-25.87
-22.40
-16.08
-7.27
2.96
13.20
22.44
30.55
38.32
46.72
56.20
65.94
74.13
78.64
78.13
72.67
63.73
53.60
44.35
37.18
32.09
28.20
24.22
18.99
11.80
2.33
-9.59
-24.27
-42.34
-64.45
-90.82
-120.82
-152.81
-184.44
-213.36
-237.98
-257.87
-273.67
-286.43
-296.89
-304.86
-309.34
-309.03
-303.09
-291.54
-275.15
-254.85
-231.02
-203.28
-170.78
-132.99
-90.46
-45.22
-0.43
40.39
74.39
100.06
117.34
127.30
131.47
131.33
128.06
122.54
115.64
108.26
101.43
96.00
92.42
90.55
89.59
88.45
86.03
81.70
75.42
67.61
58.85
49.52
39.67
29.04
17.38
4.68
-8.72
-22.18
-34.89
-46.06
-54.93
-60.82
-63.20
-61.85
-56.98
-49.27
-39.77
-29.62
-19.77
-10.86
-3.19
3.14
8.06
11.48
13.30
13.53
12.33
10.11
7.44
4.91
3.00
1.91
1.50
1.42
1.21
0.47
-0.98
-3.05
-5.47
-7.95
-10.25
-12.38
-14.59
-17.23
-20.69
-25.14
-30.36
-35.72
-40.21
-42.70
-42.27
-38.50
-31.57
-22.28
-11.73
-1.07
8.76
17.20
24.02
29.20
32.78
34.79
35.22
34.09
31.68
28.47
25.15
22.37
20.55
19.65
19.28
18.77
17.55
15.41
12.55
9.45
6.63
4.32
2.34
0.20
-2.67
-6.64
-11.73
-17.64
-23.75
-29.33
-33.65
-36.00
-35.87
-33.01
-27.59
-20.13
-11.45
-2.48
6.01
13.47
19.56
24.16
27.21
28.67
28.56
26.98
24.24
20.80
17.33
14.45
12.62
11.92
11.97
12.24
12.19
11.59
10.51
9.27
8.12
7.06
5.82
4.03
1.34
-2.40
-7.15
-12.70
-18.70
-24.67
-29.90
-33.51
-34.59
-32.50
-27.11
-19.03
-9.39
0.39
9.02
15.71
20.25
22.90
24.08
24.15
23.26
21.49
18.96
15.98
13.05
10.65
9.08
8.31
7.96
7.60
6.83
5.52
3.79
1.86
-0.10
-2.06
-4.10
-6.35
-8.90
-11.82
-15.23
-19.26
-23.96
-29.06
-33.84
-37.18
-37.90
-35.22
-29.17
-20.61
-10.94
-1.57
6.55
12.99
17.86
21.38
23.67
24.68
24.33
22.73
20.26
17.55
15.25
13.88
13.53
13.97
14.70
15.18
15.03
14.07
12.38
10.17
7.65
4.94
2.10
-0.91
-4.17
-7.81
-12.01
-16.96
-22.70
-28.94
-34.89
-39.35
-41.01
-38.92
-32.91
-23.74
-12.86
-1.89
7.87
15.71
21.53
25.61
28.24
29.60
29.72
28.59
26.30
23.18
19.77
16.69
14.44
13.22
12.87
12.91
12.72
11.80
9.93
7.23
4.06
0.86
-2.07
-4.73
-7.31
-10.13
-13.53
-17.72
-22.76
-28.50
-34.55
-40.23
-44.47
-46.11
-44.22
-38.50
-29.50
-18.62
-7.60
2.06
9.52
14.70
18.02
20.02
21.04
21.14
20.30
18.61
16.40
14.16
12.42
11.49
11.38
11.78
12.18
12.05
11.03
9.11
6.55
3.77
1.12
-1.27
-3.57
-6.18
-9.54
-13.90
-19.25
-25.23
-31.12
-35.94
-38.71
-38.56
-35.09
-28.48
-19.56
-9.53
0.32
9.07
16.16
21.51
25.21
27.35
27.91
26.85
24.36
20.89
17.19
14.05
12.04
11.30
11.48
11.96
12.02
11.14
9.17
6.28
2.85
-0.71
-4.19
-7.57
-11.00
-14.75
-19.06
-24.15
-30.08
-36.72
-43.56
-49.67
-53.80
-54.66
-51.37
-43.89
-33.04
-20.34
-7.49
4.11
13.66
20.97
26.15
29.38
30.80
30.48
28.62
25.68
22.30
19.19
16.88
15.60
15.14
15.06
14.80
13.90
12.15
9.58
6.41
2.92
-0.66
-4.21
-7.73
-11.36
-15.31
-19.87
-25.33
-31.77
-38.95
-46.11
-52.06
-55.33
-54.72
-49.70
-40.64
-28.78
-15.79
-3.31
7.60
16.46
23.30
28.23
31.31
32.47
31.67
29.20
25.67
21.98
18.98
17.13
16.38
16.25
16.07
15.30
13.72
11.41
8.63
5.73
2.89
0.12
-2.81
-6.26
-10.72
-16.59
-24.01
-32.69
-41.79
-49.99
-55.77
-57.81
-55.35
-48.36
-37.64
-24.52
-10.53
2.88
14.61
23.97
30.63
34.59
36.05
35.40
33.24
30.23
27.10
24.38
22.36
21.00
19.92
18.63
16.77
14.24
11.23
8.16
5.38
2.99
0.72
-1.94
-5.65
-10.93
-17.95
-26.48
-35.82
-44.87
-52.21
-56.34
-56.02
-50.71
-40.76
-27.45
-12.63
1.83
14.49
24.64
32.14
37.11
39.67
39.84
37.72
33.71
28.69
23.76
19.90
17.54
16.49
16.09
15.57
14.44
12.52
10.00
7.14
4.07
0.70
-3.21
-7.99
-13.97
-21.30
-29.92
-39.38
-48.65
-56.30
-60.66
-60.40
-55.00
-44.92
-31.56
-16.77
-2.35
10.36
20.59
28.04
32.65
34.49
33.79
31.05
27.08
22.91
19.46
17.30
16.48
16.56
16.81
16.53
15.33
13.18
10.37
7.30
4.26
1.25
-2.03
-6.14
-11.72
-19.26
-28.85
-39.87
-50.92
-59.99
-64.95
-64.26
-57.55
-45.80
-30.98
-15.39
-0.92
11.35
21.15
28.56
33.72
36.66
37.40
36.11
33.36
29.95
26.75
24.35
22.92
22.13
21.39
20.06
17.72
14.41
10.49
6.51
2.87
-0.44
-3.90
-8.32
-14.51
-22.96
-33.56
-45.53
-57.52
-67.81
-74.62
-76.50
-72.67
-63.30
-49.44
-32.78
-15.20
1.64
16.55
28.85
38.25
44.67
48.18
49.03
47.73
44.98
41.53
38.03
34.81
31.91
29.13
26.19
22.88
19.23
15.44
11.81
8.54
5.60
2.60
-1.12
-6.34
-13.66
-23.14
-34.18
-45.40
-54.90
-60.69
-61.25
-55.98
-45.39
-31.00
-14.80
1.20
15.48
27.16
35.93
41.85
45.08
45.82
44.36
41.16
36.86
32.25
28.01
24.57
21.98
19.97
18.14
16.15
13.83
11.22
8.42
5.38
1.73
-3.11
-9.85
-18.85
-29.79
-41.46
-51.93
-58.95
-60.66
-56.14
-45.75
-31.05
-14.19
2.61
17.68
30.06
39.44
45.81
49.25
49.91
48.07
44.32
39.55
34.81
30.94
28.30
26.64
25.33
23.64
21.13
17.77
13.91
9.94
6.08
2.23
-2.02
-7.21
-13.89
-22.42
-32.75
-44.27
-55.63
-64.89
-69.88
-68.94
-61.57
-48.77
-32.75
-16.20
-1.32
10.73
19.89
26.72
31.73
35.04
36.44
35.71
33.03
29.07
24.80
21.15
18.64
17.22
16.41
15.57
14.14
11.87
8.87
5.48
2.04
-1.21
-4.37
-7.77
-11.89
-17.12
-23.69
-31.67
-40.94
-51.09
-61.33
-70.28
-76.12
-77.00
-71.64
-59.90
-43.00
-23.21
-3.20
14.71
29.10
39.51
46.26
50.01
51.54
51.53
50.54
49.04
47.41
45.88
44.62
43.69
43.11
42.81
42.57
42.09
40.96
38.81
35.40
30.72
25.01
18.63
11.97
5.27
-1.39
-8.19
-15.50
-23.80
-33.47
-44.60
-56.73
-68.68
-78.62
-84.43
-84.30
-77.34
-63.99
-45.94
-25.69
-5.81
11.71
25.79
36.21
43.30
47.61
49.65
49.94
49.00
47.41
45.72
44.36
43.51
43.09
42.91
42.68
42.19
41.26
39.79
37.68
34.79
31.03
26.35
20.87
14.79
8.38
1.87
-4.65
-11.33
-18.49
-26.58
-35.96
-46.68
-58.24
-69.44
-78.42
-83.07
-81.59
-73.25
-58.69
-39.86
-19.45
0.03
16.84
30.30
40.57
48.11
53.34
56.42
57.43
56.60
54.51
52.00
49.95
48.96
49.23
50.50
52.18
53.55
54.00
53.18
51.01
47.74
43.78
39.51
35.14
30.59
25.52
19.59
12.60
4.66
-3.83
-12.29
-20.32
-27.67
-34.44
-40.89
-47.47
-54.67
-62.92
-72.40
-82.72
-92.76
-100.69
-104.40
-102.13
-93.11
-77.92
-58.38
-36.97
-16.19
2.10
16.90
28.00
35.73
40.66
43.40
44.53
44.58
44.04
43.28
42.55
41.94
41.44
40.95
40.40
39.75
39.02
38.18
37.08
35.44
32.86
28.98
23.61
16.91
9.32
1.46
-6.12
-13.14
-19.65
-26.07
-32.98
-40.94
-50.26
-60.69
-71.31
-80.51
-86.27
-86.65
-80.56
-68.10
-50.70
-30.79
-10.93
6.79
21.24
32.21
40.08
45.38
48.49
49.69
49.28
47.73
45.75
44.08
43.20
43.16
43.54
43.78
43.36
42.15
40.39
38.49
36.73
35.05
32.96
29.81
25.04
18.47
10.40
1.51
-7.37
-15.57
-22.77
-29.06
-34.95
-41.13
-48.31
-57.07
-67.50
-79.07
-90.47
-99.70
-104.45
-102.87
-94.13
-78.99
-59.51
-38.58
-18.91
-2.24
10.86
20.82
28.46
34.47
39.12
42.41
44.34
45.14
45.32
45.46
45.96
46.89
48.05
49.01
49.47
49.29
48.47
47.15
45.49
43.58
41.39
38.72
35.31
30.86
25.21
18.42
10.84
2.97
-4.70
-11.91
-18.70
-25.43
-32.61
-40.68
-49.97
-60.56
-72.13
-83.99
-94.88
-103.10
-106.84
-104.68
-96.15
-82.06
-64.27
-45.19
-27.05
-11.27
1.66
11.98
20.16
26.56
31.25
34.18
35.38
35.15
34.09
32.86
32.05
31.95
32.49
33.35
34.02
34.11
33.36
31.75
29.35
26.36
22.91
19.14
15.14
11.01
6.84
2.71
-1.36
-5.42
-9.57
-13.88
-18.44
-23.33
-28.69
-34.73
-41.77
-50.08
-59.67
-70.00
-79.83
-87.35
-90.53
-87.84
-78.77
-64.18
-46.01
-26.73
-8.50
7.36
20.55
31.48
40.70
48.55
54.92
59.57
62.34
63.47
63.59
63.52
63.94
65.15
66.99
69.01
70.64
71.44
71.16
69.74
67.25
63.82
59.60
54.73
49.29
43.33
36.89
30.03
22.85
15.55
8.31
1.25
-5.62
-12.39
-19.20
-26.21
-33.61
-41.63
-50.47
-60.15
-70.20
-79.48
-86.32
-88.83
-85.58
-76.19
-61.50
-43.45
-24.38
-6.42
9.11
21.78
31.88
39.91
46.27
51.12
54.49
56.50
57.54
58.18
58.96
60.04
61.19
61.85
61.51
59.96
57.36
54.22
51.00
47.95
45.03
41.89
38.09
33.33
27.58
21.14
14.48
8.06
2.11
-3.44
-8.90
-14.77
-21.50
-29.43
-38.63
-48.82
-59.28
-68.83
-76.04
-79.58
-78.63
-73.14
-63.83
-51.87
-38.44
-24.47
-10.64
2.50
14.26
23.86
30.66
34.39
35.26
33.95
31.35
28.31
25.47
23.25
21.83
21.26
21.35
21.68
21.72
20.85
18.62
14.86
9.69
3.45
-3.46
-10.65
-17.86
-24.94
-31.91
-39.01
-46.68
-55.46
-65.74
-77.40
-89.51
-100.34
-107.66
-109.42
-104.43
-92.85
-76.18
-56.85
-37.47
-20.14
-6.06
4.52
12.05
17.31
21.09
24.05
26.62
28.98
31.13
32.93
34.26
35.11
35.60
36.00
36.59
37.44
38.39
39.02
38.71
36.90
33.22
27.60
20.30
11.85
2.88
-6.01
-14.47
-22.46
-30.27
-38.52
-47.87
-58.77
-70.99
-83.44
-94.15
-100.75
-101.20
-94.55
-81.37
-63.57
-43.81
-24.62
-7.80
5.87
16.37
24.11
29.56
33.06
34.83
35.14
34.47
33.49
33.00
33.63
35.63
38.69
41.97
44.43
45.27
44.24
41.77
38.66
35.64
32.93
30.23
26.81
22.02
15.59
7.80
-0.65
-8.98
-16.57
-23.21
-29.08
-34.63
-40.49
-47.29
-55.59
-65.72
-77.55
-90.25
-102.16
-111.02
-114.51
-110.95
-99.94
-82.64
-61.40
-39.02
-17.99
0.19
15.16
27.36
37.57
46.37
53.90
59.99
64.44
67.24
68.74
69.52
70.15
70.94
71.82
72.44
72.39
71.43
69.52
66.85
63.65
60.05
56.09
51.68
46.69
40.97
34.48
27.28
19.57
11.66
3.91
-3.40
-10.24
-16.80
-23.51
-30.88
-39.43
-49.53
-61.31
-74.35
-87.51
-98.86
-105.93
-106.50
-99.40
-85.01
-65.30
-43.14
-21.41
-2.15
13.77
26.40
36.33
44.11
50.11
54.51
57.46
59.23
60.24
60.93
61.71
62.75
64.04
65.33
66.32
66.75
66.53
65.69
64.31
62.32
59.52
55.66
50.65
44.63
38.10
31.64
25.67
20.25
15.00
9.40
3.00
-4.27
-12.07
-19.76
-26.78
-32.86
-38.17
-43.32
-49.14
-56.46
-65.82
-77.17
-89.65
-101.51
-110.38
-113.84
-110.19
-99.09
-81.83
-60.94
-39.35
-19.46
-2.64
10.97
21.95
31.05
38.76
45.22
50.37
54.26
57.16
59.52
61.78
64.19
66.67
68.97
70.76
71.83
72.17
71.91
71.17
69.94
68.02
65.04
60.68
54.85
47.90
40.48
33.41
27.29
22.25
17.89
13.51
8.43
2.34
-4.57
-11.73
-18.50
-24.46
-29.59
-34.32
-39.35
-45.49
-53.38
-63.29
-74.87
-86.94
-97.56
-104.37
-105.18
-98.81
-85.49
-66.96
-45.94
-25.24
-6.98
7.87
19.39
28.30
35.35
41.02
45.44
48.55
50.33
50.96
50.77
50.16
49.52
49.12
49.12
49.62
50.64
52.07
53.67
55.05
55.65
54.96
52.65
48.70
43.52
37.76
32.11
26.98
22.39
18.02
13.44
8.29
2.52
-3.65
-9.80
-15.52
-20.60
-25.16
-29.69
-34.91
-41.56
-50.00
-59.90
-69.98
-78.22
-82.29
-80.32
-71.63
-56.99
-38.43
-18.62
0.04
16.02
28.88
39.08
47.36
54.33
60.14
64.57
67.30
68.20
67.49
65.68
63.40
61.10
58.96
56.79
54.27
51.11
47.32
43.11
38.81
34.63
30.55
26.24
21.34
15.59
9.00
1.81
-5.60
-12.83
-19.59
-25.68
-31.03
-35.73
-40.03
-44.43
-49.60
-56.20
-64.59
-74.42
-84.50
-92.90
-97.42
-96.28
-88.81
-75.71
-58.83
-40.62
-23.29
-8.32
3.81
13.32
20.75
26.53
30.88
33.85
35.55
36.28
36.55
36.90
37.75
39.22
41.10
42.97
44.38
44.94
44.49
43.00
40.56
37.35
33.54
29.23
24.47
19.19
13.28
6.67
-0.54
-8.00
-15.25
-21.85
-27.62
-32.78
-37.82
-43.43
-50.19
-58.47
-68.27
-79.11
-89.94
-99.16
-104.91
-105.47
-99.87
-88.27
-72.10
-53.62
-35.27
-18.95
-5.64
4.65
12.45
18.43
23.13
26.79
29.48
31.20
32.09
32.41
32.52
32.81
33.51
34.70
36.14
37.49
38.31
38.25
37.19
35.14
32.28
28.80
24.85
20.52
15.88
10.98
5.96
1.01
-3.70
-7.97
-11.78
-15.27
-18.73
-22.59
-27.29
-33.23
-40.71
-49.83
-60.32
-71.38
-81.54
-88.88
-91.50
-88.13
-78.72
-64.52
-47.75
-30.74
-15.32
-2.24
8.67
18.00
26.30
33.73
40.07
44.97
48.26
50.12
51.04
51.58
52.14
52.84
53.51
53.85
53.59
52.59
50.86
48.52
45.71
42.48
38.81
34.58
29.71
24.16
17.98
11.34
4.53
-2.10
-8.27
-13.81
-18.77
-23.39
-28.02
-33.14
-39.23
-46.71
-55.80
-66.22
-77.09
-86.85
-93.50
-95.15
-90.60
-79.88
-64.30
-46.09
-27.74
-11.25
2.36
13.03
21.40
28.24
34.03
38.81
42.32
44.30
44.78
44.13
42.95
41.85
41.14
40.81
40.59
40.17
39.41
38.35
37.12
35.78
34.17
31.87
28.35
23.26
16.56
8.64
0.26
-7.71
-14.64
-20.32
-25.02
-29.40
-34.22
-40.13
-47.48
-56.27
-66.07
-75.94
-84.48
-90.00
-90.90
-86.22
-76.00
-61.51
-44.80
-28.12
-13.19
-0.77
9.31
17.71
25.05
31.55
36.96
40.84
42.95
43.46
43.04
42.56
42.71
43.72
45.22
46.56
47.06
46.39
44.58
41.96
38.92
35.72
32.41
28.82
24.81
20.25
15.13
9.53
3.62
-2.38
-8.25
-13.77
-18.83
-23.46
-27.98
-32.93
-38.96
-46.68
-56.33
-67.52
-79.02
-88.94
-95.10
-95.70
-89.95
-78.35
-62.61
-45.08
-27.99
-12.78
0.09
11.04
20.83
30.04
38.76
46.59
52.96
57.49
60.22
61.58
62.21
62.64
63.09
63.44
63.45
62.90
61.81
60.40
58.88
57.33
55.58
53.29
50.14
46.03
41.15
35.90
30.75
26.06
21.97
18.43
15.24
12.06
8.54
4.33
-0.78
-6.78
-13.39
-20.15
-26.60
-32.41
-37.59
-42.48
-47.63
-53.69
-61.25
-70.55
-81.31
-92.44
-102.18
-108.29
-108.85
-102.88
-90.82
-74.42
-56.14
-38.30
-22.41
-8.94
2.48
12.56
21.84
30.48
38.27
44.80
49.79
53.16
55.17
56.21
56.73
56.92
56.79
56.21
55.14
53.80
52.56
51.82
51.69
51.89
51.81
50.87
48.75
45.52
41.65
37.70
34.13
31.08
28.39
25.66
22.44
18.35
13.20
7.07
0.29
-6.69
-13.42
-19.60
-25.22
-30.56
-36.05
-42.27
-49.71
-58.66
-69.00
-80.02
-90.35
-98.11
-101.34
-98.70
-89.96
-76.15
-59.29
-41.71
-25.26
-10.97
1.12
11.49
20.81
29.49
37.59
44.89
51.14
56.12
59.78
62.14
63.32
63.46
62.79
61.57
60.12
58.78
57.84
57.38
57.29
57.21
56.65
55.14
52.42
48.46
43.52
38.07
32.64
27.70
23.50
20.00
16.89
13.69
9.97
5.53
0.41
-5.06
-10.51
-15.67
-20.49
-25.17
-30.12
-35.78
-42.59
-50.86
-60.66
-71.61
-82.71
-92.36
-98.58
-99.61
-94.50
-83.56
-68.31
-51.01
-33.90
-18.52
-5.44
5.57
15.17
23.95
32.12
39.56
45.93
50.82
54.05
55.63
55.82
55.02
53.65
52.07
50.45
48.86
47.24
45.49
43.51
41.19
38.40
34.99
30.84
25.92
20.34
14.34
8.20
2.23
-3.37
-8.50
-13.14
-17.31
-21.13
-24.80
-28.62
-32.97
-38.28
-44.92
-52.98
-62.07
-71.20
-78.81
-83.12
-82.62
-76.66
-65.80
-51.67
-36.53
-22.46
-10.77
-1.72
5.20
10.82
15.81
20.41
24.55
28.05
30.85
33.04
34.86
36.49
37.98
39.26
40.19
40.66
40.62
40.07
39.02
37.48
35.39
32.66
29.19
24.96
20.09
14.83
9.53
4.42
-0.43
-5.13
-9.91
-14.87
-19.92
-24.79
-29.17
-32.91
-36.15
-39.35
-43.14
-48.07
-54.37
-61.75
-69.28
-75.47
-78.61
-77.24
-70.62
-59.20
-44.46
-28.54
-13.51
-0.75
9.33
17.20
23.72
29.63
35.25
40.38
44.65
47.74
49.64
50.62
51.08
51.33
51.48
51.48
51.19
50.58
49.68
48.61
47.34
45.70
43.31
39.80
35.00
29.09
22.65
16.35
10.75
6.05
2.01
-1.89
-6.23
-11.34
-17.18
-23.34
-29.27
-34.47
-38.74
-42.29
-45.67
-49.66
-54.96
-61.94
-70.34
-79.11
-86.56
-90.74
-90.02
-83.72
-72.37
-57.61
-41.68
-26.64
-13.84
-3.66
4.28
10.69
16.20
21.11
25.42
29.01
31.83
33.96
35.61
37.00
38.23
39.27
39.96
40.18
39.92
39.36
38.74
38.25
37.91
37.43
36.42
34.48
31.49
27.60
23.29
19.13
15.59
12.86
10.78
8.84
6.42
3.02
-1.49
-6.78
-12.17
-16.96
-20.78
-23.82
-26.84
-30.83
-36.64
-44.61
-54.28
-64.51
-73.63
-79.83
-81.56
-78.01
-69.28
-56.51
-41.52
-26.34
-12.69
-1.63
6.60
12.40
16.48
19.53
22.03
24.16
25.92
27.16
27.81
27.88
27.45
26.65
25.66
24.59
23.56
22.71
22.15
21.91
21.85
21.57
20.54
18.22
14.34
9.03
2.85
-3.36
-8.80
-13.05
-16.22
-18.99
-22.29
-26.98
-33.45
-41.42
-49.93
-57.46
-62.39
-63.33
-59.60
-51.44
-39.96
-26.84
-13.84
-2.32
7.04
14.34
20.12
24.97
29.26
32.94
35.72
37.30
37.63
36.99
35.91
34.95
34.38
34.09
33.68
32.70
30.98
28.67
26.26
24.15
22.45
20.84
18.67
15.32
10.51
4.43
-2.32
-8.99
-14.96
-19.92
-23.93
-27.39
-30.86
-35.01
-40.38
-47.25
-55.44
-64.16
-72.02
-77.22
-78.14
-73.84
-64.51
-51.45
-36.65
-22.17
-9.41
1.09
9.58
16.71
23.03
28.72
33.62
37.45
40.01
41.35
41.75
41.59
41.16
40.69
40.14
39.42
38.30
36.57
34.15
31.09
27.61
23.96
20.33
16.73
12.96
8.82
4.13
-1.03
-6.37
-11.51
-16.08
-19.96
-23.31
-26.49
-30.04
-34.53
-40.38
-47.75
-56.32
-65.25
-73.18
-78.50
-79.72
-75.98
-67.33
-54.81
-40.12
-25.19
-11.57
-0.16
8.90
16.03
21.85
26.91
31.51
35.66
39.24
42.13
44.30
45.75
46.52
46.63
46.11
45.07
43.79
42.67
42.04
42.00
42.29
42.28
41.27
38.75
34.68
29.47
23.87
18.57
13.90
9.76
5.66
1.03
-4.42
-10.61
-17.05
-23.14
-28.43
-32.85
-36.76
-40.82
-45.75
-52.12
-60.06
-69.11
-78.16
-85.56
-89.46
-88.37
-81.69
-70.04
-55.08
-39.12
-24.25
-11.83
-2.23
5.11
11.10
16.56
21.82
26.74
30.88
33.89
35.70
36.57
36.97
37.36
37.95
38.74
39.55
40.23
40.66
40.80
40.54
39.70
38.04
35.36
31.66
27.09
22.00
16.74
11.59
6.63
1.81
-2.97
-7.81
-12.69
-17.51
-22.18
-26.73
-31.29
-36.25
-42.02
-48.96
-57.08
-65.80
-73.87
-79.58
-81.19
-77.48
-68.28
-54.67
-38.63
-22.55
-8.39
2.88
11.30
17.70
23.09
28.17
33.11
37.60
41.23
43.71
45.07
45.57
45.59
45.40
45.16
44.89
44.55
44.11
43.58
42.96
42.22
41.21
39.74
37.53
34.40
30.37
25.76
21.12
17.05
13.90
11.57
9.51
6.92
3.14
-2.00
-8.17
-14.66
-20.73
-25.91
-30.22
-34.07
-38.16
-43.29
-50.09
-58.85
-69.24
-80.24
-90.10
-96.70
-98.14
-93.34
-82.47
-67.03
-49.40
-32.08
-16.98
-4.94
4.21
11.35
17.50
23.35
29.11
34.53
39.19
42.77
45.24
46.78
47.76
48.45
49.01
49.48
49.78
49.88
49.80
49.58
49.25
48.71
47.78
46.11
43.46
39.68
34.88
29.48
24.04
19.15
15.19
12.19
9.82
7.50
4.63
0.83
-3.92
-9.30
-14.76
-19.78
-24.08
-27.71
-31.09
-34.81
-39.53
-45.78
-53.80
-63.37
-73.63
-83.10
-89.78
-91.68
-87.44
-76.92
-61.37
-43.16
-25.04
-9.25
3.07
11.99
18.47
23.69
28.55
33.36
38.01
42.11
45.35
47.59
48.85
49.30
49.18
48.72
48.17
47.75
47.55
47.54
47.52
47.18
46.16
44.18
41.12
37.06
32.29
27.21
22.17
17.36
12.69
7.88
2.69
-2.95
-8.89
-14.83
-20.62
-26.41
-32.66
-40.00
-48.99
-59.73
-71.76
-83.88
-94.35
-101.18
-102.66
-97.88
-87.08
-71.70
-53.95
-36.22
-20.39
-7.50
2.29
9.47
14.69
18.58
21.55
23.83
25.64
27.13
28.38
29.40
30.04
30.15
29.64
28.63
27.39
26.20
25.16
24.15
22.74
20.45
16.91
12.06
6.14
-0.35
-6.87
-12.97
-18.41
-23.22
-27.75
-32.54
-38.30
-45.61
-54.59
-64.62
-74.23
-81.38
-84.04
-80.99
-72.24
-59.22
-44.19
-29.53
-16.95
-7.06
0.44
6.34
11.34
15.77
19.46
22.07
23.35
23.31
22.28
20.76
19.23
18.05
17.32
16.90
16.45
15.57
13.90
11.19
7.38
2.58
-2.97
-8.92
-14.94
-20.73
-26.18
-31.42
-36.79
-42.84
-50.14
-58.97
-69.00
-79.12
-87.55
-92.33
-91.91
-85.75
-74.65
-60.46
-45.37
-31.21
-18.96
-8.64
0.32
8.52
16.26
23.35
29.30
33.60
35.98
36.52
35.63
33.88
31.84
29.81
27.75
25.34
22.16
17.93
12.70
6.81
0.67
-5.52
-11.89
-18.92
-27.13
-36.92
-48.34
-61.07
-74.40
-87.36
-98.73
-107.23
-111.73
-111.61
-107.04
-99.01
-89.03
-78.66
-69.00
-60.46
-52.91
-46.01
-39.73
-34.48
-31.07
-30.23
-32.29
-36.76
-42.46
-47.79
-51.30
-52.19
-50.54
-47.17
-43.22
-39.70
-37.12
-35.49
-34.51
-33.90
-33.61
-33.82
-34.78
-36.62
-39.20
-42.22
-45.38
-48.40
-51.01
-52.85
-53.31
-51.62
-47.05
-39.24
-28.36
-15.05
-0.14
15.72
32.22
49.32
66.90
84.51
101.34
116.36
128.73
138.06
144.51
148.52
150.58
150.99
149.82
147.00
142.52
136.49
129.11
120.60
111.20
101.22
91.05
81.24
72.37
64.77
58.41
52.74
46.84
39.65
30.35
18.70
5.21
-8.73
-21.11
-29.75
-32.85
-29.59
-20.43
-6.98
8.48
23.77
37.38
48.72
57.98
65.59
71.81
76.48
79.17
79.47
77.34
73.21
67.85
62.12
56.65
51.72
47.36
43.47
40.09
37.40
35.64
34.81
34.58
34.30
33.13
30.40
25.77
19.35
11.73
3.83
-3.17
-7.96
-9.29
-6.23
1.56
13.67
29.03
46.28
64.11
81.60
98.18
113.47
126.95
137.81
145.17
148.38
147.37
142.65
135.09
125.39
113.80
100.08
83.91
65.37
45.23
24.90
5.96
-10.30
-23.33
-33.36
-41.28
-48.29
-55.53
-63.98
-74.19
-86.33
-99.95
-113.91
-126.17
-134.05
-134.74
-126.19
-108.03
-82.10
-52.05
-22.26
3.68
24.10
39.50
51.89
63.50
75.65
88.28
100.25
110.16
117.16
121.28
123.35
124.39
125.15
125.81
126.04
125.45
123.87
121.48
118.65
115.58
111.93
106.81
99.08
87.94
73.40
56.48
38.88
22.44
8.41
-2.96
-12.37
-21.09
-30.43
-41.32
-54.09
-68.45
-83.58
-98.18
-110.57
-118.94
-121.71
-118.06
-108.33
-93.93
-76.89
-59.26
-42.43
-26.94
-12.58
1.10
14.31
26.80
37.87
46.69
52.65
55.62
55.97
54.44
51.81
48.67
45.38
42.05
38.73
35.41
32.10
28.70
25.02
20.77
15.78
10.07
3.94
-2.19
-8.02
-13.53
-19.08
-25.27
-32.65
-41.41
-51.24
-61.21
-70.00
-76.16
-78.54
-76.61
-70.63
-61.60
-50.84
-39.66
-28.90
-18.80
-9.18
0.24
9.45
18.00
25.08
29.87
31.89
31.16
28.22
23.86
18.96
14.28
10.35
7.48
5.69
4.71
4.06
3.11
1.26
-1.86
-6.29
-11.77
-17.85
-24.12
-30.34
-36.55
-43.02
-50.12
-58.10
-66.90
-75.96
-84.18
-90.20
-92.72
-91.01
-85.16
-76.02
-64.97
-53.39
-42.24
-31.88
-22.21
-12.91
-3.85
4.80
12.51
18.61
22.52
24.08
23.58
21.68
19.15
16.65
14.55
12.94
11.81
11.16
10.96
11.09
11.22
10.83
9.34
6.43
2.23
-2.72
-7.67
-12.01
-15.50
-18.35
-21.09
-24.38
-28.74
-34.42
-41.29
-48.81
-56.05
-61.80
-64.86
-64.31
-59.92
-52.28
-42.58
-32.21
-22.25
-13.11
-4.57
3.88
12.62
21.56
30.13
37.48
42.86
45.91
46.75
45.88
43.97
41.67
39.41
37.47
35.98
34.97
34.41
34.15
33.85
33.01
31.20
28.15
23.99
19.21
14.48
10.33
6.98
4.25
1.70
-1.13
-4.52
-8.43
-12.63
-16.81
-20.71
-24.24
-27.49
-30.74
-34.39
-38.85
-44.44
-51.16
-58.55
-65.58
-70.83
-72.85
-70.69
-64.31
-54.64
-43.31
-31.96
-21.76
-13.06
-5.48
1.67
8.91
16.35
23.65
30.23
35.54
39.20
41.15
41.51
40.57
38.71
36.34
33.87
31.63
29.89
28.76
28.23
28.12
28.08
27.74
26.71
24.74
21.80
18.08
13.99
10.00
6.58
3.95
2.11
0.70
-0.78
-2.88
-5.89
-9.78
-14.17
-18.53
-22.44
-25.76
-28.66
-31.56
-34.85
-38.92
-43.93
-49.87
-56.45
-62.99
-68.43
-71.51
-71.10
-66.70
-58.77
-48.56
-37.74
-27.76
-19.31
-12.29
-6.03
0.21
6.88
13.89
20.78
26.90
31.71
34.92
36.58
36.97
36.47
35.47
34.18
32.72
31.14
29.53
28.01
26.65
25.41
24.07
22.32
19.87
16.66
12.94
9.15
5.81
3.29
1.62
0.47
-0.76
-2.68
-5.67
-9.66
-14.24
-18.79
-22.75
-25.82
-28.05
-29.72
-31.32
-33.36
-36.31
-40.46
-45.72
-51.44
-56.51
-59.47
-59.09
-54.80
-46.94
-36.70
-25.70
-15.44
-6.89
-0.30
4.73
8.88
12.80
16.87
21.06
25.04
28.30
30.44
31.27
30.90
29.70
28.09
26.49
25.13
24.10
23.36
22.82
22.35
21.78
20.92
19.52
17.37
14.36
10.62
6.55
2.70
-0.47
-2.77
-4.34
-5.65
-7.22
-9.36
-12.07
-15.04
-17.86
-20.25
-22.14
-23.71
-25.36
-27.53
-30.63
-34.97
-40.54
-46.93
-53.18
-57.91
-59.70
-57.58
-51.43
-42.14
-31.34
-20.78
-11.74
-4.62
1.04
6.10
11.33
16.96
22.74
28.02
32.25
35.08
36.49
36.64
35.78
34.16
32.03
29.77
27.72
26.29
25.69
25.83
26.29
26.37
25.40
22.96
19.06
14.25
9.35
5.14
2.05
-0.06
-1.74
-3.69
-6.41
-9.98
-14.09
-18.23
-21.97
-25.16
-27.92
-30.67
-33.86
-37.94
-43.21
-49.71
-57.11
-64.59
-70.92
-74.60
-74.36
-69.61
-60.77
-49.26
-36.96
-25.50
-15.66
-7.18
0.93
9.67
19.45
29.87
39.88
48.35
54.58
58.48
60.51
61.31
61.41
61.13
60.66
60.16
59.83
59.79
60.02
60.32
60.41
60.11
59.43
58.55
57.58
56.35
54.29
50.42
43.75
33.62
20.10
4.05
-12.95
-29.11
-42.88
-53.40
-60.75
-65.83
-70.01
-74.60
-80.48
-87.72
-95.63
-102.77
-107.35
-107.78
-103.05
-93.18
-79.20
-62.85
-46.11
-30.61
-17.33
-6.47
2.30
9.57
15.86
21.42
26.26
30.15
32.87
34.27
34.39
33.43
31.68
29.41
26.90
24.36
22.05
20.11
18.53
17.01
15.03
12.00
7.54
1.66
-5.13
-11.99
-17.98
-22.34
-24.75
-25.44
-25.22
-25.38
-27.32
-32.07
-39.82
-49.56
-59.24
-66.29
-68.48
-64.68
-55.27
-41.95
-27.03
-12.71
-0.37
9.52
17.21
23.22
27.90
31.25
33.07
33.12
31.37
28.14
23.97
19.50
15.29
11.67
8.75
6.53
4.90
3.78
3.03
2.41
1.51
-0.12
-2.87
-6.82
-11.61
-16.62
-21.16
-24.66
-26.93
-27.98
-28.13
-27.83
-27.60
-28.11
-29.95
-33.47
-38.53
-44.32
-49.43
-52.22
-51.35
-46.34
-37.73
-26.91
-15.61
-5.18
3.79
11.61
19.03
26.65
34.44
41.66
47.26
50.45
51.10
49.80
47.50
45.00
42.66
40.36
37.81
34.85
31.73
28.94
26.90
25.65
24.68
23.10
20.00
14.92
8.01
0.01
-8.02
-15.11
-20.77
-25.09
-28.74
-32.64
-37.74
-44.64
-53.35
-63.22
-72.97
-80.91
-85.35
-85.10
-79.82
-70.19
-57.62
-43.83
-30.31
-17.90
-6.81
3.20
12.49
21.24
29.34
36.50
42.36
46.68
49.42
50.66
50.60
49.46
47.46
44.86
41.90
38.90
36.13
33.78
31.90
30.26
28.40
25.73
21.70
16.05
8.93
0.95
-7.08
-14.42
-20.68
-25.98
-30.85
-35.99
-42.04
-49.38
-58.08
-67.82
-77.78
-86.67
-92.80
-94.52
-90.73
-81.45
-67.86
-51.98
-35.99
-21.47
-9.01
1.65
11.23
20.34
29.17
37.37
44.35
49.60
52.85
54.18
53.92
52.44
50.10
47.20
44.04
40.92
38.15
35.85
33.90
31.86
29.18
25.34
20.17
13.89
7.06
0.35
-5.75
-11.08
-15.90
-20.77
-26.43
-33.50
-42.23
-52.28
-62.65
-71.75
-77.79
-79.24
-75.37
-66.53
-54.06
-39.83
-25.62
-12.52
-0.83
9.83
20.04
30.08
39.70
48.25
54.95
59.25
61.10
60.86
59.13
56.57
53.68
50.74
47.96
45.46
43.27
41.36
39.49
37.26
34.18
29.83
24.02
16.93
9.10
1.23
-6.00
-12.26
-17.66
-22.76
-28.38
-35.38
-44.32
-55.17
-67.09
-78.48
-87.28
-91.49
-89.91
-82.52
-70.55
-56.04
-41.07
-27.10
-14.56
-3.06
8.22
19.81
31.71
43.25
53.41
61.29
66.34
68.64
68.73
67.40
65.38
63.11
60.75
58.26
55.54
52.63
49.67
46.83
44.19
41.58
38.63
34.83
29.76
23.30
15.70
7.54
-0.47
-7.73
-14.01
-19.52
-24.82
-30.65
-37.68
-46.26
-56.34
-67.30
-77.99
-86.88
-92.35
-93.13
-88.65
-79.32
-66.33
-51.33
-35.87
-21.04
-7.28
5.48
17.52
29.06
40.04
50.13
58.74
65.31
69.49
71.35
71.32
70.11
68.44
66.79
65.33
63.92
62.30
60.25
57.68
54.61
51.11
47.19
42.85
38.07
32.80
27.05
20.87
14.34
7.61
0.90
-5.58
-11.74
-17.61
-23.46
-29.70
-36.81
-45.17
-54.87
-65.56
-76.28
-85.58
-91.80
-93.48
-89.88
-81.26
-68.83
-54.32
-39.47
-25.51
-12.88
-1.40
9.44
20.15
30.87
41.28
50.69
58.30
63.46
65.96
66.12
64.68
62.51
60.30
58.38
56.71
55.12
53.41
51.50
49.37
46.91
43.91
40.12
35.33
29.64
23.33
16.79
10.34
4.15
-1.69
-7.21
-12.39
-17.35
-22.27
-27.59
-33.85
-41.53
-50.70
-60.84
-70.76
-78.82
-83.37
-83.24
-78.11
-68.66
-56.33
-42.81
-29.54
-17.30
-6.13
4.30
14.39
24.20
33.41
41.44
47.71
51.92
54.13
54.69
54.07
52.73
50.95
48.90
46.74
44.59
42.60
40.88
39.38
37.86
35.91
33.10
29.10
23.88
17.68
10.96
4.31
-1.75
-6.92
-11.19
-14.94
-18.86
-23.69
-30.06
-38.17
-47.59
-57.32
-65.89
-71.69
-73.45
-70.55
-63.23
-52.53
-39.97
-27.06
-14.92
-4.00
5.82
14.96
23.77
32.31
40.24
46.98
52.02
55.05
56.20
55.89
54.75
53.41
52.28
51.53
51.09
50.75
50.24
49.34
47.89
45.74
42.81
39.11
34.76
30.02
25.25
20.74
16.60
12.61
8.35
3.43
-2.34
-8.79
-15.44
-21.76
-27.41
-32.42
-37.22
-42.47
-48.83
-56.65
-65.74
-75.19
-83.49
-88.84
-89.70
-85.36
-76.21
-63.67
-49.69
-36.07
-23.92
-13.40
-4.07
4.78
13.59
22.40
30.85
38.38
44.52
48.97
51.70
52.86
52.77
51.78
50.34
48.85
47.65
46.95
46.81
47.09
47.42
47.29
46.15
43.62
39.62
34.45
28.77
23.25
18.36
14.14
10.23
6.06
1.19
-4.48
-10.61
-16.64
-22.08
-26.77
-31.00
-35.39
-40.63
-47.25
-55.36
-64.51
-73.70
-81.47
-86.20
-86.56
-81.93
-72.71
-60.24
-46.36
-32.86
-20.84
-10.55
-1.51
7.06
15.67
24.31
32.49
39.43
44.54
47.56
48.62
48.18
46.77
44.88
42.85
40.93
39.32
38.12
37.29
36.68
35.97
34.80
32.91
30.21
26.77
22.76
18.31
13.54
8.56
3.52
-1.30
-5.63
-9.35
-12.62
-15.92
-19.79
-24.71
-30.90
-38.23
-46.33
-54.54
-61.99
-67.60
-70.20
-68.83
-63.16
-53.69
-41.73
-28.96
-16.86
-6.26
2.74
10.60
17.81
24.65
31.02
36.56
40.84
43.63
44.91
44.90
43.94
42.33
40.34
38.09
35.64
33.01
30.32
27.71
25.32
23.24
21.31
19.25
16.71
13.44
9.43
4.88
0.14
-4.42
-8.60
-12.30
-15.67
-18.97
-22.60
-26.99
-32.51
-39.28
-46.99
-54.74
-61.18
-64.76
-64.30
-59.35
-50.48
-39.04
-26.75
-15.18
-5.31
2.64
9.01
14.38
19.21
23.67
27.58
30.66
32.69
33.70
33.92
33.73
33.46
33.24
32.98
32.46
31.49
30.01
28.17
26.15
24.08
21.91
19.40
16.26
12.30
7.59
2.44
-2.69
-7.36
-11.31
-14.59
-17.51
-20.59
-24.42
-29.47
-35.92
-43.48
-51.28
-57.98
-62.04
-62.16
-57.78
-49.36
-38.20
-26.12
-14.70
-4.92
3.03
9.56
15.22
20.35
24.91
28.61
31.10
32.23
32.14
31.20
29.88
28.55
27.45
26.60
25.92
25.24
24.41
23.30
21.79
19.73
17.00
13.49
9.16
4.09
-1.47
-7.15
-12.49
-17.11
-20.85
-23.94
-27.02
-30.91
-36.34
-43.48
-51.72
-59.65
-65.48
-67.57
-65.03
-57.90
-47.24
-34.64
-21.84
-10.16
-0.31
7.65
14.11
19.60
24.46
28.75
32.26
34.62
35.62
35.32
34.04
32.24
30.36
28.64
27.15
25.88
24.81
23.93
23.17
22.32
21.01
18.83
15.46
10.88
5.38
-0.50
-6.18
-11.25
-15.60
-19.45
-23.34
-27.88
-33.55
-40.41
-47.92
-54.92
-59.88
-61.33
-58.35
-50.94
-40.06
-27.33
-14.55
-3.13
6.27
13.68
19.55
24.41
28.53
31.90
34.30
35.61
35.85
35.24
34.05
32.54
30.83
29.02
27.24
25.69
24.53
23.84
23.42
22.81
21.42
18.73
14.50
8.92
2.61
-3.65
-9.14
-13.46
-16.69
-19.31
-22.07
-25.78
-31.01
-37.92
-46.02
-54.20
-60.87
-64.38
-63.52
-57.93
-48.32
-36.19
-23.40
-11.55
-1.55
6.42
12.73
17.88
22.26
25.96
28.94
31.06
32.33
32.83
32.76
32.34
31.69
30.95
30.17
29.44
28.78
28.11
27.21
25.69
23.18
19.35
14.21
8.05
1.39
-5.17
-11.13
-16.17
-20.30
-23.84
-27.40
-31.69
-37.29
-44.28
-51.99
-59.00
-63.48
-63.81
-59.18
-49.99
-37.60
-24.01
-11.01
0.16
9.13
16.10
21.59
26.05
29.68
32.44
34.17
34.80
34.44
33.35
31.91
30.43
29.10
27.97
26.94
25.87
24.60
22.96
20.73
17.73
13.88
9.30
4.29
-0.73
-5.39
-9.58
-13.47
-17.52
-22.27
-28.19
-35.41
-43.61
-51.90
-58.93
-63.13
-63.20
-58.52
-49.48
-37.42
-24.17
-11.51
-0.60
8.15
15.02
20.60
25.38
29.57
33.03
35.50
36.72
36.66
35.52
33.67
31.56
29.58
27.94
26.68
25.66
24.62
23.25
21.23
18.32
14.36
9.44
3.84
-2.03
-7.71
-12.95
-17.75
-22.44
-27.58
-33.69
-40.98
-49.10
-57.07
-63.38
-66.45
-65.05
-58.86
-48.50
-35.49
-21.65
-8.63
2.56
11.64
18.79
24.41
28.80
32.14
34.46
35.83
36.37
36.24
35.62
34.64
33.48
32.27
31.10
29.99
28.82
27.38
25.40
22.71
19.24
15.13
10.60
5.91
1.25
-3.28
-7.71
-12.22
-17.08
-22.65
-29.19
-36.77
-44.93
-52.75
-58.82
-61.62
-60.02
-53.67
-43.25
-30.32
-16.86
-4.57
5.49
13.13
18.82
23.21
26.81
29.71
31.73
32.65
32.49
31.49
30.17
28.98
28.19
27.78
27.54
27.20
26.53
25.39
23.66
21.17
17.78
13.36
8.00
2.00
-4.17
-10.00
-15.17
-19.65
-23.80
-28.27
-33.75
-40.65
-48.79
-57.21
-64.33
-68.28
-67.63
-61.83
-51.49
-38.18
-23.92
-10.49
0.96
10.05
17.03
22.39
26.60
29.99
32.62
34.48
35.44
35.45
34.56
33.01
31.15
29.37
27.90
26.69
25.44
23.73
21.27
17.98
14.09
9.90
5.65
1.41
-2.96
-7.63
-12.74
-18.43
-24.86
-32.19
-40.53
-49.60
-58.50
-65.76
-69.60
-68.64
-62.33
-51.37
-37.51
-22.93
-9.54
1.60
10.40
17.46
23.46
28.79
33.33
36.69
38.54
38.85
38.06
36.81
35.64
34.84
34.33
33.80
32.87
31.28
28.90
25.73
21.86
17.41
12.48
7.14
1.41
-4.68
-11.09
-17.83
-24.94
-32.51
-40.56
-48.83
-56.63
-62.75
-65.75
-64.36
-58.02
-47.20
-33.36
-18.49
-4.46
7.50
17.03
24.45
30.39
35.32
39.41
42.48
44.31
44.82
44.25
43.06
41.76
40.71
40.01
39.51
38.90
37.89
36.24
33.86
30.83
27.34
23.61
19.85
16.14
12.46
8.62
4.29
-0.86
-7.07
-14.20
-21.61
-28.02
-31.84
-31.57
-26.31
-16.23
-2.53
12.96
28.43
42.69
55.36
66.71
77.20
86.85
94.89
99.73
99.39
92.17
77.40
55.88
29.83
2.34
-23.47
-45.20
-61.58
-72.34
-77.90
-78.99
-76.49
-71.44
-65.07
-58.74
-53.67
-50.69
-50.13
-51.91
-55.70
-61.15
-67.89
-75.50
-83.33
-90.35
-95.26
-96.69
-93.58
-85.55
-73.04
-57.31
-40.09
-23.14
-7.87
4.98
15.30
23.40
29.72
34.58
38.10
40.32
41.29
41.24
40.56
39.72
39.05
38.67
38.44
38.04
37.13
35.41
32.74
29.14
24.74
19.72
14.28
8.54
2.54
-3.82
-10.76
-18.54
-27.30
-36.79
-46.19
-54.12
-58.97
-59.36
-54.70
-45.49
-33.17
-19.68
-6.83
4.28
13.32
20.60
26.58
31.53
35.42
37.99
39.02
38.58
37.07
35.12
33.32
31.93
30.89
29.80
28.18
25.81
22.71
19.21
15.67
12.31
9.08
5.64
1.60
-3.43
-9.69
-17.20
-25.70
-34.67
-43.24
-50.25
-54.41
-54.61
-50.25
-41.56
-29.62
-16.12
-2.89
8.64
17.75
24.54
29.56
33.39
36.38
38.41
39.21
38.59
36.66
33.92
31.01
28.52
26.70
25.49
24.56
23.41
21.66
19.08
15.71
11.79
7.65
3.52
-0.55
-4.71
-9.27
-14.50
-20.60
-27.60
-35.34
-43.33
-50.76
-56.39
-58.87
-57.10
-50.64
-40.09
-26.86
-12.83
0.34
11.57
20.58
27.59
33.05
37.26
40.27
41.94
42.18
41.11
39.24
37.33
36.11
36.00
36.97
38.44
39.66
39.98
39.22
37.66
35.90
34.49
33.64
33.15
32.48
31.07
28.53
24.82
20.18
15.15
10.48
7.09
5.91
7.50
11.81
17.93
24.27
28.98
30.65
28.70
23.49
16.08
7.67
-0.85
-9.07
-17.05
-25.11
-33.49
-42.18
-50.74
-58.30
-63.75
-66.06
-64.76
-60.12
-53.21
-45.61
-38.83
-33.96
-31.45
-31.09
-32.37
-34.62
-37.26
-39.90
-42.33
-44.64
-47.16
-50.38
-54.73
-60.24
-66.33
-71.73
-74.71
-73.58
-67.27
-55.78
-40.29
-22.82
-5.61
9.54
21.69
30.79
37.40
42.23
45.78
48.20
49.43
49.45
48.44
46.80
45.05
43.57
42.56
41.93
41.43
40.73
39.53
37.63
34.94
31.47
27.26
22.41
17.03
11.29
5.39
-0.53
-6.41
-12.41
-18.93
-26.42
-35.08
-44.49
-53.51
-60.45
-63.57
-61.73
-54.82
-43.82
-30.43
-16.56
-3.76
7.10
15.82
22.65
28.05
32.34
35.70
38.11
39.47
39.72
38.95
37.44
35.57
33.75
32.28
31.24
30.50
29.74
28.58
26.73
24.00
20.34
15.85
10.67
5.09
-0.60
-6.10
-11.25
-16.17
-21.29
-27.23
-34.44
-42.87
-51.68
-59.28
-63.82
-63.74
-58.43
-48.41
-35.23
-20.91
-7.33
4.31
13.59
20.79
26.46
31.04
34.66
37.11
38.12
37.54
35.62
32.97
30.29
28.20
26.87
26.08
25.30
24.03
22.00
19.23
16.01
12.59
9.13
5.53
1.61
-2.84
-7.94
-13.70
-20.11
-27.09
-34.56
-42.16
-49.19
-54.51
-56.84
-55.08
-48.82
-38.56
-25.62
-11.87
0.95
11.65
19.78
25.58
29.58
32.27
33.87
34.35
33.60
31.74
29.12
26.38
24.13
22.69
21.99
21.58
20.90
19.48
17.17
14.09
10.53
6.78
2.97
-0.96
-5.23
-10.03
-15.60
-22.05
-29.36
-37.34
-45.54
-53.13
-58.98
-61.86
-60.76
-55.32
-45.95
-33.82
-20.57
-7.79
3.38
12.45
19.51
24.90
28.90
31.57
32.74
32.32
30.45
27.65
24.71
22.45
21.27
21.08
21.33
21.21
20.10
17.72
14.28
10.24
6.11
2.16
-1.70
-5.90
-11.02
-17.54
-25.66
-35.09
-45.06
-54.35
-61.52
-65.22
-64.46
-59.01
-49.38
-36.81
-22.90
-9.22
3.07
13.36
21.46
27.47
31.53
33.75
34.33
33.56
31.94
30.11
28.59
27.68
27.25
26.88
26.07
24.48
22.10
19.20
16.17
13.23
10.32
7.00
2.67
-3.18
-10.80
-19.94
-29.75
-38.92
-45.82
-48.98
-47.48
-41.30
-31.33
-19.10
-6.33
5.56
15.67
23.68
29.62
33.58
35.67
35.92
34.48
31.66
28.01
24.18
20.77
18.11
16.14
14.51
12.78
10.65
8.05
5.18
2.31
-0.49
-3.36
-6.70
-10.99
-16.61
-23.64
-31.74
-40.05
-47.32
-52.06
-52.88
-49.01
-40.62
-28.85
-15.43
-2.20
9.46
18.94
26.20
31.46
34.87
36.35
35.84
33.51
29.94
26.05
22.69
20.39
19.10
18.33
17.38
15.74
13.21
10.00
6.52
3.13
-0.08
-3.36
-7.14
-11.88
-17.88
-25.18
-33.60
-42.63
-51.44
-58.85
-63.42
-63.87
-59.50
-50.52
-38.21
-24.41
-11.03
0.66
10.14
17.55
23.29
27.59
30.42
31.68
31.40
29.97
28.08
26.50
25.72
25.84
26.43
26.81
26.27
24.37
21.09
16.77
11.97
7.18
2.68
-1.60
-6.02
-11.08
-17.27
-24.86
-33.73
-43.33
-52.60
-60.20
-64.72
-65.09
-60.82
-52.27
-40.55
-27.26
-14.02
-2.13
7.70
15.28
20.78
24.43
26.43
26.92
26.16
24.58
22.76
21.27
20.38
19.97
19.58
18.67
16.90
14.31
11.21
8.05
5.08
2.25
-0.82
-4.73
-10.00
-16.92
-25.34
-34.62
-43.59
-50.71
-54.43
-53.64
-48.07
-38.49
-26.47
-13.87
-2.23
7.68
15.78
22.42
27.88
32.06
34.62
35.22
33.94
31.37
28.43
25.98
24.40
23.51
22.67
21.22
18.74
15.30
11.24
7.07
3.11
-0.60
-4.27
-8.38
-13.41
-19.88
-28.05
-37.74
-48.12
-57.67
-64.50
-66.82
-63.66
-55.25
-42.96
-28.82
-14.78
-2.12
8.77
18.15
26.48
33.94
40.23
44.75
46.92
46.61
44.27
40.87
37.47
34.89
33.31
32.38
31.43
29.83
27.34
24.11
20.50
16.82
13.12
9.20
4.74
-0.56
-6.83
-14.17
-22.57
-31.92
-41.84
-51.47
-59.49
-64.33
-64.70
-60.08
-50.98
-38.84
-25.53
-12.64
-1.07
9.04
18.00
26.12
33.33
39.16
43.08
44.75
44.28
42.21
39.24
36.09
33.28
31.07
29.45
28.19
26.82
24.83
21.83
17.72
12.79
7.53
2.46
-2.14
-6.42
-10.82
-15.87
-22.06
-29.56
-38.20
-47.34
-55.92
-62.55
-65.74
-64.42
-58.24
-47.85
-34.74
-20.82
-7.77
3.44
12.63
20.24
26.80
32.61
37.59
41.38
43.65
44.36
43.80
42.49
40.92
39.34
37.70
35.72
33.10
29.66
25.50
20.92
16.26
11.75
7.40
2.98
-1.87
-7.46
-14.04
-21.71
-30.42
-39.92
-49.60
-58.46
-65.16
-68.31
-66.89
-60.69
-50.46
-37.69
-24.16
-11.32
0.00
9.79
18.43
26.37
33.72
40.14
45.07
48.00
48.81
47.84
45.79
43.36
41.08
39.14
37.35
35.36
32.86
29.65
25.76
21.36
16.69
11.87
6.89
1.59
-4.26
-10.88
-18.41
-26.89
-36.22
-46.07
-55.73
-64.06
-69.64
-71.05
-67.46
-58.93
-46.55
-32.12
-17.51
-4.10
7.53
17.56
26.49
34.70
42.20
48.61
53.43
56.31
57.26
56.60
54.87
52.51
49.90
47.26
44.73
42.41
40.32
38.33
36.13
33.36
29.64
24.83
18.98
12.43
5.64
-0.95
-7.01
-12.58
-18.04
-24.04
-31.30
-40.21
-50.48
-60.97
-69.93
-75.38
-75.83
-70.81
-61.00
-48.04
-33.87
-20.17
-7.87
2.84
12.32
21.00
29.11
36.47
42.66
47.20
49.80
50.49
49.57
47.54
44.90
42.09
39.38
36.98
34.96
33.27
31.73
29.97
27.51
23.90
18.99
12.97
6.42
-0.01
-5.86
-11.07
-16.08
-21.62
-28.38
-36.71
-46.29
-56.13
-64.66
-70.15
-71.18
-67.12
-58.35
-46.17
-32.31
-18.40
-5.47
6.16
16.69
26.39
35.28
43.09
49.36
53.78
56.39
57.55
57.81
57.60
57.13
56.40
55.39
54.17
52.98
52.08
51.53
51.12
50.39
48.83
46.03
41.93
36.76
30.93
24.93
19.15
13.82
8.92
4.22
-0.67
-6.10
-12.22
-18.82
-25.41
-31.46
-36.64
-41.03
-45.19
-49.97
-56.16
-64.22
-73.86
-84.06
-93.13
-99.06
-100.15
-95.45
-85.17
-70.61
-53.78
-36.79
-21.19
-7.74
3.63
13.49
22.39
30.63
38.14
44.54
49.48
52.80
54.60
55.22
55.02
54.30
53.20
51.80
50.16
48.41
46.72
45.23
43.90
42.51
40.71
38.15
34.64
30.26
25.30
20.15
15.11
10.24
5.37
0.28
-5.18
-10.94
-16.73
-22.19
-27.09
-31.45
-35.68
-40.40
-46.32
-53.86
-62.96
-72.76
-81.71
-87.83
-89.36
-85.27
-75.83
-62.44
-47.20
-32.16
-18.66
-7.10
2.88
11.92
20.49
28.60
35.88
41.82
46.09
48.62
49.64
49.52
48.64
47.27
45.59
43.72
41.80
40.02
38.55
37.45
36.51
35.35
33.37
30.05
25.22
19.13
12.40
5.87
0.21
-4.27
-7.65
-10.47
-13.49
-17.53
-23.24
-30.81
-39.75
-48.86
-56.32
-60.18
-58.91
-52.05
-40.38
-25.75
-10.42
3.64
15.42
25.08
33.59
42.33
52.30
63.71
75.70
86.46
93.64
95.07
89.44
76.91
59.23
39.33
20.39
4.90
-5.96
-12.41
-15.57
-16.77
-16.99
-16.68
-15.99
-15.13
-14.61
-15.09
-17.13
-20.83
-25.76
-31.09
-36.03
-40.06
-43.28
-46.17
-49.40
-53.53
-58.81
-65.21
-72.47
-80.14
-87.53
-93.62
-97.16
-96.86
-91.83
-81.95
-68.01
-51.59
-34.54
-18.45
-4.31
7.62
17.59
26.09
33.46
39.84
45.10
48.99
51.31
52.04
51.37
49.71
47.58
45.50
43.83
42.71
42.06
41.62
41.09
40.27
39.08
37.57
35.82
33.85
31.54
28.68
25.06
20.52
15.15
9.17
2.90
-3.35
-9.42
-15.19
-20.71
-26.09
-31.60
-37.59
-44.50
-52.55
-61.53
-70.55
-78.12
-82.52
-82.31
-76.95
-66.97
-53.82
-39.36
-25.23
-12.43
-1.18
8.74
17.73
25.95
33.32
39.56
44.37
47.60
49.32
49.80
49.34
48.24
46.68
44.84
42.90
41.13
39.83
39.12
38.90
38.69
37.84
35.79
32.34
27.78
22.78
18.10
14.25
11.31
8.89
6.33
2.95
-1.68
-7.51
-14.08
-20.66
-26.46
-31.08
-34.60
-37.64
-41.16
-46.10
-52.98
-61.67
-71.15
-79.81
-85.70
-87.16
-83.23
-74.04
-60.78
-45.29
-29.54
-15.08
-2.67
7.63
16.25
23.68
30.19
35.83
40.45
43.90
46.22
47.57
48.20
48.35
48.10
47.42
46.30
44.81
43.21
41.80
40.80
40.18
39.67
38.79
37.09
34.35
30.62
26.21
21.55
17.03
12.88
9.09
5.47
1.61
-2.82
-7.98
-13.76
-19.72
-25.31
-30.08
-33.94
-37.23
-40.63
-44.90
-50.63
-57.97
-66.56
-75.49
-83.40
-88.78
-90.20
-86.84
-78.62
-66.43
-51.80
-36.44
-21.83
-8.80
2.46
12.27
21.02
28.97
36.10
42.19
46.95
50.24
52.12
52.88
52.89
52.46
51.79
50.90
49.79
48.52
47.21
46.06
45.12
44.29
43.25
41.61
39.11
35.70
31.60
27.14
22.72
18.57
14.82
11.38
8.11
4.73
0.95
-3.44
-8.55
-14.20
-20.04
-25.63
-30.58
-34.83
-38.63
-42.58
-47.34
-53.42
-61.00
-69.69
-78.54
-86.13
-90.89
-91.48
-87.19
-78.23
-65.60
-50.88
-35.69
-21.34
-8.55
2.53
12.15
20.64
28.29
35.21
41.32
46.44
50.36
52.98
54.35
54.68
54.29
53.51
52.56
51.53
50.38
49.03
47.43
45.65
43.77
41.88
39.89
37.65
34.90
31.50
27.52
23.24
19.08
15.43
12.43
9.90
7.44
4.48
0.57
-4.46
-10.48
-17.09
-23.73
-29.86
-35.16
-39.64
-43.71
-48.05
-53.43
-60.37
-68.84
-78.05
-86.50
-92.36
-93.94
-90.25
-81.31
-68.12
-52.45
-36.19
-20.92
-7.53
3.75
13.18
21.20
28.11
34.06
38.98
42.88
45.83
48.02
49.66
50.85
51.59
51.75
51.34
50.45
49.33
48.24
47.33
46.53
45.54
43.95
41.39
37.71
33.06
27.90
22.76
18.09
14.09
10.61
7.27
3.62
-0.59
-5.36
-10.31
-14.99
-19.03
-22.33
-25.19
-28.20
-32.09
-37.48
-44.58
-52.97
-61.57
-68.69
-72.40
-71.09
-63.92
-51.20
-34.35
-15.50
3.10
19.65
33.15
43.40
50.75
55.91
59.50
62.00
63.63
64.35
64.07
62.75
60.50
57.58
54.33
51.05
47.87
44.75
41.49
37.88
33.76
29.02
23.65
17.72
11.29
4.46
-2.70
-10.24
-18.20
-26.59
-35.28
-43.91
-51.90
-58.66
-63.75
-67.12
-69.22
-70.93
-73.32
-77.28
-83.22
-90.85
-99.19
-106.68
-111.57
-112.33
-108.00
-98.48
-84.58
-67.82
-50.02
-32.85
-17.42
-4.16
7.11
16.80
25.26
32.56
38.63
43.33
46.69
48.96
50.52
51.67
52.55
53.11
53.22
52.80
51.92
50.80
49.70
48.70
47.69
46.27
43.97
40.39
35.52
29.71
23.68
18.17
13.68
10.20
7.25
4.10
0.18
-4.75
-10.46
-16.43
-22.12
-27.22
-31.64
-35.64
-39.68
-44.33
-50.14
-57.51
-66.40
-76.11
-85.31
-92.15
-94.85
-92.20
-84.00
-71.13
-55.24
-38.25
-21.81
-7.05
5.52
15.87
24.27
31.08
36.67
41.32
45.16
48.16
50.23
51.39
51.76
51.65
51.33
50.99
50.64
50.20
49.62
48.90
48.09
47.18
46.00
44.26
41.66
38.04
33.51
28.47
23.40
18.72
14.64
11.02
7.46
3.43
-1.46
-7.32
-13.83
-20.42
-26.50
-31.74
-36.13
-40.03
-43.98
-48.51
-54.12
-61.09
-69.43
-78.64
-87.62
-94.79
-98.36
-96.87
-89.74
-77.52
-61.75
-44.46
-27.56
-12.37
0.58
11.31
20.16
27.50
33.55
38.43
42.22
45.02
47.03
48.45
49.44
50.10
50.48
50.62
50.58
50.47
50.42
50.49
50.64
50.63
50.12
48.72
46.18
42.46
37.75
32.46
27.01
21.75
16.84
12.22
7.66
2.83
-2.49
-8.34
-14.62
-21.00
-27.16
-32.89
-38.12
-43.07
-48.13
-53.78
-60.51
-68.58
-77.79
-87.35
-95.80
-101.26
-101.94
-96.78
-85.89
-70.62
-53.08
-35.52
-19.66
-6.23
4.86
14.20
22.34
29.53
35.64
40.41
43.67
45.47
46.15
46.18
46.04
46.09
46.45
46.98
47.43
47.45
46.80
45.38
43.23
40.49
37.21
33.39
28.88
23.58
17.52
10.93
4.20
-2.28
-8.17
-13.32
-17.81
-21.91
-26.08
-30.87
-36.87
-44.37
-53.26
-62.81
-71.71
-78.30
-81.05
-78.95
-71.95
-60.89
-47.32
-32.94
-19.19
-6.95
3.51
12.30
19.69
25.88
30.90
34.75
37.45
39.13
40.09
40.63
41.02
41.42
41.82
42.12
42.19
41.91
41.19
40.07
38.58
36.77
34.57
31.81
28.14
23.25
16.99
9.50
1.35
-6.74
-14.02
-20.19
-25.47
-30.63
-36.57
-44.07
-53.39
-64.13
-75.27
-85.37
-92.84
-96.27
-94.70
-87.92
-76.55
-61.94
-45.78
-29.72
-14.85
-1.65
9.96
20.26
29.46
37.54
44.34
49.77
53.89
56.96
59.33
61.21
62.62
63.45
63.57
63.08
62.21
61.30
60.58
60.03
59.26
57.70
54.78
50.24
44.22
37.34
30.41
24.19
19.09
14.95
11.20
7.03
1.80
-4.72
-12.17
-19.83
-26.93
-32.94
-37.86
-42.21
-46.84
-52.66
-60.35
-70.04
-81.22
-92.71
-102.79
-109.60
-111.51
-107.61
-97.96
-83.61
-66.30
-47.97
-30.26
-14.13
0.15
12.88
24.49
35.28
45.26
54.16
61.73
67.82
72.56
76.21
79.04
81.14
82.39
82.64
81.93
80.69
79.61
79.42
80.49
82.62
85.06
86.82
87.04
85.35
81.90
77.20
71.80
66.00
59.77
52.84
44.92
35.96
26.16
15.96
5.80
-4.06
-13.63
-23.27
-33.45
-44.70
-57.32
-71.17
-85.52
-98.99
-109.76
-115.96
-116.20
-110.06
-98.26
-82.44
-64.65
-46.80
-30.14
-15.21
-2.01
9.66
19.95
28.83
36.18
41.87
45.88
48.34
49.50
49.69
49.21
48.41
47.49
46.57
45.68
44.74
43.59
42.00
39.67
36.28
31.58
25.54
18.43
10.76
3.16
-3.85
-10.05
-15.61
-20.91
-26.37
-32.17
-38.23
-44.21
-49.76
-54.71
-59.16
-63.54
-68.46
-74.51
-82.08
-91.05
-100.63
-109.34
-115.25
-116.46
-111.75
-101.01
-85.37
-66.80
-47.52
-29.28
-13.04
1.12
13.54
24.61
34.41
42.71
49.12
53.41
55.71
56.50
56.46
56.14
55.87
55.60
55.07
54.07
52.53
50.54
48.26
45.78
43.07
39.98
36.37
32.09
27.09
21.41
15.18
8.61
2.02
-4.28
-10.09
-15.34
-20.27
-25.31
-30.98
-37.75
-45.84
-55.10
-64.96
-74.42
-82.13
-86.70
-86.89
-82.12
-72.56
-59.22
-43.72
-27.84
-13.03
-0.13
10.73
19.91
27.88
34.93
41.03
45.96
49.51
51.71
52.86
53.40
53.70
53.94
54.10
54.06
53.80
53.39
52.96
52.58
52.11
51.17
49.24
45.93
41.19
35.38
29.28
23.70
19.21
15.89
13.23
10.45
6.84
2.05
-3.78
-10.14
-16.43
-22.22
-27.40
-32.11
-36.74
-41.79
-47.77
-55.10
-63.91
-73.97
-84.39
-93.73
-100.21
-102.14
-98.42
-88.92
-74.61
-57.25
-38.96
-21.58
-6.29
6.55
17.19
26.15
33.94
40.80
46.76
51.68
55.49
58.21
59.96
60.93
61.29
61.19
60.67
59.81
58.64
57.25
55.69
53.96
51.98
49.56
46.57
42.98
38.92
34.61
30.33
26.21
22.32
18.56
14.80
10.94
6.84
2.41
-2.41
-7.61
-13.02
-18.34
-23.24
-27.58
-31.46
-35.31
-39.66
-45.12
-52.11
-60.79
-70.90
-81.68
-91.70
-99.11
-101.98
-98.92
-89.65
-75.24
-57.75
-39.61
-22.75
-8.24
3.87
14.04
22.87
30.64
37.37
42.89
47.13
50.20
52.39
53.97
55.09
55.78
55.93
55.50
54.56
53.30
51.98
50.77
49.63
48.32
46.49
43.77
39.96
35.15
29.66
23.99
18.67
14.07
10.31
7.16
4.08
0.51
-3.95
-9.30
-15.12
-20.82
-25.89
-30.19
-34.02
-38.07
-43.11
-49.76
-58.21
-68.09
-78.43
-87.71
-94.11
-95.94
-92.12
-82.57
-68.36
-51.43
-33.99
-17.89
-4.21
6.89
15.84
23.27
29.68
35.20
39.71
43.01
45.04
45.98
46.24
46.20
46.09
45.87
45.28
44.02
42.01
39.38
36.48
33.66
31.04
28.42
25.37
21.44
16.35
10.21
3.43
-3.37
-9.60
-14.90
-19.27
-23.02
-26.72
-30.99
-36.39
-43.19
-51.27
-59.99
-68.17
-74.25
-76.67
-74.25
-66.72
-54.86
-40.35
-25.22
-11.25
0.55
10.08
17.82
24.41
30.24
35.30
39.34
42.15
43.73
44.39
44.54
44.61
44.86
45.32
45.87
46.35
46.59
46.43
45.72
44.31
42.03
38.74
34.47
29.41
23.88
18.26
12.78
7.46
2.09
-3.59
-9.71
-16.18
-22.68
-28.82
-34.29
-39.00
-43.14
-47.15
-51.66
-57.29
-64.47
-73.13
-82.47
-90.96
-96.65
-97.69
-92.97
-82.54
-67.63
-50.34
-32.88
-17.03
-3.65
7.27
16.37
24.48
32.20
39.70
46.72
52.82
57.61
60.97
63.07
64.28
64.95
65.31
65.36
65.07
64.48
63.72
63.01
62.43
61.82
60.78
58.87
55.80
51.56
46.48
41.00
35.52
30.27
25.25
20.33
15.39
10.41
5.51
0.91
-3.19
-6.72
-9.83
-12.95
-16.56
-21.02
-26.41
-32.42
-38.56
-44.36
-49.61
-54.45
-59.37
-65.03
-72.04
-80.82
-91.28
-102.60
-113.23
-121.01
-123.77
-120.01
-109.49
-93.35
-73.82
-53.36
-34.03
-16.95
-2.36
10.09
20.89
30.42
38.83
46.11
52.17
56.96
60.52
62.94
64.43
65.19
65.48
65.52
65.52
65.62
65.83
65.99
65.82
64.92
62.96
59.88
55.92
51.50
47.04
42.78
38.71
34.64
30.45
26.13
21.80
17.64
13.69
9.86
5.94
1.67
-3.15
-8.66
-14.84
-21.58
-28.62
-35.61
-42.23
-48.33
-54.16
-60.33
-67.63
-76.66
-87.44
-99.20
-110.33
-118.74
-122.35
-119.69
-110.41
-95.36
-76.42
-56.04
-36.50
-19.40
-5.29
6.13
15.74
24.32
32.26
39.41
45.36
49.72
52.39
53.62
53.80
53.37
52.56
51.51
50.28
49.02
47.91
46.98
46.10
44.92
43.02
40.09
36.02
30.86
24.79
18.06
10.95
3.83
-2.91
-8.95
-14.20
-18.92
-23.58
-28.88
-35.33
-43.26
-52.58
-62.70
-72.52
-80.41
-84.57
-83.43
-76.35
-63.90
-47.91
-30.80
-14.85
-1.40
9.30
17.89
25.30
32.12
38.40
43.73
47.63
49.85
50.62
50.49
50.07
49.80
49.76
49.74
49.34
48.30
46.54
44.29
41.89
39.58
37.32
34.69
31.09
26.03
19.38
11.54
3.36
-4.15
-10.22
-14.53
-17.39
-19.58
-22.12
-25.98
-31.85
-39.89
-49.50
-59.32
-67.28
-71.17
-69.19
-60.65
-46.35
-28.31
-9.21
8.58
23.72
36.23
47.21
58.19
70.32
83.68
97.15
108.65
115.80
116.79
110.86
98.58
81.60
62.07
42.16
23.63
7.65
-5.07
-14.32
-20.36
-23.90
-26.08
-28.10
-30.81
-34.45
-38.65
-42.65
-45.80
-47.89
-49.20
-50.34
-51.90
-54.20
-57.15
-60.47
-63.89
-67.38
-71.23
-75.96
-82.14
-90.10
-99.55
-109.47
-118.00
-122.89
-122.23
-115.03
-101.71
-83.97
-64.27
-44.93
-27.47
-12.34
0.91
13.02
24.48
35.25
44.80
52.51
58.02
61.39
63.07
63.64
63.56
63.04
62.09
60.65
58.77
56.58
54.25
51.89
49.46
46.69
43.27
38.86
33.20
26.31
18.48
10.28
2.41
-4.52
-10.26
-14.96
-19.19
-23.75
-29.37
-36.67
-45.92
-56.99
-69.19
-81.21
-91.22
-97.22
-97.62
-91.80
-80.39
-65.11
-48.22
-31.71
-16.83
-3.91
7.39
17.66
27.28
36.31
44.42
51.19
56.24
59.34
60.46
59.78
57.63
54.51
50.97
47.54
44.56
42.08
39.85
37.39
34.15
29.72
23.96
17.09
9.55
1.93
-5.31
-11.99
-18.34
-24.93
-32.55
-41.77
-52.65
-64.40
-75.34
-83.29
-86.22
-82.99
-73.82
-60.23
-44.48
-28.77
-14.48
-1.93
9.36
20.11
30.66
40.82
49.88
57.11
62.11
64.98
66.14
66.15
65.36
63.90
61.73
58.85
55.55
52.29
49.56
47.57
46.02
44.15
40.98
35.79
28.38
19.22
9.27
-0.43
-9.18
-16.84
-23.89
-31.19
-39.65
-49.89
-62.01
-75.40
-88.77
-100.20
-107.62
-109.27
-104.36
-93.40
-78.11
-60.79
-43.51
-27.42
-12.57
1.64
15.91
30.41
44.64
57.67
68.58
76.82
82.35
85.58
87.06
87.37
86.94
86.08
85.02
83.90
82.81
81.82
80.90
79.95
78.73
76.92
74.21
70.43
65.55
59.70
53.18
46.33
39.56
33.20
27.47
22.31
17.39
12.23
6.30
-0.65
-8.53
-16.85
-24.96
-32.32
-38.84
-44.91
-51.30
-58.86
-68.22
-79.56
-92.52
-106.13
-118.86
-128.72
-133.59
-131.84
-122.89
-107.61
-88.19
-67.41
-47.76
-30.63
-16.05
-3.09
9.34
21.86
34.28
45.79
55.51
62.85
67.71
70.43
71.49
71.35
70.33
68.66
66.55
64.27
62.06
60.09
58.36
56.75
54.95
52.52
49.05
44.22
37.95
30.53
22.52
14.62
7.40
1.14
-4.30
-9.43
-14.90
-21.35
-29.30
-39.02
-50.40
-62.78
-74.86
-84.82
-90.61
-90.57
-84.04
-71.63
-55.14
-36.99
-19.48
-4.15
8.52
18.96
27.99
36.34
44.24
51.47
57.51
61.96
64.67
65.87
65.98
65.40
64.41
63.09
61.36
59.24
56.81
54.22
51.62
49.03
46.19
42.73
38.19
32.23
24.80
16.23
7.12
-1.73
-9.61
-16.21
-21.68
-26.66
-32.06
-38.77
-47.36
-57.92
-69.95
-82.38
-93.62
-101.78
-105.04
-102.20
-93.10
-78.91
-61.72
-43.87
-27.27
-12.77
-0.18
11.27
22.35
33.34
43.86
53.25
60.79
66.09
69.13
70.18
69.68
68.14
66.08
64.00
62.29
61.18
60.63
60.30
59.67
58.15
55.25
50.83
45.09
38.60
32.03
25.96
20.64
15.83
10.99
5.52
-0.91
-8.18
-15.75
-22.95
-29.26
-34.62
-39.48
-44.74
-51.39
-60.18
-71.23
-83.74
-95.97
-105.56
-110.14
-108.08
-99.09
-84.34
-66.12
-47.06
-29.32
-14.07
-1.40
9.36
19.09
28.41
37.46
45.89
53.11
58.52
61.76
62.84
62.12
60.21
57.75
55.28
53.20
51.61
50.47
49.55
48.53
47.03
44.70
41.34
36.97
31.84
26.31
20.74
15.28
9.88
4.32
-1.56
-7.79
-14.20
-20.46
-26.32
-31.71
-36.94
-42.61
-49.45
-57.98
-68.16
-79.14
-89.26
-96.35
-98.43
-94.30
-84.10
-69.23
-51.94
-34.62
-19.03
-5.86
5.14
14.77
23.77
32.47
40.56
47.46
52.62
55.87
57.49
58.01
58.02
57.81
57.47
56.92
56.16
55.28
54.43
53.73
53.04
52.06
50.39
47.71
43.96
39.32
34.18
28.91
23.85
19.16
14.88
10.97
7.25
3.46
-0.74
-5.69
-11.54
-18.14
-25.06
-31.66
-37.44
-42.23
-46.36
-50.57
-55.76
-62.65
-71.59
-82.24
-93.54
-103.70
-110.56
-112.04
-106.91
-95.22
-78.45
-59.10
-39.83
-22.67
-8.51
2.86
12.33
20.83
28.91
36.64
43.69
49.69
54.43
57.95
60.44
62.09
62.98
63.07
62.30
60.80
58.95
57.26
56.18
55.76
55.59
54.91
52.97
49.34
44.20
38.16
32.09
26.71
22.35
18.88
15.76
12.30
7.89
2.28
-4.37
-11.53
-18.58
-25.06
-30.81
-36.05
-41.28
-47.06
-53.96
-62.32
-72.09
-82.59
-92.33
-99.24
-101.13
-96.56
-85.45
-69.31
-50.82
-32.78
-17.27
-5.05
4.31
11.85
18.53
24.79
30.47
35.17
38.53
40.55
41.47
41.71
41.59
41.24
40.59
39.50
37.91
35.95
33.91
32.09
30.67
29.53
28.27
26.33
23.21
18.60
12.58
5.59
-1.69
-8.50
-14.26
-18.72
-22.13
-25.11
-28.52
-33.17
-39.58
-47.75
-57.07
-66.25
-73.52
-77.03
-75.36
-68.06
-55.90
-40.74
-24.91
-10.54
1.08
9.66
15.78
20.35
24.11
27.36
30.02
31.87
32.77
32.90
32.63
32.37
32.35
32.53
32.60
32.24
31.30
29.88
28.28
26.73
25.25
23.54
21.08
17.41
12.23
5.65
-1.88
-9.69
-17.04
-23.36
-28.36
-32.23
-35.53
-39.21
-44.22
-51.17
-59.95
-69.51
-77.97
-83.14
-83.15
-77.10
-65.48
-49.98
-33.03
-16.95
-3.33
7.32
15.42
21.82
27.29
32.15
36.28
39.40
41.30
42.12
42.18
41.81
41.15
40.12
38.55
36.39
33.90
31.53
29.76
28.80
28.40
27.91
26.47
23.35
18.31
11.66
4.23
-2.98
-9.12
-13.82
-17.30
-20.27
-23.72
-28.60
-35.44
-44.08
-53.45
-61.68
-66.53
-66.03
-59.28
-46.86
-30.69
-13.37
2.73
16.22
26.99
35.80
43.72
51.47
59.09
66.14
71.91
75.85
77.76
77.77
76.36
74.12
71.55
68.89
65.89
61.76
55.23
44.98
30.02
10.18
-13.58
-39.21
-64.02
-85.30
-101.10
-110.63
-114.43
-113.98
-111.28
-108.25
-106.34
-106.35
-108.18
-110.88
-112.77
-111.78
-106.12
-94.91
-78.63
-59.05
-38.66
-19.87
-4.24
7.81
16.83
23.83
29.77
35.11
39.83
43.54
45.78
46.35
45.34
43.24
40.67
38.26
36.37
35.07
34.10
33.03
31.43
29.03
25.72
21.59
16.81
11.58
6.04
0.20
-6.03
-12.84
-20.43
-28.98
-38.37
-48.06
-56.90
-63.26
-65.49
-62.45
-54.06
-41.48
-26.77
-12.18
0.56
10.69
18.38
24.28
29.08
33.14
36.54
39.17
40.98
41.99
42.26
41.83
40.73
39.02
36.90
34.65
32.61
30.95
29.64
28.32
26.50
23.60
19.23
13.27
6.01
-1.90
-9.69
-16.58
-22.18
-26.64
-30.69
-35.45
-42.00
-50.85
-61.46
-72.24
-80.79
-84.71
-82.34
-73.45
-59.23
-41.98
-24.33
-8.44
4.47
14.23
21.44
27.04
31.77
35.98
39.57
42.23
43.70
43.91
43.08
41.56
39.70
37.77
35.90
34.14
32.46
30.73
28.72
26.11
22.62
18.12
12.71
6.73
0.60
-5.29
-10.78
-15.97
-21.26
-27.18
-34.26
-42.77
-52.43
-62.26
-70.62
-75.53
-75.33
-69.21
-57.66
-42.43
-25.91
-10.40
2.57
12.62
20.27
26.40
31.70
36.34
40.07
42.51
43.58
43.60
43.15
42.76
42.60
42.46
41.86
40.46
38.23
35.46
32.57
29.82
27.11
24.07
20.17
15.09
8.82
1.75
-5.48
-12.21
-17.99
-22.72
-26.75
-30.77
-35.65
-42.16
-50.77
-61.32
-72.94
-84.01
-92.50
-96.39
-94.28
-85.89
-72.19
-55.20
-37.28
-20.51
-6.09
5.71
15.31
23.36
30.35
36.43
41.50
45.39
48.11
49.80
50.75
51.16
51.08
50.41
49.06
47.08
44.75
42.44
40.43
38.70
36.90
34.48
30.90
25.92
19.64
12.49
5.08
-1.99
-8.36
-14.00
-19.29
-24.92
-31.71
-40.30
-50.78
-62.46
-73.80
-82.68
-86.92
-85.03
-76.71
-63.06
-46.25
-28.80
-12.84
0.49
11.10
19.68
27.10
33.90
40.12
45.42
49.40
51.92
53.26
53.91
54.38
54.83
55.06
54.67
53.35
51.13
48.42
45.77
43.49
41.46
39.04
35.42
29.96
22.56
13.75
4.53
-4.07
-11.37
-17.27
-22.28
-27.24
-33.02
-40.25
-49.16
-59.43
-70.15
-79.83
-86.59
-88.57
-84.51
-74.25
-59.01
-41.04
-22.98
-7.00
5.77
15.35
22.50
28.21
33.15
37.48
40.98
43.31
44.33
44.20
43.36
42.28
41.28
40.40
39.53
38.53
37.39
36.21
35.01
33.65
31.69
28.58
23.93
17.73
10.49
2.92
-4.28
-10.80
-16.87
-23.10
-30.22
-38.82
-48.95
-59.98
-70.55
-78.67
-82.26
-79.80
-70.94
-56.80
-39.62
-22.06
-6.32
6.51
16.48
24.34
30.90
36.58
41.30
44.68
46.52
46.94
46.46
45.79
45.50
45.78
46.46
47.03
46.92
45.78
43.58
40.57
37.17
33.71
30.27
26.65
22.48
17.35
11.06
3.73
-4.14
-11.88
-18.83
-24.69
-29.58
-34.12
-39.19
-45.67
-54.17
-64.75
-76.78
-88.82
-98.88
-104.74
-104.63
-97.80
-84.87
-67.70
-48.79
-30.49
-14.37
-0.98
10.01
19.29
27.47
34.78
41.13
46.20
49.76
51.82
52.65
52.62
52.09
51.21
49.89
47.97
45.41
42.41
39.38
36.68
34.42
32.22
29.46
25.46
19.98
13.29
6.12
-0.65
-6.43
-11.14
-15.24
-19.56
-25.01
-32.30
-41.70
-52.81
-64.54
-75.14
-82.58
-85.03
-81.54
-72.33
-58.77
-42.97
-27.00
-12.34
0.40
11.33
20.90
29.46
37.03
43.43
48.37
51.73
53.68
54.56
54.78
54.59
54.00
52.90
51.14
48.71
45.85
42.88
40.10
37.52
34.86
31.62
27.31
21.73
15.00
7.63
0.32
-6.37
-12.13
-17.09
-21.79
-27.04
-33.66
-42.18
-52.52
-63.77
-74.28
-81.89
-84.58
-81.11
-71.49
-57.06
-40.03
-22.82
-7.31
5.55
15.76
23.92
30.69
36.46
41.27
44.89
47.14
48.00
47.73
46.73
45.38
43.96
42.63
41.46
40.50
39.78
39.21
38.51
37.26
34.93
31.14
25.86
19.46
12.56
5.86
-0.25
-5.80
-11.24
-17.34
-24.76
-33.67
-43.47
-52.78
-59.63
-62.14
-59.16
-50.73
-38.12
-23.50
-9.20
2.92
11.98
18.14
22.30
25.60
28.92
32.55
36.25
39.43
41.50
42.19
41.57
40.00
37.81
35.17
32.07
28.48
24.51
20.47
16.75
13.53
10.61
7.41
3.26
-2.25
-8.99
-16.32
-23.34
-29.27
-33.79
-37.18
-40.20
-43.80
-48.83
-55.77
-64.48
-74.12
-83.19
-89.73
-91.83
-88.19
-78.68
-64.42
-47.55
-30.48
-15.07
-2.16
8.47
17.60
26.04
34.03
41.28
47.15
51.12
53.08
53.45
52.88
52.00
51.12
50.22
49.04
47.38
45.27
42.90
40.58
38.47
36.49
34.29
31.42
27.47
22.27
15.92
8.78
1.39
-5.66
-11.94
-17.30
-22.01
-26.59
-31.74
-38.07
-45.94
-55.37
-65.91
-76.59
-85.95
-92.18
-93.50
-88.80
-78.11
-62.75
-45.01
-27.41
-11.88
0.74
10.73
19.08
26.75
34.23
41.34
47.43
51.87
54.38
55.23
55.08
54.65
54.41
54.39
54.30
53.71
52.39
50.34
47.80
45.07
42.33
39.50
36.30
32.35
27.32
21.17
14.17
6.89
-0.05
-6.14
-11.26
-15.66
-19.89
-24.60
-30.34
-37.52
-46.18
-55.86
-65.52
-73.55
-78.02
-77.30
-70.63
-58.52
-42.63
-25.30
-8.75
5.53
16.99
25.93
32.97
38.69
43.34
46.95
49.44
50.86
51.39
51.31
50.84
49.99
48.65
46.63
43.87
40.56
37.06
33.78
30.94
28.43
25.80
22.46
17.88
11.82
4.48
-3.62
-11.75
-19.28
-25.88
-31.70
-37.27
-43.33
-50.49
-58.97
-68.38
-77.64
-85.16
-89.22
-88.41
-82.14
-70.81
-55.80
-39.05
-22.54
-7.79
4.42
14.00
21.41
27.23
31.88
35.56
38.20
39.69
39.96
39.19
37.76
36.14
34.71
33.50
32.22
30.37
27.53
23.56
18.66
13.25
7.75
2.37
-2.91
-8.30
-14.00
-20.19
-26.98
-34.48
-42.81
-51.83
-60.99
-69.13
-74.68
-76.08
-72.34
-63.47
-50.59
-35.62
-20.66
-7.40
3.35
11.60
17.89
22.84
26.78
29.67
31.26
31.38
30.19
28.12
25.76
23.55
21.59
19.64
17.37
14.59
11.42
8.19
5.23
2.65
0.19
-2.65
-6.47
-11.73
-18.63
-27.04
-36.54
-46.32
-55.22
-61.71
-64.28
-61.84
-54.12
-42.00
-27.19
-11.80
2.40
14.35
23.87
31.28
37.01
41.32
44.19
45.58
45.53
44.40
42.67
40.75
38.84
36.79
34.29
31.08
27.15
22.80
18.54
14.82
11.76
9.11
6.28
2.56
-2.66
-9.68
-18.41
-28.37
-38.59
-47.79
-54.37
-56.85
-54.26
-46.55
-34.71
-20.50
-5.89
7.52
18.87
28.03
35.31
41.11
45.64
48.90
50.83
51.39
50.71
48.97
46.46
43.47
40.28
37.15
34.28
31.74
29.46
27.21
24.63
21.40
17.29
12.21
6.26
-0.29
-7.12
-13.93
-20.58
-27.18
-34.07
-41.77
-50.72
-60.97
-71.92
-82.13
-89.63
-92.39
-89.12
-79.77
-65.61
-48.82
-31.74
-16.13
-2.80
8.34
17.78
26.01
33.16
39.11
43.60
46.54
48.00
48.25
47.56
46.11
43.99
41.24
37.99
34.48
31.15
28.44
26.66
25.73
25.12
24.00
21.50
17.09
10.85
3.43
-4.15
-11.00
-16.66
-21.32
-25.69
-30.72
-37.25
-45.68
-55.77
-66.51
-76.24
-82.93
-84.77
-80.73
-70.95
-56.78
-40.38
-23.97
-9.20
3.26
13.56
22.24
29.82
36.44
41.92
45.95
48.44
49.53
49.67
49.38
49.05
48.80
48.50
47.92
46.79
45.01
42.61
39.74
36.59
33.27
29.79
26.01
21.76
16.92
11.45
5.48
-0.72
-6.85
-12.65
-17.99
-22.91
-27.62
-32.46
-37.87
-44.29
-51.99
-60.86
-70.21
-78.70
-84.58
-86.15
-82.30
-72.97
-59.27
-43.11
-26.62
-11.55
1.12
11.25
19.29
25.86
31.56
36.69
41.28
45.19
48.21
50.24
51.21
51.28
50.64
49.53
48.22
46.89
45.71
44.71
43.82
42.77
41.21
38.77
35.28
30.88
25.97
21.12
16.80
13.16
9.93
6.68
2.96
-1.44
-6.43
-11.74
-16.99
-22.01
-26.80
-31.62
-36.87
-43.04
-50.49
-59.21
-68.68
-77.64
-84.32
-86.85
-83.88
-75.06
-61.31
-44.54
-27.04
-10.82
2.97
14.07
22.95
30.29
36.61
42.03
46.41
49.57
51.47
52.38
52.75
53.07
53.65
54.49
55.39
56.02
56.13
55.62
54.57
53.11
51.32
49.20
46.62
43.45
39.65
35.34
30.77
26.23
21.93
17.94
14.06
10.06
5.63
0.64
-4.89
-10.70
-16.48
-21.92
-26.84
-31.22
-35.19
-39.00
-43.02
-47.70
-53.57
-61.00
-69.90
-79.49
-88.17
-93.86
-94.64
-89.41
-78.41
-63.10
-45.72
-28.52
-13.10
-0.19
10.25
18.59
25.25
30.46
34.35
36.99
38.59
39.43
39.85
40.11
40.30
40.37
40.19
39.69
38.95
38.16
37.54
37.18
36.95
36.54
35.63
33.94
31.38
28.01
24.01
19.61
15.09
10.75
6.81
3.35
0.26
-2.77
-6.09
-9.97
-14.45
-19.37
-24.42
-29.32
-33.91
-38.27
-42.58
-47.18
-52.48
-58.75
-66.09
-74.12
-81.81
-87.60
-89.66
-86.52
-77.65
-63.79
-46.83
-29.19
-13.04
0.35
10.80
18.86
25.35
30.80
35.37
38.98
41.56
43.21
44.19
44.73
44.93
44.75
44.16
43.29
42.36
41.65
41.26
41.04
40.56
39.33
37.01
33.52
29.08
24.13
19.09
14.26
9.72
5.33
0.88
-3.81
-8.81
-13.95
-19.03
-23.85
-28.31
-32.47
-36.55
-40.85
-45.78
-51.68
-58.66
-66.38
-73.87
-79.63
-81.93
-79.36
-71.39
-58.66
-42.86
-26.20
-10.77
2.02
11.69
18.56
23.42
27.04
29.87
32.09
33.62
34.43
34.66
34.58
34.57
34.86
35.49
36.25
36.82
36.86
36.16
34.70
32.62
30.20
27.69
25.17
22.48
19.30
15.28
10.31
4.68
-1.05
-6.18
-10.31
-13.42
-15.92
-18.44
-21.61
-25.82
-31.17
-37.46
-44.15
-50.38
-54.88
-56.21
-53.09
-44.94
-32.24
-16.50
0.15
15.69
28.80
39.23
47.61
54.86
61.69
68.12
73.52
76.95
77.64
75.35
70.50
63.98
56.82
49.89
43.74
38.62
34.48
31.12
28.16
25.15
21.60
17.22
11.96
6.04
-0.26
-6.92
-14.26
-22.89
-33.37
-45.72
-59.27
-72.79
-84.88
-94.45
-101.06
-104.88
-106.54
-106.86
-106.65
-106.64
-107.42
-109.24
-111.79
-114.02
-114.25
-110.64
-101.92
-87.88
-69.62
-49.25
-29.10
-11.09
3.79
15.52
24.74
32.21
38.55
44.02
48.62
52.27
54.91
56.63
57.57
57.95
57.91
57.57
56.95
56.07
54.92
53.43
51.45
48.80
45.35
41.08
36.12
30.77
25.33
20.00
14.84
9.74
4.50
-1.04
-6.94
-13.04
-19.09
-24.76
-29.86
-34.49
-39.03
-44.14
-50.54
-58.68
-68.36
-78.61
-87.66
-93.42
-94.10
-88.77
-77.76
-62.52
-45.22
-27.95
-12.26
1.14
12.30
21.59
29.40
35.87
40.98
44.69
47.08
48.42
49.03
49.23
49.15
48.82
48.23
47.48
46.72
46.20
46.04
46.12
46.07
45.36
43.51
40.29
35.85
30.61
25.14
19.93
15.22
10.89
6.68
2.18
-2.84
-8.40
-14.26
-19.99
-25.21
-29.77
-33.89
-38.13
-43.29
-50.12
-58.98
-69.53
-80.65
-90.54
-97.12
-98.53
-93.75
-82.91
-67.33
-49.12
-30.55
-13.42
1.22
13.16
22.73
30.42
36.65
41.62
45.42
48.15
50.03
51.35
52.44
53.49
54.46
55.16
55.36
54.95
54.04
52.93
51.91
50.99
49.82
47.85
44.54
39.73
33.68
27.06
20.60
14.85
10.00
5.84
1.91
-2.35
-7.37
-13.30
-19.93
-26.75
-33.11
-38.54
-42.98
-46.86
-51.09
-56.66
-64.29
-74.04
-85.11
-95.87
-104.18
-107.86
-105.36
-96.25
-81.35
-62.54
-42.25
-22.81
-5.80
8.04
18.73
26.82
32.92
37.57
41.13
43.85
45.96
47.66
49.18
50.59
51.87
52.91
53.63
54.01
54.12
54.05
53.79
53.16
51.85
49.53
46.05
41.49
36.09
30.17
23.98
17.64
11.14
4.50
-2.19
-8.80
-15.14
-21.09
-26.63
-31.92
-37.30
-43.23
-50.23
-58.73
-68.69
-79.47
-89.66
-97.20
-99.97
-96.46
-86.29
-70.51
-51.29
-31.26
-12.74
2.78
14.87
23.87
30.55
35.68
39.79
43.19
45.96
48.18
49.93
51.41
52.77
54.14
55.50
56.69
57.53
57.92
57.87
57.49
56.85
55.82
54.13
51.41
47.46
42.36
36.49
30.43
24.62
19.26
14.20
9.08
3.52
-2.74
-9.66
-16.92
-24.11
-30.84
-36.93
-42.51
-48.06
-54.29
-61.96
-71.54
-82.85
-94.89
-105.84
-113.43
-115.56
-110.89
-99.38
-82.28
-61.85
-40.60
-20.68
-3.39
10.78
22.02
30.80
37.60
42.83
46.80
49.79
52.09
53.94
55.48
56.75
57.64
58.09
58.12
57.87
57.58
57.45
57.50
57.49
57.01
55.57
52.84
48.72
43.42
37.34
30.95
24.58
18.40
12.44
6.57
0.58
-5.68
-12.29
-19.11
-25.88
-32.35
-38.39
-44.17
-50.20
-57.18
-65.79
-76.28
-88.20
-100.23
-110.38
-116.39
-116.36
-109.40
-95.97
-77.73
-57.09
-36.47
-17.69
-1.67
11.44
21.97
30.30
36.72
41.41
44.57
46.52
47.72
48.60
49.47
50.34
51.03
51.24
50.80
49.70
48.14
46.44
44.82
43.30
41.62
39.26
35.65
30.37
23.33
14.87
5.74
-3.21
-11.26
-18.10
-23.94
-29.44
-35.47
-42.82
-51.88
-62.40
-73.31
-82.97
-89.38
-90.76
-86.08
-75.42
-59.99
-41.83
-23.21
-6.08
8.38
19.84
28.59
35.20
40.17
43.76
46.05
47.11
47.19
46.71
46.17
45.88
45.77
45.50
44.61
42.90
40.55
38.04
35.82
34.01
32.22
29.64
25.48
19.30
11.27
2.14
-7.16
-15.81
-23.47
-30.35
-37.13
-44.64
-53.61
-64.28
-76.18
-87.99
-97.74
-103.25
-102.70
-95.33
-81.63
-63.39
-43.08
-23.21
-5.62
8.86
20.28
29.23
36.33
41.99
46.26
49.10
50.54
50.96
50.93
51.07
51.75
52.90
54.10
54.79
54.57
53.32
51.27
48.76
46.06
43.19
39.80
35.41
29.51
21.89
12.76
2.78
-7.16
-16.22
-23.88
-30.16
-35.60
-41.06
-47.50
-55.66
-65.89
-77.85
-90.37
-101.56
-109.08
-110.76
-105.36
-93.03
-75.33
-54.72
-33.83
-14.66
1.83
15.60
27.22
37.32
46.24
53.97
60.31
65.12
68.47
70.61
71.85
72.41
72.31
71.53
70.13
68.40
66.84
65.88
65.76
66.21
66.60
66.07
63.92
59.85
54.06
47.23
40.17
33.61
27.85
22.72
17.65
11.91
4.95
-3.31
-12.43
-21.57
-29.86
-36.83
-42.66
-48.16
-54.50
-62.78
-73.54
-86.52
-100.58
-113.86
-124.04
-128.89
-126.76
-117.21
-101.21
-80.92
-59.09
-38.14
-19.57
-3.72
9.87
21.90
32.82
42.67
51.25
58.33
63.87
67.99
70.84
72.56
73.26
73.05
72.20
71.04
69.97
69.24
68.94
68.84
68.49
67.33
64.87
60.83
55.30
48.76
41.85
35.17
29.04
23.35
17.65
11.50
4.57
-3.07
-10.95
-18.50
-25.34
-31.49
-37.46
-44.15
-52.47
-62.99
-75.46
-88.73
-100.82
-109.36
-112.21
-108.16
-97.31
-81.08
-61.77
-41.87
-23.41
-7.50
5.67
16.58
25.97
34.40
42.04
48.69
54.00
57.65
59.63
60.25
60.05
59.56
59.16
58.96
58.83
58.50
57.68
56.22
54.11
51.43
48.29
44.74
40.73
36.11
30.69
24.38
17.29
9.72
2.12
-5.12
-11.81
-17.97
-23.91
-30.08
-36.99
-45.15
-54.85
-66.00
-77.92
-89.17
-97.80
-101.80
-99.73
-91.30
-77.52
-60.39
-42.20
-24.88
-9.52
3.62
14.82
24.51
32.97
40.23
46.14
50.64
53.78
55.79
57.01
57.77
58.35
58.87
59.34
59.70
59.82
59.54
58.66
57.03
54.53
51.22
47.26
42.86
38.21
33.34
28.12
22.35
15.90
8.85
1.47
-5.85
-12.76
-19.14
-25.11
-31.10
-37.68
-45.44
-54.85
-65.91
-78.05
-89.95
-99.73
-105.30
-105.04
-98.36
-85.99
-69.78
-52.09
-35.03
-19.88
-6.92
4.31
14.50
24.09
33.03
40.93
47.22
51.57
53.96
54.72
54.37
53.49
52.53
51.80
51.44
51.44
51.65
51.82
51.65
50.80
49.03
46.23
42.46
37.89
32.66
26.89
20.64
14.04
7.29
0.71
-5.41
-10.91
-15.98
-21.01
-26.63
-33.40
-41.76
-51.77
-63.02
-74.50
-84.66
-91.60
-93.57
-89.55
-79.71
-65.45
-49.00
-32.69
-18.19
-6.11
3.93
12.78
21.25
29.72
37.99
45.58
51.94
56.73
59.89
61.61
62.22
62.08
61.48
60.60
59.48
58.04
56.15
53.68
50.57
46.81
42.49
37.77
32.79
27.61
22.22
16.56
10.66
4.61
-1.36
-7.06
-12.36
-17.33
-22.22
-27.39
-33.28
-40.31
-48.77
-58.69
-69.62
-80.44
-89.53
-94.94
-95.08
-89.23
-77.86
-62.57
-45.53
-28.87
-14.01
-1.50
8.86
17.67
25.48
32.54
38.78
43.95
47.81
50.20
51.11
50.68
49.16
46.91
44.35
41.92
39.94
38.45
37.19
35.67
33.34
29.72
24.68
18.44
11.47
4.36
-2.39
-8.58
-14.37
-20.28
-26.98
-35.05
-44.57
-54.93
-64.72
-72.06
-75.08
-72.58
-64.49
-51.94
-36.84
-21.31
-7.09
4.92
14.59
22.34
28.72
34.15
38.81
42.65
45.49
47.23
47.87
47.54
46.48
44.95
43.12
41.14
39.09
37.12
35.25
33.41
31.32
28.51
24.54
19.23
12.78
5.72
-1.32
-7.90
-14.02
-20.13
-26.92
-35.00
-44.62
-55.35
-66.03
-74.91
-80.01
-79.74
-73.44
-61.70
-46.25
-29.45
-13.46
0.33
11.62
20.91
29.01
36.53
43.55
49.77
54.74
58.20
60.23
61.11
61.21
60.75
59.77
58.29
56.42
54.43
52.67
51.35
50.40
49.34
47.50
44.30
39.53
33.50
26.90
20.55
15.00
10.32
6.11
1.71
-3.41
-9.43
-16.00
-22.47
-28.15
-32.63
-36.00
-38.80
-41.87
-46.14
-52.26
-60.49
-70.39
-80.77
-89.77
-95.29
-95.60
-89.85
-78.54
-63.33
-46.54
-30.32
-16.09
-4.20
5.80
14.71
23.15
31.24
38.71
45.10
50.09
53.72
56.35
58.39
60.15
61.64
62.68
63.16
63.19
63.21
63.73
65.09
67.13
69.27
70.71
70.72
68.99
65.56
60.76
55.02
48.77
42.35
36.04
29.90
23.74
17.19
9.92
1.94
-6.15
-13.39
-18.79
-21.98
-23.53
-24.92
-27.91
-33.84
-42.88
-53.78
-64.24
-71.56
-73.59
-69.43
-59.74
-46.42
-32.00
-18.76
-8.17
-0.57
4.49
7.89
10.38
12.30
13.66
14.36
14.52
14.64
15.40
17.31
20.39
24.08
27.49
29.82
30.71
30.26
28.82
26.67
23.86
20.40
16.43
12.47
9.25
7.32
6.72
6.80
6.55
5.04
1.99
-2.14
-6.41
-9.88
-12.15
-13.62
-15.35
-18.67
-24.73
-33.96
-45.94
-59.28
-71.84
-81.10
-84.73
-81.22
-70.39
-53.66
-33.75
-13.95
2.87
15.05
22.41
25.96
27.15
27.21
26.78
25.99
24.71
22.91
20.74
18.44
16.21
14.14
12.32
10.93
10.24
10.48
11.60
13.09
14.07
13.60
11.04
6.33
-0.05
-7.23
-14.29
-20.60
-25.93
-30.53
-35.08
-40.49
-47.59
-56.76
-67.54
-78.45
-87.22
-91.47
-89.53
-81.09
-67.42
-50.91
-34.25
-19.51
-7.78
0.94
7.21
11.64
14.53
15.86
15.63
14.04
11.71
9.43
7.86
7.28
7.44
7.79
7.73
6.92
5.28
3.03
0.45
-2.29
-5.14
-8.20
-11.65
-15.73
-20.60
-26.26
-32.51
-38.98
-45.19
-50.60
-54.61
-56.52
-55.55
-51.00
-42.66
-30.95
-17.04
-2.64
10.52
21.15
28.72
33.37
35.63
36.09
35.14
33.02
29.95
26.34
22.75
19.71
17.57
16.23
15.22
13.93
11.92
9.14
5.96
2.85
0.13
-2.28
-4.84
-8.23
-13.11
-19.93
-28.80
-39.34
-50.60
-61.03
-68.71
-71.80
-69.16
-60.85
-48.26
-33.74
-19.83
-8.51
-0.67
3.85
5.82
6.10
5.28
3.59
1.16
-1.73
-4.54
-6.64
-7.57
-7.40
-6.75
-6.60
-7.75
-10.43
-14.15
-17.94
-20.89
-22.65
-23.65
-24.88
-27.45
-32.01
-38.49
-46.08
-53.48
-59.16
-61.68
-59.83
-52.93
-41.01
-24.95
-6.32
12.97
31.21
47.32
60.96
72.31
81.64
89.01
94.26
97.23
98.12
97.70
97.12
97.55
99.72
103.56
108.19
112.12
113.85
112.20
106.83
98.18
87.31
75.34
63.10
50.90
38.53
25.54
11.36
-4.50
-22.32
-41.88
-62.18
-81.26
-96.33
-104.58
-104.12
-94.86
-78.64
-58.76
-38.75
-21.48
-8.47
0.03
4.58
6.05
5.33
3.18
0.36
-2.44
-4.63
-5.86
-6.11
-5.60
-4.67
-3.67
-2.86
-2.40
-2.48
-3.21
-4.75
-7.14
-10.35
-14.17
-18.33
-22.60
-26.78
-30.80
-34.72
-38.79
-43.38
-48.97
-55.93
-64.15
-72.69
-79.71
-82.84
-79.91
-69.83
-53.13
-31.97
-9.37
11.65
29.03
42.00
50.85
56.48
59.73
61.18
61.17
59.92
57.66
54.64
51.03
46.93
42.49
38.08
34.28
31.70
30.69
30.98
31.66
31.45
29.16
24.10
16.32
6.48
-4.44
-15.48
-25.97
-35.59
-44.47
-53.06
-61.83
-71.00
-80.09
-87.79
-92.20
-91.36
-84.03
-70.26
-51.59
-30.55
-9.91
8.14
22.46
32.95
40.15
44.79
47.38
48.16
47.25
44.87
41.47
37.68
34.22
31.59
29.99
29.29
28.99
28.52
27.33
25.06
21.65
17.23
12.09
6.37
0.10
-6.95
-15.12
-24.78
-36.12
-48.97
-62.67
-75.91
-86.84
-93.36
-93.66
-86.85
-73.23
-54.37
-32.63
-10.59
9.64
26.68
39.88
49.07
54.30
55.81
54.10
50.00
44.56
38.92
33.93
29.93
26.70
23.62
19.98
15.29
9.49
2.92
-3.89
-10.41
-16.38
-21.88
-27.38
-33.61
-41.35
-51.13
-62.91
-75.81
-88.06
-97.31
-101.18
-98.08
-87.72
-71.35
-51.36
-30.48
-11.04
5.59
19.01
29.35
36.82
41.37
42.79
41.11
36.95
31.54
26.50
23.13
21.94
22.49
23.59
23.97
22.76
19.85
15.76
11.24
6.87
2.73
-1.65
-7.07
-14.37
-24.15
-36.48
-50.62
-64.99
-77.31
-85.03
-86.05
-79.39
-65.60
-46.76
-25.77
-5.56
11.76
25.25
35.05
41.86
46.41
49.10
50.01
49.15
46.79
43.53
40.20
37.59
36.02
35.31
34.82
33.76
31.58
28.10
23.56
18.40
12.98
7.41
1.51
-5.10
-12.86
-22.09
-32.95
-45.42
-59.10
-73.19
-86.27
-96.42
-101.52
-99.87
-90.75
-74.84
-54.10
-31.27
-9.06
10.50
26.37
38.41
46.98
52.65
55.97
57.49
57.75
57.34
56.79
56.39
56.14
55.78
55.02
53.66
51.81
49.76
47.79
45.90
43.66
40.35
35.23
27.97
18.77
8.47
-1.82
-11.18
-19.23
-26.34
-33.47
-41.82
-52.40
-65.49
-80.38
-95.27
-107.52
-114.26
-113.16
-103.23
-85.29
-61.89
-36.54
-12.70
7.26
22.49
33.56
41.68
47.99
53.04
56.84
59.23
60.31
60.56
60.77
61.56
63.05
64.87
66.26
66.52
65.33
62.86
59.63
56.19
52.78
49.13
44.62
38.57
30.75
21.55
12.05
3.51
-3.08
-7.51
-10.43
-13.09
-16.96
-23.16
-32.32
-44.42
-58.81
-74.14
-88.41
-99.13
-103.84
-100.85
-89.94
-72.53
-51.30
-29.32
-9.13
7.86
21.40
31.94
40.09
46.27
50.69
53.51
55.07
55.90
56.60
57.48
58.47
59.17
59.06
57.85
55.61
52.82
50.07
47.70
45.58
43.04
39.14
33.18
25.01
15.23
4.86
-5.01
-13.63
-20.92
-27.35
-33.80
-41.21
-50.30
-61.26
-73.55
-85.78
-95.87
-101.44
-100.47
-92.05
-76.79
-56.70
-34.59
-13.23
5.49
20.75
32.70
41.87
48.72
53.45
56.10
56.85
56.28
55.29
54.79
55.28
56.57
57.94
58.39
57.29
54.61
50.96
47.13
43.72
40.74
37.56
33.27
27.13
18.92
9.15
-1.20
-11.09
-19.77
-27.15
-33.78
-40.66
-48.92
-59.43
-72.35
-86.90
-101.28
-112.90
-118.97
-117.33
-107.23
-89.61
-66.95
-42.44
-19.05
1.25
17.78
30.86
41.21
49.52
56.11
61.05
64.37
66.25
67.05
67.26
67.26
67.28
67.37
67.40
67.13
66.32
64.73
62.19
58.75
54.58
49.97
45.15
40.14
34.72
28.50
21.18
12.80
3.74
-5.34
-13.79
-21.25
-27.80
-33.88
-40.21
-47.54
-56.53
-67.60
-80.65
-94.88
-108.59
-119.39
-124.60
-122.17
-111.32
-93.05
-69.80
-44.79
-21.02
-0.43
16.24
29.34
39.74
48.30
55.56
61.72
66.75
70.61
73.40
75.29
76.54
77.32
77.69
77.60
76.99
75.89
74.40
72.72
70.86
68.62
65.56
61.17
55.15
47.67
39.38
31.15
23.68
17.19
11.36
5.47
-1.14
-8.79
-17.24
-25.87
-33.98
-41.16
-47.44
-53.34
-59.70
-67.43
-77.25
-89.34
-103.05
-116.75
-127.91
-133.70
-131.75
-121.09
-102.57
-78.76
-53.12
-28.91
-8.28
8.12
20.81
30.85
39.15
46.16
51.93
56.35
59.46
61.48
62.78
63.69
64.36
64.79
64.96
64.87
64.65
64.48
64.46
64.47
64.11
62.75
59.75
54.67
47.61
39.21
30.50
22.53
16.00
11.05
7.16
3.49
-0.79
-6.17
-12.59
-19.59
-26.49
-32.78
-38.27
-43.27
-48.53
-55.03
-63.75
-75.18
-88.98
-103.69
-116.76
-125.20
-126.37
-118.93
-103.39
-82.03
-58.08
-34.80
-14.47
1.96
14.74
24.74
32.92
39.89
45.86
50.81
54.67
57.47
59.39
60.67
61.50
62.04
62.33
62.36
62.11
61.54
60.56
58.99
56.63
53.32
49.06
44.06
38.75
33.54
28.64
23.98
19.18
13.81
7.59
0.63
-6.61
-13.48
-19.43
-24.33
-28.55
-32.96
-38.57
-46.20
-56.10
-67.58
-79.03
-88.10
-92.35
-89.85
-80.00
-63.73
-43.33
-21.79
-1.88
14.58
26.96
35.66
41.59
45.61
48.28
49.84
50.38
50.16
49.54
48.92
48.53
48.29
47.83
46.77
44.90
42.38
39.68
37.30
35.44
33.78
31.52
27.73
21.79
13.69
4.08
-5.97
-15.49
-23.90
-31.23
-38.06
-45.24
-53.59
-63.60
-75.09
-87.06
-97.68
-104.58
-105.53
-99.25
-85.99
-67.60
-46.98
-27.04
-9.79
4.03
14.80
23.42
30.59
36.57
41.24
44.43
46.22
47.06
47.52
48.07
48.87
49.66
49.99
49.42
47.76
45.17
42.05
38.91
36.07
33.45
30.57
26.66
21.08
13.56
4.51
-5.14
-14.31
-22.20
-28.65
-34.24
-39.95
-46.83
-55.64
-66.57
-79.15
-92.19
-103.83
-111.83
-113.99
-108.86
-96.37
-78.00
-56.41
-34.65
-15.15
0.86
13.40
23.27
31.36
38.22
43.96
48.50
51.85
54.26
56.11
57.70
59.13
60.27
60.95
61.11
60.93
60.72
60.69
60.77
60.57
59.45
56.79
52.25
45.93
38.37
30.42
22.86
16.22
10.51
5.35
0.19
-5.43
-11.67
-18.31
-24.97
-31.23
-36.92
-42.24
-47.79
-54.47
-63.16
-74.34
-87.69
-101.76
-114.04
-121.56
-121.74
-113.34
-97.01
-75.12
-50.98
-27.82
-7.82
8.21
20.65
30.47
38.59
45.55
51.44
56.23
59.91
62.68
64.84
66.65
68.16
69.22
69.55
68.95
67.49
65.47
63.37
61.59
60.22
58.98
57.34
54.68
50.61
45.11
38.59
31.74
25.27
19.67
15.00
10.81
6.43
1.17
-5.27
-12.71
-20.51
-27.92
-34.36
-39.72
-44.44
-49.34
-55.38
-63.42
-73.85
-86.35
-99.67
-111.68
-119.71
-121.26
-114.83
-100.50
-80.05
-56.42
-32.81
-11.74
5.53
18.96
29.35
37.67
44.61
50.42
55.01
58.24
60.07
60.68
60.37
59.41
57.98
56.18
54.09
51.88
49.83
48.23
47.23
46.63
45.89
44.27
41.17
36.44
30.47
24.06
18.07
12.97
8.70
4.76
0.47
-4.60
-10.50
-16.91
-23.29
-29.20
-34.46
-39.27
-44.15
-49.85
-57.09
-66.34
-77.37
-89.06
-99.34
-105.63
-105.56
-97.80
-82.62
-61.97
-38.88
-16.53
2.64
17.50
28.20
35.74
41.32
45.80
49.54
52.57
54.83
56.39
57.49
58.37
59.06
59.40
59.06
57.87
55.98
53.85
52.03
50.85
50.20
49.53
48.07
45.19
40.69
34.89
28.45
22.16
16.56
11.77
7.50
3.20
-1.65
-7.30
-13.64
-20.28
-26.78
-32.91
-38.72
-44.67
-51.40
-59.59
-69.62
-81.37
-93.90
-105.45
-113.60
-115.90
-110.69
-97.74
-78.48
-55.64
-32.37
-11.31
6.00
19.32
29.24
36.73
42.62
47.46
51.51
54.90
57.71
59.96
61.63
62.63
62.95
62.76
62.38
62.27
62.80
64.08
65.81
67.30
67.65
66.05
62.13
56.08
48.70
41.11
34.43
29.41
26.17
24.23
22.70
20.61
17.31
12.66
6.99
0.83
-5.42
-11.74
-18.57
-26.64
-36.59
-48.67
-62.31
-76.01
-87.47
-94.13
-93.94
-86.04
-71.23
-51.84
-30.97
-11.51
4.64
16.82
25.43
31.28
35.12
37.33
38.09
37.50
35.86
33.63
31.27
29.19
27.61
26.49
25.67
24.86
23.71
21.91
19.29
15.81
11.59
6.72
1.22
-5.07
-12.35
-20.66
-29.78
-39.12
-48.01
-55.91
-62.67
-68.62
-74.48
-81.14
-89.40
-99.68
-111.69
-124.29
-135.53
-142.97
-144.33
-138.12
-124.25
-104.10
-80.17
-55.36
-32.23
-12.46
3.28
15.18
23.94
30.39
35.33
39.30
42.58
45.25
47.24
48.54
49.14
49.13
48.61
47.68
46.38
44.83
43.13
41.36
39.44
37.06
33.72
28.91
22.43
14.54
5.97
-2.29
-9.47
-15.26
-20.07
-24.81
-30.62
-38.43
-48.56
-60.33
-72.07
-81.38
-85.78
-83.53
-74.29
-59.33
-41.18
-22.65
-6.04
7.53
18.02
26.20
32.87
38.56
43.43
47.38
50.36
52.42
53.65
54.08
53.73
52.51
50.48
47.90
45.18
42.79
41.04
39.87
38.78
37.00
33.66
28.21
20.61
11.46
1.78
-7.33
-15.11
-21.42
-26.82
-32.36
-39.22
-48.20
-59.47
-72.25
-84.84
-94.97
-100.22
-98.79
-90.02
-74.80
-55.32
-34.44
-14.84
1.68
14.59
24.39
32.13
38.82
45.02
50.78
55.76
59.57
61.89
62.69
62.16
60.68
58.71
56.62
54.66
52.90
51.26
49.59
47.69
45.41
42.56
39.05
34.83
29.95
24.51
18.63
12.37
5.77
-1.15
-8.28
-15.40
-22.24
-28.58
-34.38
-39.90
-45.70
-52.50
-61.01
-71.61
-83.99
-96.87
-107.97
-114.49
-113.96
-105.16
-88.74
-67.15
-43.82
-22.02
-3.80
10.38
21.34
30.37
38.50
46.11
53.02
58.88
63.49
66.95
69.50
71.30
72.31
72.41
71.56
70.01
68.28
66.95
66.38
66.48
66.73
66.28
64.44
60.88
55.88
50.20
44.77
40.30
37.04
34.69
32.58
30.06
26.77
22.77
18.49
14.41
10.81
7.59
4.25
0.00
-6.02
-14.51
-25.59
-38.53
-51.54
-61.99
-67.04
-64.59
-54.08
-36.88
-15.89
5.40
24.00
38.25
48.02
54.28
58.35
61.24
63.26
64.17
63.52
61.14
57.28
52.63
47.92
43.59
39.65
35.70
31.25
25.95
19.88
13.40
6.96
0.80
-5.16
-11.33
-18.24
-26.31
-35.64
-45.93
-56.56
-66.81
-76.03
-83.90
-90.52
-96.35
-102.13
-108.68
-116.73
-126.55
-137.65
-148.55
-156.92
-160.08
-155.90
-143.55
-124.05
-99.94
-74.54
-50.90
-30.92
-15.17
-3.15
6.14
13.57
19.69
24.71
28.79
32.12
34.97
37.54
39.83
41.62
42.58
42.49
41.34
39.38
37.01
34.52
31.97
29.07
25.35
20.35
13.94
6.40
-1.58
-9.22
-15.94
-21.66
-26.94
-32.77
-40.25
-50.07
-62.01
-74.72
-85.88
-92.71
-92.90
-85.38
-70.81
-51.39
-30.15
-9.91
7.57
21.85
33.49
43.33
51.89
59.03
64.23
66.99
67.29
65.72
63.24
60.82
59.00
57.83
56.91
55.67
53.63
50.58
46.58
41.89
36.76
31.36
25.62
19.39
12.45
4.73
-3.66
-12.33
-20.74
-28.35
-34.93
-40.61
-46.04
-52.13
-59.91
-70.13
-82.96
-97.75
-112.83
-125.77
-133.78
-134.54
-126.91
-111.45
-90.33
-66.69
-43.66
-23.40
-6.67
7.02
18.76
29.49
39.54
48.59
56.03
61.38
64.59
66.03
66.27
65.79
64.86
63.53
61.80
59.67
57.23
54.53
51.58
48.32
44.68
40.65
36.24
31.51
26.45
20.94
14.80
7.93
0.38
-7.57
-15.51
-23.08
-30.14
-36.91
-43.93
-51.93
-61.61
-73.35
-87.02
-101.66
-115.53
-126.21
-131.24
-128.77
-118.24
-100.76
-78.78
-55.38
-33.32
-14.30
1.31
14.15
25.25
35.42
44.96
53.63
60.92
66.42
70.01
71.93
72.69
72.86
72.84
72.78
72.56
71.96
70.81
69.12
67.06
64.81
62.34
59.40
55.52
50.23
43.30
34.90
25.51
15.88
6.67
-1.70
-9.17
-16.03
-22.78
-30.00
-38.29
-48.15
-59.79
-72.98
-86.70
-99.13
-107.82
-110.38
-105.29
-92.57
-73.94
-52.27
-30.55
-10.98
5.54
19.25
30.95
41.32
50.54
58.35
64.34
68.28
70.38
71.22
71.47
71.64
71.88
71.92
71.34
69.82
67.44
64.64
61.98
59.75
57.69
55.10
51.12
45.17
37.31
28.17
18.68
9.67
1.66
-5.33
-11.56
-17.57
-24.00
-31.52
-40.78
-52.07
-65.08
-78.61
-90.68
-98.83
-100.90
-95.69
-83.46
-65.93
-45.73
-25.62
-7.57
7.54
19.96
30.50
39.91
48.46
55.91
61.80
65.85
68.19
69.36
69.99
70.53
71.07
71.38
71.17
70.30
68.83
67.05
65.11
62.95
60.20
56.35
51.07
44.44
36.95
29.39
22.42
16.29
10.73
5.15
-1.01
-7.95
-15.44
-22.93
-29.97
-36.39
-42.50
-48.92
-56.44
-65.72
-77.10
-90.37
-104.53
-117.78
-127.59
-131.40
-127.38
-115.18
-96.26
-73.43
-50.01
-28.73
-10.97
3.39
15.41
26.38
37.11
47.61
57.26
65.26
71.03
74.41
75.77
75.68
74.80
73.61
72.35
71.07
69.67
67.98
65.88
63.28
60.14
56.45
52.20
47.38
41.99
36.01
29.47
22.46
15.10
7.59
0.13
-7.03
-13.71
-19.81
-25.47
-31.08
-37.25
-44.73
-54.03
-65.19
-77.48
-89.37
-98.64
-103.03
-100.92
-91.93
-77.18
-58.95
-39.98
-22.52
-7.83
4.11
14.07
23.01
31.53
39.71
47.17
53.46
58.28
61.56
63.38
63.95
63.49
62.28
60.68
59.04
57.66
56.64
55.82
54.84
53.27
50.76
47.21
42.70
37.45
31.66
25.50
19.06
12.39
5.61
-1.15
-7.73
-13.99
-19.92
-25.64
-31.39
-37.56
-44.62
-53.01
-63.00
-74.32
-85.95
-96.11
-102.54
-103.21
-97.02
-84.31
-66.88
-47.35
-28.39
-11.90
1.36
11.72
20.06
27.30
33.97
40.09
45.34
49.31
51.85
53.11
53.52
53.61
53.68
53.77
53.60
52.83
51.27
49.00
46.35
43.61
40.86
37.85
34.11
29.19
22.93
15.61
7.90
0.59
-5.62
-10.47
-14.22
-17.57
-21.46
-26.75
-34.03
-43.38
-54.34
-65.89
-76.48
-84.27
-87.52
-85.03
-76.61
-63.26
-46.95
-30.01
-14.47
-1.48
8.81
16.98
23.83
29.92
35.40
40.07
43.65
46.05
47.38
47.93
48.04
47.94
47.73
47.44
47.10
46.71
46.24
45.53
44.34
42.35
39.35
35.34
30.55
25.33
20.02
14.80
9.61
4.28
-1.34
-7.23
-13.18
-18.84
-23.97
-28.58
-33.04
-38.00
-44.25
-52.36
-62.40
-73.69
-84.69
-93.27
-97.15
-94.74
-85.67
-71.05
-53.20
-34.85
-18.28
-4.68
5.93
14.30
21.39
27.82
33.72
38.85
42.88
45.68
47.33
48.05
48.01
47.25
45.74
43.49
40.67
37.65
34.87
32.62
30.79
28.89
26.23
22.20
16.56
9.60
2.08
-5.15
-11.40
-16.40
-20.45
-24.25
-28.67
-34.58
-42.44
-52.17
-62.94
-73.18
-80.85
-83.91
-81.07
-72.23
-58.71
-42.80
-26.99
-13.19
-2.19
6.32
13.29
19.63
25.77
31.54
36.42
39.84
41.57
41.76
40.87
39.42
37.86
36.43
35.10
33.68
31.86
29.38
26.12
22.15
17.72
13.10
8.51
3.96
-0.74
-5.92
-11.95
-19.10
-27.48
-36.93
-46.95
-56.49
-64.08
-67.97
-66.73
-59.76
-47.68
-32.22
-15.69
-0.27
12.67
22.72
30.30
36.10
40.70
44.39
47.19
49.07
50.13
50.59
50.67
50.49
50.11
49.53
48.77
47.90
47.01
46.10
45.01
43.54
41.47
38.66
35.08
30.89
26.32
21.64
17.11
12.77
8.26
2.77
-4.90
-15.80
-30.32
-47.68
-65.90
-82.28
-94.24
-100.12
-99.58
-93.54
-83.63
-71.55
-58.62
-45.63
-32.96
-20.81
-9.42
0.87
9.61
16.39
20.95
23.39
24.12
23.83
23.27
22.96
23.12
23.56
23.97
24.00
23.52
22.51
21.06
19.15
16.73
13.69
9.95
5.57
0.75
-4.26
-9.25
-14.08
-18.72
-23.17
-27.50
-31.82
-36.37
-41.51
-47.73
-55.36
-64.46
-74.42
-83.90
-91.00
-93.64
-90.36
-80.76
-65.88
-47.88
-29.36
-12.55
1.29
11.97
20.10
26.58
32.06
36.78
40.72
43.72
45.74
46.96
47.60
47.88
47.85
47.44
46.48
44.93
42.89
40.66
38.51
36.46
34.19
31.10
26.58
20.38
12.83
4.80
-2.69
-8.82
-13.41
-16.91
-20.25
-24.43
-30.23
-37.85
-46.82
-55.97
-63.58
-67.71
-66.80
-60.20
-48.49
-33.45
-17.51
-2.94
8.83
17.48
23.59
28.09
31.63
34.44
36.33
37.10
36.81
35.90
34.96
34.45
34.48
34.74
34.76
34.13
32.81
31.04
29.23
27.61
26.07
24.06
20.92
16.17
9.79
2.32
-5.37
-12.40
-18.23
-22.86
-26.80
-30.89
-36.09
-43.12
-52.16
-62.69
-73.31
-81.96
-86.34
-84.67
-76.39
-62.38
-44.85
-26.60
-10.10
3.22
13.24
20.75
26.90
32.55
37.95
42.76
46.40
48.49
49.07
48.63
47.85
47.28
47.20
47.44
47.64
47.37
46.40
44.73
42.50
39.91
37.04
33.84
30.10
25.63
20.34
14.28
7.69
0.89
-5.74
-11.94
-17.57
-22.62
-27.32
-32.09
-37.52
-44.27
-52.81
-63.14
-74.51
-85.37
-93.61
-97.14
-94.49
-85.42
-71.00
-53.31
-34.80
-17.58
-2.93
8.85
18.20
25.90
32.72
39.02
44.80
49.75
53.52
55.93
57.01
57.02
56.37
55.44
54.52
53.76
53.17
52.72
52.24
51.45
49.94
47.35
43.42
38.25
32.23
25.91
19.88
14.42
9.50
4.82
-0.04
-5.36
-11.18
-17.25
-23.17
-28.62
-33.51
-38.11
-43.02
-49.02
-56.76
-66.44
-77.43
-88.23
-96.57
-100.13
-97.19
-87.33
-71.74
-52.80
-33.40
-15.97
-1.90
8.71
16.65
23.01
28.67
33.90
38.53
42.16
44.56
45.77
46.11
45.92
45.40
44.51
43.08
41.01
38.38
35.55
32.92
30.75
28.92
27.00
24.37
20.52
15.31
9.01
2.28
-4.10
-9.53
-13.81
-17.24
-20.55
-24.65
-30.35
-38.09
-47.68
-58.23
-68.18
-75.56
-78.50
-75.71
-67.03
-53.55
-37.37
-20.95
-6.32
5.45
14.37
21.21
26.91
31.99
36.41
39.72
41.46
41.54
40.46
39.07
38.13
38.05
38.67
39.46
39.81
39.33
37.99
36.00
33.67
31.10
28.21
24.71
20.28
14.72
8.01
0.45
-7.48
-15.16
-22.04
-27.80
-32.50
-36.57
-40.76
-45.98
-52.93
-61.88
-72.34
-82.90
-91.43
-95.61
-93.63
-84.87
-70.27
-51.99
-32.82
-15.19
-0.60
10.72
19.41
26.48
32.76
38.54
43.70
47.91
51.01
53.07
54.42
55.34
55.99
56.25
55.95
54.98
53.47
51.74
50.18
48.98
47.95
46.61
44.30
40.55
35.28
28.90
22.20
16.02
10.83
6.59
2.71
-1.58
-6.86
-13.23
-20.22
-27.10
-33.24
-38.38
-42.76
-46.93
-51.58
-57.35
-64.68
-73.73
-84.11
-94.76
-103.79
-108.85
-107.84
-99.67
-84.89
-65.65
-44.97
-25.74
-9.83
2.35
11.53
18.93
25.56
31.80
37.44
42.02
45.18
46.85
47.38
47.25
46.92
46.49
45.79
44.46
42.29
39.39
36.23
33.41
31.28
29.67
27.92
25.17
20.76
14.67
7.55
0.42
-5.70
-10.33
-13.63
-16.30
-19.36
-23.78
-30.20
-38.84
-49.31
-60.62
-71.22
-79.16
-82.52
-80.00
-71.40
-57.80
-41.31
-24.39
-9.13
3.27
12.66
19.63
24.99
29.42
33.21
36.29
38.46
39.57
39.62
38.81
37.45
35.79
34.03
32.23
30.47
28.82
27.36
26.03
24.54
22.31
18.77
13.56
6.84
-0.72
-8.18
-14.73
-20.06
-24.52
-28.96
-34.45
-41.79
-51.23
-62.08
-72.77
-81.08
-84.74
-82.20
-73.24
-59.20
-42.44
-25.58
-10.57
1.75
11.64
19.92
27.30
34.05
40.01
44.81
48.30
50.68
52.40
53.90
55.35
56.56
57.15
56.76
55.37
53.34
51.30
49.78
48.88
48.13
46.68
43.66
38.65
31.95
24.49
17.50
12.04
8.51
6.54
5.07
2.70
-2.06
-10.47
-23.18
-39.94
-59.27
-78.44
-94.10
-103.24
-104.34
-98.00
-86.69
-73.70
-61.73
-51.91
-43.71
-35.71
-26.66
-16.32
-5.47
4.60
12.83
18.88
23.09
26.12
28.51
30.50
32.01
32.96
33.45
33.85
34.60
35.94
37.70
39.28
39.88
38.83
35.93
31.51
26.32
21.12
16.39
12.13
7.86
3.02
-2.81
-9.56
-16.79
-23.89
-30.38
-36.13
-41.48
-47.08
-53.72
-61.99
-71.99
-83.11
-93.91
-102.31
-106.07
-103.56
-94.37
-79.62
-61.60
-43.01
-26.05
-11.76
-0.02
10.09
19.54
28.85
37.86
45.94
52.42
56.93
59.64
61.00
61.61
61.80
61.67
61.03
59.71
57.72
55.28
52.77
50.47
48.37
46.14
43.22
39.05
33.36
26.33
18.51
10.69
3.60
-2.31
-7.08
-11.15
-15.25
-20.16
-26.50
-34.62
-44.33
-54.95
-65.16
-73.22
-77.35
-76.25
-69.56
-58.07
-43.55
-28.11
-13.62
-1.16
9.09
17.56
24.85
31.34
37.04
41.73
45.18
47.37
48.48
48.84
48.70
48.14
47.10
45.52
43.51
41.34
39.35
37.74
36.35
34.66
32.00
27.82
21.93
14.71
6.88
-0.75
-7.55
-13.39
-18.66
-24.08
-30.47
-38.41
-47.94
-58.41
-68.49
-76.37
-80.28
-78.99
-72.26
-60.95
-46.77
-31.70
-17.39
-4.71
6.29
16.04
25.01
33.28
40.52
46.18
49.83
51.47
51.55
50.79
49.81
48.89
47.92
46.56
44.55
41.94
39.03
36.30
33.99
31.98
29.75
26.60
22.04
16.02
8.99
1.79
-4.80
-10.27
-14.65
-18.45
-22.51
-27.70
-34.69
-43.72
-54.46
-65.97
-76.68
-84.70
-88.25
-86.20
-78.54
-66.41
-51.74
-36.59
-22.51
-10.10
0.88
11.12
21.24
31.40
41.21
50.04
57.20
62.37
65.61
67.26
67.67
67.13
65.77
63.70
61.15
58.48
56.09
54.24
52.87
51.57
49.72
46.82
42.65
37.39
31.59
25.86
20.70
16.19
12.08
7.83
2.94
-2.81
-9.16
-15.51
-21.19
-25.83
-29.59
-33.18
-37.54
-43.58
-51.79
-62.03
-73.52
-84.86
-94.19
-99.57
-99.45
-93.14
-81.22
-65.40
-48.06
-31.49
-17.15
-5.42
4.29
12.97
21.43
29.94
38.20
45.59
51.51
55.63
57.92
58.61
58.06
56.73
54.99
53.26
51.82
50.80
50.10
49.42
48.32
46.37
43.33
39.21
34.32
29.13
24.04
19.30
14.88
10.54
6.02
1.11
-4.19
-9.74
-15.32
-20.77
-26.09
-31.49
-37.39
-44.26
-52.39
-61.61
-71.03
-79.12
-83.97
-83.96
-78.30
-67.45
-53.03
-37.22
-22.13
-9.11
1.41
9.85
16.94
23.29
29.11
34.22
38.25
40.97
42.36
42.72
42.41
41.72
40.74
39.41
37.68
35.63
33.50
31.63
30.19
29.07
27.81
25.78
22.43
17.56
11.46
4.85
-1.40
-6.60
-10.51
-13.40
-15.96
-19.07
-23.52
-29.77
-37.77
-46.87
-55.78
-62.78
-66.17
-64.80
-58.58
-48.50
-36.36
-24.09
-13.08
-3.88
3.83
10.69
17.27
23.72
29.72
34.73
38.27
40.20
40.70
40.26
39.43
38.68
38.15
37.74
37.15
36.09
34.42
32.22
29.70
27.04
24.29
21.32
17.88
13.75
8.88
3.45
-2.15
-7.47
-12.12
-15.96
-19.16
-22.21
-25.73
-30.31
-36.35
-43.95
-52.82
-62.28
-71.22
-78.22
-81.78
-80.75
-74.71
-64.24
-50.86
-36.51
-22.98
-11.34
-1.78
6.21
13.38
20.24
26.77
32.55
37.04
39.94
41.38
41.84
41.92
41.96
41.91
41.45
40.22
38.19
35.71
33.36
31.58
30.42
29.37
27.64
24.51
19.72
13.59
6.83
0.32
-5.32
-9.91
-13.72
-17.35
-21.53
-26.86
-33.65
-41.83
-50.82
-59.56
-66.65
-70.58
-70.19
-65.01
-55.61
-43.35
-30.14
-17.71
-7.21
1.10
7.70
13.40
18.86
24.33
29.61
34.20
37.58
39.45
39.83
38.95
37.22
35.06
32.82
30.75
29.00
27.65
26.59
25.58
24.19
21.96
18.56
13.93
8.35
2.39
-3.34
-8.37
-12.61
-16.38
-20.35
-25.31
-31.86
-40.09
-49.34
-58.20
-64.79
-67.30
-64.60
-56.77
-45.13
-31.76
-18.78
-7.62
1.31
8.45
14.62
20.45
26.01
30.97
34.77
37.10
37.99
37.81
37.01
35.89
34.50
32.72
30.44
27.75
24.99
22.58
20.80
19.57
18.43
16.73
13.92
9.78
4.56
-1.15
-6.65
-11.39
-15.22
-18.44
-21.71
-25.92
-31.87
-39.89
-49.62
-59.86
-68.75
-74.27
-74.77
-69.67
-59.59
-46.26
-31.88
-18.45
-7.10
1.99
9.42
16.01
22.33
28.49
34.17
38.91
42.39
44.54
45.54
45.72
45.42
44.94
44.49
44.15
43.85
43.40
42.52
40.96
38.61
35.50
31.79
27.67
23.29
18.68
13.82
8.68
3.30
-2.25
-7.82
-13.29
-18.59
-23.69
-28.65
-33.55
-38.51
-43.76
-49.61
-56.39
-64.23
-72.82
-81.13
-87.50
-90.05
-87.32
-78.92
-65.76
-49.85
-33.58
-18.94
-6.90
2.61
10.41
17.46
24.40
31.35
37.94
43.65
48.01
50.81
52.17
52.37
51.75
50.62
49.26
47.86
46.56
45.48
44.56
43.63
42.38
40.51
37.84
34.45
30.64
26.74
22.96
19.21
15.21
10.59
5.18
-0.87
-7.12
-13.11
-18.50
-23.32
-27.91
-32.86
-38.80
-46.13
-54.92
-64.67
-74.22
-81.93
-86.00
-85.02
-78.51
-67.18
-52.74
-37.36
-22.95
-10.62
-0.54
7.83
15.20
22.05
28.42
33.97
38.30
41.16
42.62
43.04
42.85
42.34
41.56
40.38
38.62
36.31
33.76
31.42
29.71
28.65
27.79
26.36
23.57
19.06
13.06
6.39
0.12
-4.88
-8.26
-10.29
-11.78
-13.80
-17.28
-22.81
-30.31
-38.93
-47.10
-52.87
-54.41
-50.68
-41.82
-29.16
-14.79
-0.82
11.33
21.29
29.63
37.34
45.17
53.19
60.79
66.95
70.73
71.73
70.28
67.40
64.44
62.61
62.64
64.50
67.33
69.67
69.80
66.12
57.62
44.15
26.53
6.41
-14.13
-33.12
-49.16
-61.64
-70.71
-76.93
-80.89
-83.06
-83.75
-83.32
-82.44
-82.07
-83.22
-86.60
-92.15
-98.88
-105.02
-108.42
-107.28
-100.62
-88.71
-72.91
-55.21
-37.64
-21.63
-7.78
4.03
14.25
23.29
31.28
38.09
43.57
47.64
50.43
52.19
53.15
53.43
53.08
52.11
50.62
48.74
46.69
44.68
42.83
41.13
39.41
37.34
34.46
30.38
24.93
18.26
10.94
3.69
-2.81
-8.17
-12.46
-16.13
-19.86
-24.28
-29.88
-36.87
-45.12
-54.12
-62.86
-69.93
-73.72
-72.93
-67.01
-56.47
-42.84
-28.23
-14.66
-3.43
5.10
11.42
16.50
21.19
25.94
30.66
34.85
37.93
39.47
39.38
37.94
35.65
33.06
30.56
28.35
26.44
24.74
23.14
21.46
19.51
17.01
13.72
9.53
4.57
-0.79
-6.08
-10.97
-15.44
-19.86
-24.81
-30.84
-38.07
-45.93
-53.24
-58.44
-60.04
-57.18
-49.86
-39.05
-26.39
-13.62
-2.13
7.34
14.74
20.50
25.10
28.91
31.97
34.09
35.08
34.90
33.83
32.36
31.04
30.22
29.90
29.77
29.39
28.34
26.41
23.62
20.11
16.04
11.53
6.65
1.46
-4.00
-9.65
-15.48
-21.57
-28.08
-35.03
-42.16
-48.67
-53.28
-54.52
-51.24
-43.18
-31.18
-16.95
-2.55
10.36
20.99
29.48
36.49
42.82
48.99
55.15
61.12
66.65
71.41
75.12
77.50
78.39
77.74
75.57
71.92
66.67
59.50
50.04
38.06
23.75
7.68
-9.17
-25.73
-40.97
-54.06
-64.46
-71.98
-76.92
-80.02
-82.37
-85.07
-88.79
-93.44
-98.07
-101.09
-100.75
-95.75
-85.71
-71.34
-54.28
-36.65
-20.32
-6.43
4.82
13.97
21.83
28.97
35.46
40.91
44.82
46.93
47.40
46.74
45.54
44.20
42.80
41.23
39.32
37.04
34.55
32.13
30.00
28.18
26.41
24.26
21.30
17.26
12.21
6.49
0.55
-5.17
-10.46
-15.32
-19.95
-24.63
-29.72
-35.64
-42.84
-51.49
-61.18
-70.74
-78.30
-81.74
-79.50
-71.14
-57.71
-41.37
-24.69
-9.76
2.34
11.62
18.78
24.72
30.00
34.71
38.59
41.29
42.58
42.56
41.50
39.83
37.99
36.33
35.06
34.19
33.58
32.92
31.83
29.95
27.05
23.08
18.21
12.71
6.91
1.11
-4.53
-10.02
-15.66
-21.85
-28.96
-36.99
-45.32
-52.63
-57.21
-57.51
-52.75
-43.30
-30.66
-16.89
-4.04
6.61
14.66
20.51
24.93
28.51
31.48
33.72
34.99
35.18
34.42
33.11
31.68
30.38
29.29
28.30
27.23
25.95
24.31
22.12
19.20
15.39
10.73
5.45
-0.05
-5.38
-10.32
-14.89
-19.36
-24.15
-29.75
-36.51
-44.49
-53.28
-61.80
-68.44
-71.38
-69.27
-61.73
-49.66
-34.94
-19.86
-6.39
4.31
12.06
17.47
21.47
24.90
28.26
31.56
34.51
36.69
37.78
37.75
36.75
35.12
33.19
31.20
29.29
27.54
25.92
24.30
22.42
19.88
16.34
11.62
5.94
-0.23
-6.22
-11.54
-16.05
-20.04
-24.22
-29.35
-35.99
-44.22
-53.37
-62.03
-68.34
-70.45
-67.15
-58.40
-45.36
-30.11
-14.96
-1.72
8.82
16.78
22.88
27.93
32.32
36.07
38.93
40.74
41.60
41.82
41.69
41.37
40.75
39.59
37.76
35.39
32.89
30.73
29.14
27.91
26.42
23.90
19.80
14.07
7.17
-0.08
-6.87
-12.65
-17.31
-21.16
-24.78
-28.88
-34.11
-40.91
-49.24
-58.42
-67.09
-73.41
-75.52
-72.23
-63.45
-50.27
-34.70
-18.97
-4.94
6.41
14.99
21.35
26.27
30.33
33.81
36.60
38.52
39.36
39.10
37.93
36.20
34.28
32.53
31.13
30.09
29.26
28.42
27.22
25.32
22.47
18.50
13.52
7.85
1.95
-3.76
-9.05
-14.01
-19.02
-24.63
-31.27
-39.00
-47.22
-54.69
-59.72
-60.64
-56.48
-47.32
-34.48
-20.06
-6.31
5.14
13.67
19.65
23.90
27.22
29.98
32.09
33.27
33.37
32.46
30.85
28.98
27.19
25.68
24.52
23.61
22.76
21.72
20.22
18.02
14.98
11.14
6.64
1.75
-3.29
-8.33
-13.37
-18.61
-24.37
-31.10
-39.08
-48.22
-57.77
-66.32
-71.96
-72.97
-68.32
-58.24
-44.21
-28.53
-13.57
-1.04
8.42
15.13
20.03
24.06
27.77
31.24
34.15
36.08
36.79
36.30
34.94
33.20
31.52
30.18
29.18
28.25
26.98
24.99
22.04
18.11
13.33
7.99
2.37
-3.25
-8.69
-13.93
-19.06
-24.44
-30.53
-37.83
-46.48
-56.02
-65.20
-72.15
-74.88
-72.02
-63.37
-50.08
-34.32
-18.56
-4.74
6.21
14.45
20.82
26.26
31.34
36.06
40.04
42.84
44.31
44.69
44.47
44.14
43.95
43.75
43.18
41.90
39.76
36.99
33.98
31.13
28.56
25.99
22.89
18.73
13.27
6.76
-0.18
-6.78
-12.48
-17.05
-20.76
-24.13
-27.81
-32.38
-38.30
-45.87
-55.07
-65.39
-75.58
-83.82
-88.03
-86.56
-78.85
-65.69
-49.08
-31.57
-15.46
-2.13
8.10
15.79
21.80
26.88
31.34
35.13
38.00
39.76
40.39
40.10
39.22
38.07
36.93
35.98
35.23
34.59
33.77
32.40
30.16
26.83
22.47
17.35
11.84
6.21
0.59
-5.07
-10.97
-17.31
-24.27
-31.97
-40.27
-48.64
-55.99
-60.76
-61.32
-56.61
-46.67
-32.84
-17.39
-2.73
9.32
18.11
24.04
28.09
31.25
34.00
36.32
37.90
38.47
38.03
36.84
35.29
33.71
32.30
31.12
30.09
29.10
27.93
26.27
23.78
20.23
15.54
9.90
3.65
-2.84
-9.31
-15.70
-22.23
-29.26
-37.17
-46.11
-55.75
-65.16
-72.77
-76.72
-75.45
-68.31
-55.92
-40.11
-23.26
-7.60
5.50
15.76
23.68
30.03
35.38
39.89
43.38
45.73
46.97
47.41
47.42
47.27
47.01
46.55
45.79
44.72
43.39
41.86
40.10
38.01
35.49
32.47
28.96
24.94
20.33
15.03
9.03
2.54
-4.01
-10.10
-15.29
-19.52
-23.12
-26.78
-31.26
-37.24
-45.07
-54.68
-65.49
-76.36
-85.62
-91.38
-91.95
-86.47
-75.21
-59.62
-41.90
-24.38
-8.77
4.09
14.19
22.01
28.15
33.02
36.92
39.98
42.28
43.83
44.61
44.53
43.62
42.01
40.01
38.02
36.35
35.14
34.25
33.27
31.70
29.14
25.43
20.70
15.36
9.87
4.60
-0.32
-5.01
-9.87
-15.43
-22.19
-30.54
-40.40
-51.05
-61.01
-68.28
-70.88
-67.55
-58.37
-44.81
-29.28
-14.29
-1.58
8.23
15.55
21.24
26.02
30.16
33.44
35.49
36.10
35.39
33.87
32.15
30.73
29.85
29.41
29.11
28.53
27.34
25.38
22.66
19.29
15.40
11.10
6.45
1.45
-3.88
-9.58
-15.74
-22.49
-30.00
-38.27
-46.93
-55.06
-61.24
-63.84
-61.54
-53.97
-41.89
-27.15
-12.06
1.33
11.84
19.35
24.59
28.52
31.83
34.67
36.78
37.78
37.55
36.36
34.75
33.31
32.35
31.83
31.43
30.73
29.44
27.41
24.67
21.33
17.49
13.25
8.71
3.99
-0.80
-5.56
-10.28
-15.16
-20.61
-27.15
-35.19
-44.52
-54.12
-62.14
-66.34
-64.86
-56.96
-43.40
-26.19
-7.85
9.41
24.30
36.49
46.28
54.11
60.32
65.17
68.96
72.21
75.37
78.58
81.39
82.83
81.76
77.29
69.18
57.77
43.95
28.84
13.65
-0.38
-12.06
-20.51
-25.45
-27.35
-27.36
-26.93
-27.25
-28.87
-31.65
-35.02
-38.36
-41.41
-44.30
-47.51
-51.61
-57.07
-64.15
-72.71
-82.24
-91.69
-99.55
-104.03
-103.50
-97.00
-84.65
-67.73
-48.37
-28.88
-11.15
3.79
15.79
25.26
32.82
38.93
43.82
47.54
50.12
51.68
52.41
52.53
52.24
51.55
50.39
48.71
46.51
43.95
