1706777652.00
64.000000
-0.00
-0.00
-0.00
-0.00
-0.00
-0.00
-0.00
-0.00
-0.00
-0.00
0.00
0.01
0.01
-0.00
-0.03
-0.05
-0.05
0.00
0.13
0.36
0.66
1.01
1.37
1.72
2.06
2.40
2.79
3.24
3.80
4.42
5.06
5.66
6.20
6.68
7.15
7.68
8.31
9.14
10.09
11.04
11.88
12.56
13.14
13.76
14.65
15.96
17.91
20.32
22.90
25.38
27.58
29.57
31.68
34.32
37.81
42.54
48.15
54.10
59.83
64.97
69.58
74.14
79.34
85.71
93.76
103.00
112.62
121.73
129.77
136.75
143.30
150.75
157.77
166.64
177.95
191.79
206.97
220.57
228.25
225.36
208.53
176.87
132.76
80.05
23.07
-34.94
-92.44
-149.16
-205.23
-260.37
-313.74
-363.87
-409.83
-450.90
-486.48
-515.70
-537.17
-549.13
-549.84
-538.21
-514.00
-478.42
-433.57
-382.08
-326.59
-269.35
-212.07
-156.03
-102.25
-51.60
-5.05
36.51
72.44
102.46
126.71
145.70
160.13
170.72
178.09
182.64
184.65
184.35
182.02
178.00
172.71
166.55
159.87
152.92
145.84
138.70
131.55
124.42
117.39
110.52
103.89
97.54
91.52
85.82
80.48
75.50
70.88
66.63
62.77
59.29
56.20
53.49
51.16
49.22
47.66
46.45
45.56
44.94
44.49
44.10
43.60
42.82
41.58
39.73
37.13
33.71
29.47
24.44
18.75
12.60
6.22
-0.12
-6.14
-11.62
-16.34
-20.15
-22.99
-24.83
-25.72
-25.75
-25.06
-23.77
-22.05
-20.01
-17.78
-15.43
-12.99
-10.54
-8.08
-5.64
-3.19
-0.73
1.77
4.34
7.01
9.83
12.74
15.73
18.79
21.91
25.11
28.39
31.78
35.33
39.09
43.00
47.01
51.13
55.34
59.69
64.20
68.90
73.88
79.21
84.76
90.42
96.14
101.90
107.66
113.43
119.21
125.04
130.95
136.67
141.98
146.66
150.46
153.10
154.21
153.26
149.55
144.40
138.31
131.58
124.46
117.12
109.72
102.40
95.30
88.58
82.40
76.61
71.12
65.89
60.88
56.07
51.47
47.10
43.00
39.27
35.75
32.37
29.09
25.93
22.88
19.98
17.26
14.78
12.60
10.63
8.84
7.19
5.69
4.29
2.99
1.78
0.64
-0.38
-1.32
-2.16
-2.89
-3.48
-3.96
-4.39
-4.80
-5.27
-5.83
-6.49
-7.26
-8.11
-9.03
-10.03
-11.15
-12.42
-13.89
-15.51
-17.18
-18.74
-20.03
-20.98
-21.62
-22.12
-22.72
-23.65
-25.01
-26.75
-28.69
-30.61
-32.40
-34.19
-36.32
-39.24
-43.31
-48.64
-54.99
-61.86
-68.73
-75.28
-81.60
-88.20
-95.77
-104.90
-115.80
-128.12
-141.21
-154.32
-166.95
-179.06
-191.02
-203.56
-217.58
-234.10
-253.98
-277.41
-303.29
-328.87
-350.16
-362.96
-364.42
-354.14
-334.32
-308.83
-281.66
-255.63
-231.89
-210.39
-190.68
-172.64
-156.52
-142.64
-130.90
-120.71
-111.25
-101.87
-92.36
-82.89
-73.84
-65.38
-57.33
-49.22
-40.48
-30.75
-20.06
-8.88
2.03
11.87
20.02
26.26
30.69
33.71
35.81
37.43
38.89
40.33
41.71
42.91
43.79
44.29
44.50
44.57
44.69
44.92
45.21
45.37
45.14
44.43
43.23
41.69
39.94
38.00
35.83
33.36
30.64
27.83
25.15
22.73
20.50
18.18
15.45
12.07
8.02
3.57
-0.88
-4.90
-8.15
-10.34
-11.27
-10.80
-8.87
-5.58
-1.21
3.79
8.92
13.73
17.89
21.26
23.79
25.53
26.59
27.10
27.17
26.92
26.46
25.86
25.27
24.77
24.45
24.33
24.37
24.39
24.23
23.72
22.83
21.64
20.29
18.89
17.44
15.84
13.97
11.79
9.43
7.15
5.26
3.92
3.09
2.45
1.54
-0.09
-2.66
-5.98
-9.53
-12.60
-14.52
-14.82
-13.45
-10.62
-6.76
-2.31
2.35
6.90
11.13
14.82
17.82
19.97
21.22
21.61
21.27
20.41
19.30
18.23
17.41
16.92
16.67
16.49
16.19
15.64
14.90
14.09
13.39
12.84
12.35
11.71
10.71
9.26
7.45
5.49
3.63
2.00
0.52
-1.07
-3.13
-5.91
-9.48
-13.56
-17.55
-20.77
-22.52
-22.42
-20.37
-16.65
-11.79
-6.41
-1.06
3.82
7.97
11.27
13.69
15.23
15.94
15.96
15.46
14.72
14.01
13.54
13.37
13.43
13.55
13.60
13.59
13.61
13.78
14.11
14.49
14.67
14.42
13.60
12.24
10.50
8.54
6.54
4.56
2.55
0.43
-1.96
-4.75
-8.01
-11.68
-15.49
-18.96
-21.49
-22.50
-21.69
-19.12
-15.25
-10.73
-6.18
-1.99
1.69
4.86
7.50
9.53
10.85
11.44
11.44
11.14
10.86
10.82
11.09
11.61
12.31
13.09
13.84
14.51
15.02
15.35
15.46
15.32
14.81
13.78
12.13
9.87
7.27
4.70
2.49
0.79
-0.50
-1.70
-3.17
-5.20
-7.93
-11.29
-15.07
-18.88
-22.18
-24.38
-24.94
-23.55
-20.26
-15.44
-9.71
-3.74
1.90
6.86
11.02
14.38
17.01
18.97
20.27
20.98
21.15
20.96
20.63
20.36
20.30
20.50
20.90
21.40
21.93
22.42
22.86
23.19
23.34
23.19
22.65
21.63
20.15
18.32
16.24
14.07
11.88
9.68
7.46
5.23
3.02
0.87
-1.22
-3.32
-5.60
-8.24
-11.39
-14.94
-18.61
-21.89
-24.22
-25.11
-24.31
-21.86
-18.06
-13.39
-8.39
-3.53
0.82
4.46
7.31
9.37
10.72
11.44
11.69
11.69
11.67
11.85
12.30
12.98
13.76
14.51
15.18
15.77
16.30
16.74
17.01
17.00
16.63
15.93
14.94
13.76
12.42
10.90
9.16
7.16
4.90
2.40
-0.22
-2.84
-5.27
-7.45
-9.37
-11.18
-13.13
-15.50
-18.48
-22.03
-25.87
-29.48
-32.20
-33.37
-32.63
-29.94
-25.67
-20.47
-15.05
-9.93
-5.36
-1.35
2.26
5.54
8.44
10.83
12.60
13.76
14.47
15.01
15.59
16.30
17.09
17.83
18.40
18.74
18.87
18.84
18.64
18.19
17.46
16.42
15.16
13.77
12.32
10.83
9.29
7.67
6.01
4.37
2.71
1.00
-0.83
-2.86
-5.09
-7.53
-10.23
-13.30
-16.78
-20.56
-24.17
-26.89
-28.00
-27.03
-23.94
-19.15
-13.36
-7.27
-1.41
3.86
8.43
12.20
15.12
17.19
18.42
18.88
18.68
17.98
16.98
15.98
15.24
14.97
15.19
15.73
16.33
16.76
16.93
16.90
16.79
16.61
16.19
15.23
13.46
10.88
7.71
4.43
1.46
-0.95
-2.84
-4.42
-5.99
-7.72
-9.70
-11.94
-14.48
-17.38
-20.65
-24.12
-27.38
-29.80
-30.70
-29.61
-26.45
-21.55
-15.60
-9.38
-3.56
1.48
5.62
8.97
11.62
13.60
14.90
15.53
15.62
15.43
15.32
15.54
16.23
17.32
18.62
19.85
20.79
21.31
21.32
20.85
19.91
18.61
17.06
15.42
13.82
12.35
10.98
9.62
8.11
6.38
4.41
2.23
-0.08
-2.50
-5.09
-7.86
-10.86
-14.02
-17.36
-20.88
-24.61
-28.48
-32.18
-35.20
-36.82
-36.45
-33.77
-28.92
-22.46
-15.17
-7.86
-1.15
4.55
9.10
12.53
15.00
16.74
17.96
18.86
19.57
20.15
20.64
21.07
21.44
21.76
22.04
22.32
22.60
22.84
22.92
22.71
22.14
21.27
20.21
19.11
18.01
16.81
15.33
13.44
11.11
8.43
5.54
2.58
-0.38
-3.29
-6.06
-8.57
-10.72
-12.54
-14.26
-16.21
-18.73
-22.02
-25.98
-30.20
-34.04
-36.72
-37.54
-36.10
-32.39
-26.87
-20.34
-13.62
-7.41
-2.01
2.53
6.35
9.52
12.02
13.78
14.81
15.32
15.60
15.96
16.53
17.21
17.80
18.12
18.20
18.19
18.37
18.90
19.72
20.57
21.10
21.04
20.31
18.97
17.24
15.38
13.59
12.02
10.69
9.53
8.37
6.96
5.12
2.75
-0.04
-3.02
-5.93
-8.64
-11.18
-13.76
-16.61
-19.92
-23.67
-27.69
-31.56
-34.72
-36.53
-36.43
-34.15
-29.77
-23.78
-16.90
-9.93
-3.53
1.90
6.19
9.36
11.53
12.84
13.47
13.57
13.28
12.83
12.44
12.31
12.54
13.11
13.82
14.46
14.85
14.98
14.99
15.01
15.02
14.88
14.35
13.26
11.68
9.86
8.08
6.52
5.18
3.89
2.55
1.17
-0.17
-1.41
-2.64
-4.06
-5.97
-8.54
-11.76
-15.43
-19.21
-22.71
-25.50
-27.16
-27.30
-25.71
-22.39
-17.64
-12.00
-6.08
-0.48
4.38
8.26
11.09
12.89
13.76
13.80
13.15
12.03
10.71
9.51
8.69
8.41
8.70
9.40
10.31
11.18
11.87
12.27
12.39
12.23
11.82
11.18
10.31
9.19
7.82
6.21
4.39
2.44
0.45
-1.52
-3.46
-5.42
-7.46
-9.68
-12.12
-14.82
-17.80
-20.95
-24.02
-26.56
-28.01
-27.78
-25.57
-21.46
-15.97
-9.86
-3.92
1.29
5.53
8.85
11.40
13.33
14.69
15.37
15.33
14.58
13.34
11.98
10.94
10.51
10.73
11.37
12.05
12.41
12.31
11.84
11.23
10.65
10.14
9.51
8.52
7.01
5.00
2.68
0.33
-1.84
-3.75
-5.45
-7.07
-8.75
-10.64
-12.84
-15.52
-18.72
-22.39
-26.23
-29.75
-32.35
-33.48
-32.78
-30.18
-25.96
-20.61
-14.75
-8.96
-3.67
0.89
4.67
7.80
10.34
12.31
13.67
14.39
14.55
14.37
14.14
14.12
14.48
15.21
16.14
17.09
17.84
18.23
18.12
17.45
16.26
14.70
13.01
11.39
9.92
8.52
7.05
5.34
3.34
1.11
-1.17
-3.37
-5.41
-7.35
-9.36
-11.75
-14.75
-18.47
-22.79
-27.22
-31.01
-33.32
-33.52
-31.37
-27.17
-21.59
-15.43
-9.40
-3.88
0.93
5.00
8.30
10.81
12.53
13.59
14.20
14.63
15.10
15.64
16.19
16.56
16.65
16.49
16.25
16.16
16.32
16.63
16.84
16.63
15.85
14.56
12.99
11.39
9.87
8.40
6.82
5.04
3.09
1.08
-0.89
-2.74
-4.51
-6.22
-7.86
-9.47
-11.17
-13.22
-15.95
-19.54
-23.82
-28.18
-31.73
-33.51
-32.93
-29.89
-24.83
-18.51
-11.77
-5.31
0.42
5.19
8.94
11.67
13.47
14.49
14.93
15.01
14.95
14.88
14.90
15.06
15.39
15.86
16.45
17.06
17.60
18.04
18.37
18.63
18.77
18.67
18.13
17.04
15.41
13.45
11.43
9.58
7.94
6.40
4.74
2.77
0.42
-2.21
-4.94
-7.59
-10.04
-12.28
-14.42
-16.62
-19.10
-21.99
-25.34
-29.03
-32.73
-35.99
-38.19
-38.80
-37.43
-34.01
-28.89
-22.71
-16.27
-10.25
-5.04
-0.69
2.95
6.03
8.59
10.54
11.74
12.19
12.13
11.91
11.88
12.22
12.90
13.71
14.42
14.83
14.86
14.51
13.81
12.76
11.38
9.65
7.55
5.10
2.34
-0.62
-3.63
-6.48
-9.02
-11.13
-12.84
-14.27
-15.60
-17.10
-19.08
-21.81
-25.47
-30.04
-35.22
-40.44
-44.91
-47.86
-48.75
-47.53
-44.61
-40.79
-36.95
-33.69
-31.19
-29.15
-26.97
-24.13
-20.29
-15.33
-9.29
-2.26
5.69
14.29
23.14
31.64
39.18
45.37
50.09
53.45
55.62
56.76
56.87
55.87
53.74
50.50
46.26
41.08
35.03
28.08
20.30
11.75
2.59
-6.94
-16.68
-26.52
-36.48
-46.58
-56.84
-67.21
-77.57
-87.79
-97.76
-107.48
-116.94
-126.20
-135.40
-144.83
-154.87
-165.91
-177.94
-190.23
-201.22
-208.77
-210.84
-206.24
-194.92
-177.89
-156.63
-132.62
-107.27
-82.08
-58.80
-39.35
-25.36
-17.56
-15.47
-17.59
-22.11
-27.49
-32.92
-38.12
-42.97
-47.08
-49.60
-49.47
-45.67
-37.53
-24.78
-7.64
13.29
36.98
61.96
86.41
108.51
126.62
139.80
147.89
151.45
151.36
148.45
143.29
136.14
127.06
116.11
103.45
89.53
75.12
61.30
49.38
40.57
35.69
34.93
37.68
42.81
48.93
54.78
59.52
62.85
64.83
65.79
66.09
65.96
65.53
64.78
63.70
62.35
60.92
59.69
58.89
58.61
58.69
58.84
58.72
58.11
56.99
55.49
53.83
52.26
50.98
50.20
49.97
50.18
50.42
50.11
48.66
45.72
41.41
36.28
31.01
26.14
21.79
17.59
12.97
7.42
0.87
-6.31
-13.28
-19.08
-22.80
-23.87
-22.16
-17.86
-11.47
-3.62
4.94
13.46
21.18
27.45
31.87
34.37
35.25
35.06
34.41
33.77
33.34
33.13
32.98
32.69
32.08
31.08
29.65
27.86
25.89
23.96
22.29
20.92
19.75
18.46
16.74
14.37
11.37
7.95
4.44
1.10
-1.96
-4.75
-7.42
-10.07
-12.77
-15.55
-18.46
-21.60
-25.09
-29.00
-33.19
-37.22
-40.30
-41.52
-40.08
-35.60
-28.32
-19.02
-8.81
1.15
9.98
17.14
22.47
26.06
28.16
29.08
29.20
28.88
28.50
28.27
28.22
28.14
27.67
26.51
24.64
22.43
20.54
19.61
19.90
21.06
22.28
22.53
21.05
17.64
12.66
6.87
1.07
-4.16
-8.55
-12.12
-15.11
-17.91
-20.92
-24.44
-28.55
-32.99
-37.08
-40.01
-41.00
-39.62
-35.91
-30.32
-23.56
-16.36
-9.37
-3.04
2.26
6.29
8.88
9.90
9.34
7.26
3.94
-0.20
-4.54
-8.41
-11.26
-12.83
-13.28
-13.04
-12.72
-12.79
-13.53
-14.97
-16.97
-19.34
-21.75
-23.91
-25.47
-26.23
-26.19
-25.72
-25.43
-25.93
-27.47
-29.71
-31.71
-32.18
-30.00
-24.57
-16.17
-5.79
5.21
15.50
24.22
31.09
36.47
41.19
46.31
52.88
61.59
72.57
85.41
99.31
113.41
127.08
140.00
152.03
162.94
172.23
179.16
182.94
183.14
179.71
173.07
163.95
153.20
141.61
129.84
118.30
107.05
95.98
84.78
73.21
61.19
48.79
36.26
23.91
12.04
0.93
-9.18
-18.10
-25.70
-31.94
-36.85
-40.46
-42.82
-43.89
-43.67
-42.18
-39.54
-36.03
-31.99
-27.81
-23.80
-20.10
-16.69
-13.47
-10.40
-7.67
-5.64
-4.67
-4.86
-5.85
-6.97
-7.49
-6.98
-5.40
-3.07
-0.28
2.83
6.39
10.48
14.89
19.02
22.07
23.43
23.05
21.50
19.63
18.20
17.47
17.13
16.57
15.25
13.01
10.12
7.05
4.22
1.77
-0.49
-2.86
-5.56
-8.52
-11.44
-13.87
-15.34
-15.59
-14.62
-12.69
-10.23
-7.71
-5.50
-3.83
-2.72
-2.01
-1.52
-1.10
-0.72
-0.43
-0.27
-0.22
-0.18
0.03
0.48
1.14
1.82
2.27
2.23
1.61
0.45
-1.09
-2.84
-4.67
-6.50
-8.34
-10.15
-11.89
-13.48
-14.84
-15.88
-16.57
-16.93
-17.06
-17.19
-17.58
-18.49
-20.03
-22.03
-24.14
-25.95
-27.22
-27.99
-28.54
-29.12
-29.83
-30.42
-30.49
-29.71
-28.01
-25.63
-22.95
-20.31
-17.88
-15.68
-13.65
-11.86
-10.43
-9.49
-9.06
-9.02
-9.16
-9.29
-9.32
-9.25
-9.19
-9.24
-9.43
-9.77
-10.23
-10.80
-11.49
-12.36
-13.49
-14.94
-16.71
-18.76
-21.01
-23.37
-25.80
-28.35
-31.09
-34.16
-37.59
-41.37
-45.40
-49.53
-53.57
-57.36
-60.83
-64.00
-66.93
-69.69
-72.31
-74.73
-76.78
-78.20
-78.62
-77.71
-75.25
-71.41
-66.71
-62.01
-58.16
-55.58
-53.89
-51.99
-48.42
-42.07
-32.63
-20.76
-7.68
5.38
17.58
28.61
38.45
47.04
54.09
59.21
62.15
63.02
62.31
60.68
58.64
56.33
53.49
49.70
44.62
38.26
31.00
23.57
16.81
11.43
7.85
6.09
5.84
6.54
7.54
8.26
8.30
7.46
5.77
3.44
0.82
-1.68
-3.60
-4.55
-4.33
-3.03
-1.04
1.05
2.67
3.46
3.37
2.66
1.72
0.98
0.72
1.07
2.02
3.45
5.17
6.93
8.47
9.57
10.07
9.98
9.41
8.51
7.46
6.44
5.54
4.86
4.40
4.10
3.88
3.55
2.95
1.99
0.64
-1.06
-3.00
-5.10
-7.29
-9.52
-11.67
-13.57
-15.09
-16.13
-16.73
-17.03
-17.20
-17.45
-17.93
-18.68
-19.61
-20.57
-21.31
-21.67
-21.58
-21.07
-20.28
-19.26
-18.06
-16.62
-14.90
-12.91
-10.84
-8.91
-7.27
-6.01
-5.07
-4.35
-3.73
-3.22
-2.83
-2.63
-2.67
-2.93
-3.37
-3.86
-4.31
-4.61
-4.76
-4.78
-4.78
-4.85
-5.05
-5.39
-5.81
-6.25
-6.68
-7.07
-7.45
-7.85
-8.30
-8.79
-9.30
-9.78
-10.23
-10.68
-11.19
-11.83
-12.65
-13.62
-14.63
-15.52
-16.14
-16.39
-16.22
-15.66
-14.77
-13.64
-12.37
-11.02
-9.65
-8.26
-6.92
-5.63
-4.46
-3.45
-2.65
-2.06
-1.64
-1.34
-1.08
-0.82
-0.51
-0.10
0.42
1.14
2.01
2.93
3.70
4.14
4.10
3.57
2.65
1.56
0.53
-0.29
-0.85
-1.22
-1.54
-1.94
-2.51
-3.27
-4.14
-5.01
-5.78
-6.37
-6.83
-7.25
-7.76
-8.47
-9.45
-10.63
-11.84
-12.83
-13.25
-12.92
-11.80
-10.10
-8.17
-6.39
-4.99
-4.03
-3.47
-3.15
-2.98
-2.92
-2.96
-3.05
-3.12
-3.13
-3.00
-2.77
-2.41
-1.90
-1.24
-0.48
0.25
0.79
0.97
0.78
0.32
-0.23
-0.71
-1.10
-1.47
-1.96
-2.62
-3.38
-4.13
-4.76
-5.24
-5.65
-6.16
-6.78
-7.52
-8.28
-8.98
-9.61
-10.20
-10.77
-11.24
-11.44
-11.14
-10.24
-8.79
-7.03
-5.26
-3.75
-2.62
-1.84
-1.30
-0.84
-0.45
-0.15
-0.01
-0.10
-0.41
-0.86
-1.31
-1.64
-1.73
-1.60
-1.35
-1.16
-1.19
-1.47
-1.90
-2.25
-2.38
-2.24
-2.00
-1.94
-2.35
-3.30
-4.61
-5.96
-7.00
-7.53
-7.61
-7.47
-7.42
-7.64
-8.15
-8.75
-9.19
-9.29
-9.00
-8.44
-7.81
-7.28
-6.87
-6.51
-6.02
-5.26
-4.17
-2.78
-1.27
0.15
1.25
1.88
2.02
1.81
1.49
1.26
1.25
1.40
1.58
1.63
1.46
1.13
0.73
0.38
0.14
0.01
-0.10
-0.31
-0.71
-1.36
-2.22
-3.19
-4.16
-5.03
-5.70
-6.15
-6.33
-6.27
-6.03
-5.75
-5.61
-5.77
-6.27
-7.00
-7.77
-8.30
-8.40
-7.99
-7.10
-5.82
-4.30
-2.63
-0.96
0.67
2.25
3.80
5.36
6.89
8.27
9.47
10.48
11.38
12.24
13.08
13.77
14.16
14.13
13.74
13.19
12.78
12.64
12.75
12.85
12.58
11.62
9.83
7.27
4.20
0.96
-2.13
-4.82
-6.96
-8.53
-9.60
-10.23
-10.55
-10.59
-10.40
-9.99
-9.40
-8.79
-8.30
-8.05
-7.96
-7.80
-7.20
-5.93
-3.98
-1.62
0.63
2.36
3.37
3.78
3.94
4.21
4.78
5.56
6.31
6.76
6.77
6.43
5.92
5.40
4.94
4.48
3.94
3.27
2.53
1.82
1.19
0.65
0.05
-0.74
-1.86
-3.38
-5.23
-7.29
-9.38
-11.35
-13.03
-14.43
-15.56
-16.48
-17.20
-17.59
-17.47
-16.71
-15.33
-13.60
-11.88
-10.49
-9.61
-9.20
-9.10
-9.24
-9.55
-10.00
-10.46
-10.67
-10.32
-9.24
-7.50
-5.45
-3.51
-1.99
-0.98
-0.40
-0.09
0.04
-0.03
-0.32
-0.80
-1.38
-1.98
-2.56
-3.16
-3.89
-4.81
-5.91
-7.13
-8.40
-9.70
-10.96
-12.10
-12.94
-13.29
-13.04
-12.29
-11.21
-10.04
-8.93
-7.77
-6.38
-4.56
-2.32
0.05
2.17
3.66
4.40
4.56
4.50
4.55
4.85
5.29
5.65
5.79
5.74
5.71
5.87
6.25
6.68
6.81
6.43
5.58
4.54
3.74
3.44
3.58
3.79
3.61
2.69
1.03
-1.05
-3.08
-4.66
-5.63
-6.11
-6.43
-6.99
-8.07
-9.66
-11.49
-13.01
-13.59
-12.74
-10.25
-6.37
-1.73
2.82
6.50
8.79
9.67
9.51
8.94
8.47
8.36
8.38
8.00
6.64
3.82
-0.66
-6.89
-15.06
-25.50
-38.60
-54.37
-72.21
-90.73
-108.22
-123.18
-134.83
-143.04
-147.76
-148.53
-144.70
-136.12
-124.22
-112.39
-105.12
-106.51
-118.41
-139.88
-168.11
-200.34
-235.54
-274.35
-317.35
-362.44
-403.59
-431.91
-438.82
-419.83
-376.71
-316.86
-250.20
-185.44
-127.59
-77.60
-34.20
3.84
36.27
61.58
78.22
85.95
86.23
81.66
74.78
67.09
58.78
49.06
37.04
22.51
6.25
-10.15
-24.94
-36.84
-45.55
-51.75
-56.67
-61.51
-66.89
-72.67
-78.04
-81.95
-83.51
-82.38
-78.76
-73.33
-66.89
-60.14
-53.43
-46.70
-39.60
-31.66
-22.51
-12.03
-0.45
11.69
23.74
35.17
45.83
56.01
66.39
77.80
90.87
105.71
121.92
138.74
155.33
171.24
186.49
201.62
217.47
235.07
255.47
279.40
306.78
336.11
364.28
387.04
400.23
401.22
389.98
369.13
342.86
315.33
289.38
266.05
245.06
225.68
207.52
190.62
175.25
161.37
148.54
136.03
123.24
109.96
96.48
83.52
71.93
62.29
54.73
48.89
44.02
39.41
34.66
29.84
25.42
21.95
19.67
18.37
17.50
16.42
14.81
12.74
10.61
8.83
7.64
6.95
6.45
5.86
5.06
4.10
3.16
2.39
1.82
1.38
0.91
0.32
-0.42
-1.29
-2.16
-2.94
-3.55
-3.93
-4.09
-4.06
-3.89
-3.67
-3.54
-3.65
-4.15
-5.14
-6.57
-8.26
-9.91
-11.27
-12.11
-12.41
-12.18
-11.52
-10.44
-8.91
-6.93
-4.60
-2.18
0.06
1.87
3.21
4.18
4.96
5.69
6.36
6.85
6.98
6.64
5.87
4.85
3.91
3.30
3.12
3.27
3.49
3.52
3.27
2.81
2.29
1.86
1.45
0.96
0.20
-0.86
-2.11
-3.34
-4.39
-5.16
-5.70
-6.13
-6.57
-7.13
-7.83
-8.67
-9.62
-10.62
-11.61
-12.49
-13.10
-13.26
-12.78
-11.56
-9.65
-7.31
-4.95
-2.95
-1.53
-0.64
-0.00
0.67
1.49
2.40
3.12
3.43
3.21
2.51
1.52
0.46
-0.47
-1.18
-1.62
-1.83
-1.84
-1.71
-1.52
-1.30
-1.07
-0.82
-0.58
-0.40
-0.34
-0.45
-0.77
-1.22
-1.72
-2.15
-2.48
-2.78
-3.24
-4.06
-5.35
-7.00
-8.66
-9.87
-10.30
-9.81
-8.59
-6.95
-5.22
-3.59
-2.12
-0.76
0.51
1.65
2.60
3.31
3.82
4.26
4.79
5.53
6.46
7.45
8.31
8.93
9.29
9.52
9.77
10.07
10.30
10.27
9.84
9.05
8.15
7.47
7.20
7.34
7.71
8.05
8.20
8.19
8.18
8.38
8.94
9.87
11.09
12.43
13.72
14.77
15.36
15.29
14.46
12.86
10.75
8.55
6.79
5.92
6.08
7.02
8.10
8.63
8.18
6.93
5.64
5.29
6.54
9.35
12.68
14.90
14.33
9.82
1.13
-11.13
-25.78
-41.50
-57.09
-71.51
-83.88
-93.44
-99.72
-102.69
-102.90
-101.37
-99.23
-97.41
-96.18
-95.19
-93.50
-90.08
-84.22
-75.72
-64.97
-52.59
-39.21
-25.19
-10.70
4.07
18.67
32.44
44.69
55.14
64.10
72.26
80.25
88.18
95.38
100.75
103.13
101.76
96.37
87.16
74.62
59.34
41.85
22.62
1.99
-19.69
-41.68
-62.62
-80.41
-92.64
-97.28
-93.47
-81.97
-65.00
-45.50
-26.30
-9.43
4.01
13.57
19.17
20.90
19.01
14.21
7.69
1.05
-4.18
-6.97
-7.21
-5.66
-3.57
-2.18
-2.20
-3.62
-5.82
-7.87
-8.88
-8.21
-5.75
-1.86
2.67
7.00
10.47
12.84
14.30
15.22
15.95
16.55
16.84
16.51
15.43
13.72
11.78
10.05
8.82
8.15
7.84
7.57
7.11
6.41
5.61
4.95
4.65
4.77
5.21
5.66
5.84
5.56
4.84
3.82
2.73
1.81
1.13
0.63
0.14
-0.50
-1.39
-2.47
-3.56
-4.49
-5.17
-5.66
-6.12
-6.70
-7.35
-7.81
-7.76
-6.94
-5.38
-3.37
-1.39
0.22
1.36
2.19
3.00
3.96
5.08
6.17
7.05
7.59
7.75
7.60
7.18
6.56
5.77
4.85
3.91
3.07
2.46
2.13
2.05
2.10
2.12
1.98
1.62
1.05
0.36
-0.38
-1.14
-1.94
-2.81
-3.73
-4.61
-5.31
-5.74
-5.92
-5.99
-6.14
-6.50
-7.06
-7.64
-8.05
-8.09
-7.75
-7.13
-6.36
-5.56
-4.72
-3.80
-2.76
-1.68
-0.70
-0.03
0.22
0.08
-0.29
-0.63
-0.70
-0.35
0.45
1.60
2.93
4.27
5.44
6.37
7.03
7.49
7.78
7.92
7.85
7.50
6.75
5.56
3.97
2.18
0.45
-0.94
-1.81
-2.13
-2.09
-1.96
-2.02
-2.47
-3.33
-4.52
-5.90
-7.27
-8.50
-9.42
-9.92
-9.86
-9.12
-7.70
-5.68
-3.27
-0.76
1.51
3.28
4.39
4.86
4.82
4.45
3.95
3.47
3.15
3.08
3.34
3.92
4.71
5.48
6.00
6.19
6.10
5.93
5.93
6.25
6.80
7.38
7.70
7.55
6.90
5.84
4.61
3.45
2.54
1.97
1.73
1.65
1.37
0.48
-1.34
-4.08
-7.30
-10.21
-11.99
-12.07
-10.48
-7.74
-4.64
-1.74
0.82
3.26
5.86
8.66
11.29
13.21
14.03
13.83
13.10
12.56
12.78
13.95
15.89
18.21
20.53
22.56
24.22
25.47
26.40
27.16
28.13
29.81
32.68
36.85
41.85
46.44
48.88
47.41
40.83
28.91
12.43
-7.16
-28.22
-49.32
-69.43
-87.90
-104.19
-117.85
-128.42
-135.52
-138.99
-138.87
-135.41
-129.02
-120.23
-109.58
-97.53
-84.39
-70.40
-55.85
-41.13
-26.81
-13.35
-0.96
10.60
21.85
33.32
45.26
57.35
68.88
79.16
87.88
95.34
102.16
108.78
114.98
119.75
121.60
119.18
111.81
99.85
84.56
67.81
51.53
37.11
25.02
14.51
3.85
-9.18
-26.53
-49.00
-75.62
-103.60
-128.75
-146.36
-152.52
-145.29
-125.62
-97.36
-66.32
-38.55
-18.38
-7.27
-3.81
-4.80
-6.98
-8.19
-7.81
-6.20
-4.00
-1.46
1.49
4.93
8.66
12.03
14.30
14.98
14.11
12.27
10.35
9.16
9.11
10.08
11.54
12.80
13.35
13.07
12.26
11.44
11.05
11.24
11.80
12.24
12.04
10.93
8.94
6.48
4.14
2.40
1.50
1.27
1.24
0.81
-0.37
-2.27
-4.52
-6.50
-7.71
-7.89
-7.13
-5.67
-3.83
-1.88
0.05
1.81
3.32
4.54
5.43
6.06
6.48
6.72
6.75
6.63
6.45
6.38
6.63
7.27
8.17
9.11
9.82
10.15
10.19
10.13
10.15
10.28
10.40
10.32
9.97
9.41
8.78
8.21
7.72
7.18
6.42
5.35
3.97
2.43
0.91
-0.45
-1.62
-2.67
-3.72
-4.86
-6.09
-7.30
-8.31
-9.00
-9.28
-9.17
-8.73
-7.97
-6.81
-5.17
-3.07
-0.69
1.55
3.20
3.93
3.73
2.84
1.71
0.78
0.32
0.37
0.79
1.36
1.86
2.20
2.37
2.49
2.68
3.00
3.44
3.97
4.48
4.91
5.17
5.20
4.93
4.34
3.44
2.28
0.95
-0.47
-1.94
-3.44
-4.94
-6.45
-7.94
-9.39
-10.75
-11.95
-12.84
-13.15
-12.65
-11.23
-9.00
-6.32
-3.64
-1.37
0.30
1.41
2.17
2.75
3.25
3.67
3.95
4.08
4.15
4.26
4.48
4.74
4.91
4.89
4.66
4.36
4.20
4.39
4.99
5.87
6.77
7.36
7.36
6.68
5.42
3.82
2.13
0.50
-0.99
-2.40
-3.82
-5.30
-6.87
-8.47
-10.02
-11.37
-12.33
-12.68
-12.29
-11.12
-9.31
-7.11
-4.76
-2.44
-0.22
1.86
3.75
5.27
6.20
6.43
6.03
5.29
4.66
4.52
5.00
5.94
6.93
7.56
7.58
7.05
6.24
5.51
5.12
5.10
5.27
5.36
5.10
4.36
3.16
1.62
-0.05
-1.68
-3.17
-4.52
-5.88
-7.34
-8.98
-10.79
-12.60
-14.26
-15.62
-16.59
-17.12
-17.20
-16.77
-15.70
-13.95
-11.54
-8.61
-5.42
-2.28
0.54
2.78
4.34
5.21
5.60
5.69
5.70
5.80
6.03
6.33
6.63
6.90
7.13
7.34
7.54
7.71
7.84
7.92
8.00
8.07
8.07
7.83
7.15
5.93
4.24
2.32
0.51
-0.97
-2.05
-2.89
-3.73
-4.81
-6.26
-8.05
-10.06
-12.10
-13.98
-15.49
-16.44
-16.63
-15.99
-14.50
-12.27
-9.44
-6.24
-2.88
0.38
3.26
5.53
7.05
7.85
8.17
8.30
8.53
8.97
9.52
9.96
10.14
10.05
9.87
9.83
10.08
10.57
11.11
11.41
11.28
10.69
9.73
8.55
7.31
6.10
5.01
4.06
3.25
2.55
1.87
1.17
0.47
-0.11
-0.54
-0.81
-1.12
-1.70
-2.73
-4.19
-5.76
-6.96
-7.31
-6.55
-4.68
-1.96
1.20
4.45
7.51
10.27
12.72
14.96
17.03
18.87
20.36
21.35
21.80
21.79
21.59
21.43
21.46
21.65
21.74
21.46
20.61
19.16
17.22
14.96
12.53
10.04
7.54
5.09
2.66
0.22
-2.31
-5.04
-8.02
-11.20
-14.52
-17.87
-21.18
-24.45
-27.78
-31.36
-35.40
-40.03
-45.27
-50.88
-56.39
-61.12
-64.32
-65.34
-63.83
-59.91
-54.14
-47.38
-40.48
-34.07
-28.36
-23.28
-18.67
-14.55
-11.15
-8.84
-7.98
-8.67
-10.73
-13.76
-17.25
-20.84
-24.33
-27.66
-30.83
-33.72
-36.06
-37.51
-37.84
-37.09
-35.66
-34.07
-32.74
-31.74
-30.82
-29.55
-27.68
-25.46
-23.63
-23.23
-25.05
-29.23
-34.93
-40.59
-44.32
-44.58
-40.73
-33.12
-22.76
-10.83
1.81
14.78
27.92
40.95
53.30
64.19
73.01
79.58
84.12
87.08
88.75
89.13
87.99
85.16
80.71
75.06
68.81
62.50
56.42
50.57
44.80
39.03
33.32
27.89
22.95
18.53
14.43
10.38
6.09
1.47
-3.37
-8.18
-12.78
-17.16
-21.45
-25.86
-30.48
-35.26
-39.95
-44.17
-47.54
-49.71
-50.40
-49.48
-47.00
-43.22
-38.60
-33.66
-28.91
-24.74
-21.26
-18.47
-16.14
-14.06
-12.03
-10.00
-8.05
-6.32
-4.98
-4.10
-3.68
-3.61
-3.76
-3.91
-3.87
-3.43
-2.45
-0.92
1.00
2.95
4.49
5.29
5.20
4.34
3.07
1.76
0.69
-0.03
-0.60
-1.32
-2.51
-4.35
-6.75
-9.33
-11.49
-12.63
-12.29
-10.36
-7.11
-3.04
1.22
5.18
8.50
11.14
13.15
14.69
15.88
16.79
17.48
17.99
18.39
18.76
19.12
19.39
19.46
19.16
18.49
17.55
16.54
15.68
15.04
14.53
13.95
13.10
11.91
10.43
8.84
7.30
5.88
4.51
3.02
1.25
-0.85
-3.21
-5.72
-8.21
-10.54
-12.55
-14.03
-14.69
-14.28
-12.70
-10.11
-6.90
-3.57
-0.57
1.89
3.80
5.32
6.56
7.55
8.23
8.52
8.42
8.00
7.45
7.01
6.88
7.16
7.82
8.75
9.72
10.55
11.09
11.26
11.05
10.50
9.68
8.71
7.67
6.62
5.53
4.22
2.53
0.31
-2.39
-5.39
-8.38
-10.96
-12.81
-13.66
-13.37
-11.98
-9.71
-6.90
-3.94
-1.16
1.26
3.31
5.09
6.68
8.08
9.21
9.98
10.38
10.56
10.74
11.12
11.82
12.82
13.95
14.99
15.81
16.36
16.68
16.88
17.03
17.05
16.72
15.79
14.12
11.80
9.15
6.56
4.30
2.38
0.46
-1.86
-4.89
-8.58
-12.53
-16.06
-18.53
-19.55
-19.04
-17.28
-14.65
-11.57
-8.25
-4.85
-1.40
2.01
5.22
8.00
10.17
11.65
12.46
12.79
12.86
12.91
13.14
13.60
14.26
14.91
15.36
15.43
15.12
14.58
13.99
13.45
12.87
12.11
10.95
9.42
7.66
5.93
4.45
3.21
2.06
0.76
-0.85
-2.80
-5.00
-7.38
-9.84
-12.36
-14.82
-16.98
-18.49
-18.97
-18.23
-16.31
-13.55
-10.39
-7.23
-4.28
-1.56
1.01
3.47
5.76
7.80
9.56
11.09
12.55
13.97
15.33
16.40
16.92
16.77
16.02
14.94
13.84
12.94
12.30
11.90
11.65
11.48
11.31
11.07
10.63
9.85
8.66
7.14
5.46
3.78
2.27
0.89
-0.45
-1.92
-3.61
-5.54
-7.70
-10.04
-12.48
-14.89
-17.06
-18.77
-19.77
-19.89
-19.06
-17.35
-14.96
-12.16
-9.27
-6.59
-4.38
-2.70
-1.55
-0.76
-0.18
0.35
0.90
1.45
1.96
2.44
2.95
3.57
4.39
5.40
6.51
7.57
8.44
9.07
9.47
9.68
9.75
9.66
9.38
8.82
8.00
7.00
5.97
5.04
4.30
3.70
3.18
2.59
1.82
0.81
-0.47
-1.98
-3.64
-5.34
-6.88
-8.05
-8.65
-8.51
-7.53
-5.72
-3.16
-0.04
3.37
6.68
9.48
11.40
12.22
11.98
10.97
9.60
8.31
7.39
6.94
6.87
7.07
7.43
7.92
8.52
9.20
9.86
10.33
10.48
10.26
9.71
8.93
8.05
7.14
6.24
5.40
4.70
4.15
3.72
3.23
2.42
1.10
-0.77
-3.00
-5.31
-7.41
-9.13
-10.44
-11.35
-11.79
-11.63
-10.70
-8.97
-6.60
-3.94
-1.41
0.65
2.09
3.01
3.58
4.01
4.38
4.67
4.82
4.80
4.70
4.69
4.92
5.42
6.07
6.65
6.94
6.86
6.46
5.89
5.26
4.61
3.92
3.15
2.35
1.60
1.00
0.52
0.08
-0.49
-1.32
-2.48
-3.92
-5.54
-7.24
-8.89
-10.35
-11.37
-11.66
-10.97
-9.25
-6.71
-3.80
-1.02
1.22
2.74
3.64
4.15
4.49
4.76
4.95
4.98
4.77
4.35
3.81
3.23
2.64
2.04
1.42
0.77
0.09
-0.61
-1.33
-2.09
-2.87
-3.67
-4.45
-5.19
-5.90
-6.64
-7.46
-8.34
-9.21
-9.99
-10.70
-11.47
-12.49
-13.85
-15.40
-16.82
-17.69
-17.70
-16.78
-15.08
-12.87
-10.42
-7.93
-5.49
-3.15
-0.95
1.11
3.04
4.82
6.39
7.66
8.58
9.15
9.44
9.57
9.61
9.61
9.58
9.58
9.67
9.91
10.26
10.56
10.59
10.19
9.35
8.17
6.83
5.46
4.14
2.86
1.57
0.28
-1.04
-2.46
-4.03
-5.79
-7.70
-9.59
-11.20
-12.28
-12.68
-12.37
-11.48
-10.20
-8.73
-7.23
-5.73
-4.19
-2.56
-0.82
0.93
2.55
3.88
4.86
5.53
6.03
6.50
6.97
7.39
7.68
7.85
7.99
8.27
8.76
9.41
9.98
10.21
9.92
9.10
7.85
6.31
4.50
2.42
0.08
-2.40
-4.77
-6.81
-8.41
-9.66
-10.81
-12.04
-13.32
-14.35
-14.65
-13.87
-11.89
-8.96
-5.57
-2.19
0.85
3.44
5.67
7.61
9.33
10.84
12.10
13.08
13.77
14.17
14.32
14.31
14.19
14.03
13.84
13.52
12.94
11.97
10.65
9.12
7.61
6.38
5.52
4.93
4.41
3.71
2.70
1.45
0.21
-0.79
-1.44
-1.85
-2.34
-3.29
-4.93
-7.27
-10.08
-13.03
-15.84
-18.30
-20.37
-22.05
-23.34
-24.16
-24.33
-23.70
-22.15
-19.75
-16.77
-13.66
-10.91
-8.85
-7.56
-6.84
-6.37
-5.87
-5.22
-4.47
-3.76
-3.23
-2.95
-2.94
-3.22
-3.78
-4.54
-5.46
-6.48
-7.62
-9.02
-10.89
-13.45
-16.80
-20.88
-25.44
-30.14
-34.63
-38.65
-42.11
-45.12
-47.81
-50.28
-52.52
-54.37
-55.66
-56.39
-56.67
-56.71
-56.66
-56.47
-55.93
-54.83
-53.13
-51.06
-49.04
-47.48
-46.62
-46.42
-46.57
-46.70
-46.46
-45.61
-44.08
-41.92
-39.15
-35.70
-31.40
-26.03
-19.51
-12.03
-4.06
3.86
11.33
18.35
25.34
32.81
41.01
49.69
58.00
64.89
69.48
71.42
70.98
68.73
65.25
60.83
55.55
49.47
42.91
36.48
30.90
26.64
23.61
21.06
17.89
13.19
6.72
-0.80
-7.91
-12.86
-14.24
-11.51
-4.98
4.36
15.36
27.00
38.59
49.64
59.72
68.41
75.29
80.13
82.95
84.06
83.85
82.78
81.19
79.41
77.75
76.55
76.12
76.62
77.87
79.34
80.17
79.41
76.32
70.62
62.58
52.93
42.66
32.69
23.75
16.19
10.02
5.04
0.93
-2.62
-5.83
-8.84
-11.65
-14.16
-16.17
-17.46
-17.80
-17.09
-15.42
-13.16
-10.88
-9.19
-8.54
-9.04
-10.46
-12.40
-14.48
-16.49
-18.43
-20.38
-22.37
-24.26
-25.78
-26.62
-26.56
-25.57
-23.78
-21.48
-18.99
-16.62
-14.61
-13.19
-12.39
-12.11
-12.06
-11.83
-11.03
-9.38
-6.81
-3.41
0.55
4.81
9.07
13.11
16.70
19.57
21.44
22.12
21.65
20.37
18.88
17.88
17.82
18.86
20.68
22.81
24.78
26.39
27.79
29.31
31.37
34.24
38.09
42.83
48.16
53.45
57.81
60.22
59.79
56.15
49.58
40.98
31.52
22.25
13.84
6.51
0.19
-5.29
-10.01
-14.04
-17.52
-20.57
-23.42
-26.22
-28.99
-31.65
-34.10
-36.34
-38.50
-40.85
-43.68
-47.20
-51.41
-56.05
-60.66
-64.77
-68.02
-70.24
-71.49
-71.94
-71.69
-70.62
-68.41
-64.55
-58.60
-50.36
-40.11
-28.53
-16.64
-5.50
3.95
11.21
16.17
19.10
20.47
20.80
20.55
20.08
19.68
19.50
19.55
19.71
19.78
19.61
19.14
18.46
17.72
17.00
16.28
15.41
14.24
12.76
11.15
9.75
8.85
8.59
8.84
9.23
9.33
8.80
7.49
5.52
3.11
0.54
-1.97
-4.23
-6.10
-7.44
-8.12
-8.13
-7.61
-6.79
-5.99
-5.40
-5.04
-4.77
-4.32
-3.54
-2.39
-1.05
0.25
1.38
2.36
3.40
4.77
6.67
9.06
11.67
14.04
15.73
16.50
16.39
15.71
14.85
14.06
13.40
12.76
11.91
10.78
9.36
7.81
6.24
4.76
3.38
2.05
0.73
-0.59
-1.90
-3.16
-4.29
-5.20
-5.88
-6.33
-6.59
-6.67
-6.51
-5.90
-4.65
-2.67
-0.11
2.65
5.10
6.79
7.54
7.43
6.75
5.84
4.96
4.29
3.85
3.60
3.37
2.97
2.20
0.96
-0.67
-2.50
-4.25
-5.74
-6.86
-7.67
-8.29
-8.82
-9.34
-9.95
-10.77
-11.93
-13.48
-15.34
-17.28
-18.97
-20.16
-20.77
-20.96
-20.97
-21.02
-21.20
-21.46
-21.67
-21.72
-21.53
-21.09
-20.43
-19.59
-18.61
-17.58
-16.61
-15.86
-15.46
-15.48
-15.90
-16.61
-17.42
-18.14
-18.65
-18.93
-18.99
-18.88
-18.58
-18.08
-17.39
-16.65
-16.14
-16.13
-16.78
-18.03
-19.62
-21.30
-22.89
-24.41
-25.96
-27.58
-29.19
-30.54
-31.38
-31.58
-31.12
-30.18
-28.90
-27.35
-25.53
-23.33
-20.58
-17.08
-12.72
-7.43
-1.39
5.12
11.71
18.01
23.78
28.97
33.59
37.67
41.14
43.89
45.85
47.13
47.99
48.75
49.55
50.28
50.60
50.12
48.62
46.19
43.24
40.28
37.68
35.56
33.72
31.88
29.80
27.35
24.54
21.42
18.07
14.57
11.08
7.83
5.04
2.78
0.90
-0.99
-3.32
-6.33
-9.91
-13.64
-16.92
-19.23
-20.31
-20.17
-19.07
-17.34
-15.33
-13.33
-11.58
-10.27
-9.48
-9.22
-9.36
-9.71
-10.07
-10.22
-10.02
-9.40
-8.39
-7.12
-5.80
-4.66
-3.86
-3.49
-3.48
-3.74
-4.11
-4.47
-4.78
-5.10
-5.56
-6.33
-7.53
-9.17
-11.15
-13.29
-15.39
-17.31
-19.00
-20.49
-21.87
-23.19
-24.47
-25.72
-26.84
-27.68
-27.99
-27.48
-25.91
-23.24
-19.65
-15.61
-11.72
-8.49
-6.21
-4.90
-4.38
-4.39
-4.81
-5.57
-6.66
-8.01
-9.38
-10.50
-11.14
-11.22
-10.85
-10.24
-9.49
-8.52
-7.06
-4.81
-1.59
2.55
7.30
12.20
16.75
20.59
23.52
25.52
26.70
27.18
27.08
26.48
25.45
24.00
22.19
20.13
17.93
15.78
13.87
12.40
11.52
11.32
11.73
12.50
13.32
13.87
13.98
13.66
13.05
12.27
11.38
10.29
8.94
7.39
5.85
4.67
4.12
4.30
5.07
6.15
7.26
8.23
8.96
9.24
8.80
7.18
4.02
-0.70
-6.50
-12.54
-17.87
-21.79
-24.19
-25.40
-26.02
-26.54
-27.10
-27.54
-27.53
-26.86
-25.43
-23.30
-20.50
-16.99
-12.73
-7.79
-2.47
2.72
7.27
10.79
13.19
14.59
15.20
15.25
14.87
14.11
13.10
11.97
10.94
10.18
9.79
9.79
10.08
10.54
10.99
11.31
11.44
11.36
11.14
10.77
10.26
9.54
8.57
7.36
5.95
4.45
2.90
1.28
-0.46
-2.35
-4.32
-6.24
-7.96
-9.38
-10.47
-11.24
-11.59
-11.42
-10.61
-9.17
-7.28
-5.25
-3.39
-1.91
-0.90
-0.38
-0.35
-0.82
-1.81
-3.22
-4.83
-6.36
-7.54
-8.27
-8.59
-8.71
-8.85
-9.20
-9.89
-10.98
-12.49
-14.41
-16.69
-19.23
-21.82
-24.30
-26.45
-28.15
-29.38
-30.17
-30.71
-31.20
-31.93
-33.09
-34.76
-36.81
-38.85
-40.31
-40.61
-39.39
-36.61
-32.66
-28.16
-23.77
-19.95
-16.85
-14.37
-12.27
-10.36
-8.52
-6.72
-5.00
-3.36
-1.83
-0.51
0.43
0.83
0.61
-0.09
-1.01
-1.81
-2.22
-2.16
-1.72
-1.16
-0.71
-0.52
-0.60
-0.82
-0.98
-0.94
-0.65
-0.25
0.03
-0.10
-0.85
-2.27
-4.16
-6.15
-7.75
-8.52
-8.12
-6.43
-3.49
0.41
4.88
9.46
13.80
17.64
20.89
23.51
25.39
26.37
26.28
25.08
22.93
20.27
17.64
15.50
14.07
13.28
12.82
12.35
11.63
10.62
9.39
8.18
7.20
6.65
6.64
7.21
8.24
9.51
10.68
11.34
11.14
9.78
7.20
3.57
-0.63
-4.76
-8.11
-10.12
-10.49
-9.28
-6.79
-3.50
0.05
3.41
6.29
8.57
10.28
11.60
12.76
13.91
15.13
16.34
17.38
18.08
18.34
18.17
17.70
17.08
16.44
15.82
15.15
14.26
12.95
11.06
8.61
5.75
2.79
-0.03
-2.57
-5.00
-7.67
-11.10
-15.80
-22.14
-30.13
-39.23
-48.18
-55.18
-58.30
-56.20
-48.69
-36.94
-23.16
-9.89
0.86
8.13
11.99
13.21
12.74
11.37
9.62
7.88
6.47
5.69
5.69
6.42
7.51
8.31
8.10
6.25
2.54
-2.77
-8.91
-14.85
-19.60
-22.57
-23.73
-23.57
-22.81
-22.05
-21.57
-21.30
-20.98
-20.40
-19.49
-18.36
-17.10
-15.66
-13.82
-11.30
-7.92
-3.73
0.99
5.85
10.47
14.61
18.16
21.12
23.51
25.39
26.78
27.71
28.20
28.27
27.96
27.36
26.56
25.68
24.83
24.02
23.18
22.19
20.96
19.46
17.74
15.92
14.09
12.30
10.48
8.51
6.22
3.50
0.43
-2.78
-5.71
-7.96
-9.16
-9.18
-8.07
-6.04
-3.36
-0.29
2.90
6.00
8.78
11.15
13.08
14.61
15.79
16.56
16.84
16.50
15.56
14.15
12.53
10.95
9.55
8.37
7.40
6.64
6.10
5.77
5.59
5.39
5.02
4.30
3.22
1.82
0.24
-1.42
-3.12
-4.84
-6.56
-8.22
-9.63
-10.54
-10.69
-9.96
-8.43
-6.36
-4.14
-2.09
-0.39
0.98
2.18
3.40
4.77
6.37
8.13
9.90
11.45
12.56
13.08
13.00
12.48
11.74
10.98
10.27
9.57
8.78
7.89
6.99
6.25
5.78
5.59
5.50
5.25
4.57
3.35
1.69
-0.14
-1.81
-3.11
-4.04
-4.85
-5.90
-7.49
-9.68
-12.25
-14.73
-16.60
-17.47
-17.16
-15.74
-13.42
-10.48
-7.22
-3.94
-0.90
1.62
3.51
4.79
5.62
6.28
7.00
7.90
8.93
9.99
10.93
11.68
12.29
12.82
13.31
13.72
13.96
13.94
13.64
13.13
12.49
11.80
11.05
10.17
9.13
7.88
6.45
4.81
2.93
0.76
-1.70
-4.32
-6.86
-9.02
-10.63
-11.63
-12.18
-12.52
-12.86
-13.26
-13.65
-13.85
-13.65
-12.92
-11.65
-9.98
-8.11
-6.23
-4.43
-2.69
-0.88
1.11
3.28
5.47
7.40
8.82
9.60
9.85
9.75
9.56
9.41
9.30
9.14
8.87
8.49
8.09
7.73
7.41
6.99
6.36
5.47
4.48
3.58
2.99
2.74
2.67
2.51
2.04
1.16
-0.03
-1.31
-2.49
-3.46
-4.20
-4.79
-5.32
-5.99
-7.03
-8.62
-10.79
-13.29
-15.59
-17.03
-17.11
-15.63
-12.85
-9.31
-5.63
-2.30
0.48
2.71
4.55
6.07
7.31
8.23
8.78
8.97
8.86
8.57
8.23
7.94
7.75
7.66
7.66
7.73
7.86
8.07
8.33
8.59
8.73
8.65
8.24
7.47
6.37
5.09
3.77
2.59
1.58
0.67
-0.27
-1.38
-2.70
-4.16
-5.60
-6.91
-8.08
-9.20
-10.39
-11.64
-12.79
-13.56
-13.69
-13.01
-11.56
-9.48
-6.98
-4.21
-1.32
1.52
4.08
6.12
7.46
8.06
8.06
7.68
7.18
6.73
6.41
6.24
6.22
6.30
6.40
6.42
6.26
5.92
5.52
5.21
5.12
5.26
5.48
5.56
5.36
4.86
4.19
3.52
2.95
2.47
2.00
1.43
0.70
-0.17
-1.15
-2.25
-3.49
-4.90
-6.41
-7.83
-8.86
-9.25
-8.88
-7.82
-6.31
-4.64
-2.99
-1.43
0.08
1.55
2.91
4.06
4.88
5.33
5.44
5.29
4.98
4.62
4.30
4.12
4.10
4.14
4.11
3.89
3.45
2.93
2.53
2.45
2.66
2.96
3.04
2.71
2.01
1.17
0.47
0.08
-0.03
-0.05
-0.18
-0.55
-1.13
-1.84
-2.61
-3.44
-4.41
-5.57
-6.95
-8.43
-9.81
-10.84
-11.31
-11.06
-10.04
-8.37
-6.26
-4.08
-2.14
-0.71
0.16
0.58
0.76
0.89
1.07
1.23
1.28
1.19
1.05
1.04
1.33
1.94
2.70
3.37
3.75
3.83
3.76
3.74
3.83
3.99
4.09
4.03
3.80
3.51
3.26
3.10
3.01
2.89
2.68
2.29
1.68
0.82
-0.26
-1.49
-2.74
-3.86
-4.78
-5.54
-6.31
-7.29
-8.58
-10.02
-11.28
-11.99
-11.88
-10.96
-9.43
-7.57
-5.60
-3.61
-1.62
0.38
2.27
3.88
5.07
5.79
6.13
6.19
6.07
5.83
5.43
4.88
4.24
3.55
2.85
2.20
1.67
1.35
1.33
1.63
2.18
2.78
3.16
3.13
2.62
1.75
0.77
-0.11
-0.73
-1.11
-1.35
-1.67
-2.17
-2.88
-3.68
-4.40
-4.93
-5.31
-5.67
-6.22
-7.14
-8.42
-9.92
-11.39
-12.59
-13.31
-13.42
-12.85
-11.62
-9.88
-7.84
-5.74
-3.84
-2.24
-0.98
0.06
0.96
1.79
2.60
3.34
3.96
4.42
4.70
4.78
4.73
4.64
4.60
4.65
4.75
4.80
4.67
4.33
3.82
3.27
2.78
2.43
2.19
1.97
1.67
1.22
0.57
-0.30
-1.35
-2.58
-3.92
-5.26
-6.49
-7.44
-8.05
-8.33
-8.40
-8.50
-8.85
-9.58
-10.56
-11.50
-12.00
-11.75
-10.65
-8.86
-6.72
-4.52
-2.46
-0.52
1.33
3.11
4.70
5.88
6.55
6.67
6.43
6.01
5.57
5.10
4.56
3.93
3.29
2.82
2.67
2.85
3.14
3.25
2.92
2.13
1.08
0.06
-0.67
-1.07
-1.27
-1.52
-2.00
-2.75
-3.64
-4.48
-5.10
-5.49
-5.75
-6.05
-6.58
-7.42
-8.53
-9.76
-10.87
-11.66
-11.97
-11.73
-10.88
-9.42
-7.33
-4.67
-1.66
1.30
3.81
5.52
6.34
6.53
6.46
6.48
6.70
6.99
7.06
6.72
5.94
4.91
3.89
3.12
2.69
2.53
2.52
2.50
2.39
2.14
1.75
1.19
0.48
-0.32
-1.07
-1.63
-1.89
-1.83
-1.59
-1.38
-1.43
-1.91
-2.81
-3.99
-5.29
-6.56
-7.69
-8.61
-9.16
-9.11
-8.25
-6.50
-4.03
-1.27
1.24
3.03
3.87
3.79
3.06
2.01
0.86
-0.29
-1.43
-2.53
-3.50
-4.21
-4.55
-4.48
-4.04
-3.40
-2.73
-2.19
-1.85
-1.75
-1.85
-2.05
-2.31
-2.59
-2.90
-3.27
-3.74
-4.28
-4.86
-5.40
-5.86
-6.27
-6.76
-7.49
-8.56
-9.97
-11.58
-13.09
-14.11
-14.31
-13.43
-11.46
-8.60
-5.26
-1.95
0.95
3.20
4.80
5.89
6.57
6.89
6.85
6.46
5.81
5.07
4.42
3.97
3.70
3.49
3.19
2.77
2.26
1.71
1.19
0.69
0.20
-0.31
-0.81
-1.29
-1.71
-2.06
-2.35
-2.59
-2.82
-3.12
-3.62
-4.51
-5.89
-7.76
-9.92
-12.00
-13.56
-14.21
-13.80
-12.40
-10.27
-7.70
-4.99
-2.33
0.14
2.31
4.10
5.41
6.19
6.42
6.19
5.61
4.91
4.23
3.68
3.32
3.09
2.93
2.73
2.44
2.10
1.78
1.52
1.27
0.92
0.36
-0.44
-1.36
-2.19
-2.77
-3.05
-3.17
-3.35
-3.78
-4.53
-5.53
-6.64
-7.73
-8.74
-9.63
-10.36
-10.76
-10.67
-9.93
-8.48
-6.42
-3.99
-1.50
0.71
2.40
3.44
3.86
3.84
3.58
3.26
2.93
2.57
2.07
1.39
0.58
-0.22
-0.82
-1.10
-1.09
-0.94
-0.87
-1.02
-1.44
-1.98
-2.47
-2.77
-2.90
-3.04
-3.44
-4.30
-5.67
-7.43
-9.37
-11.19
-12.62
-13.44
-13.51
-12.79
-11.38
-9.47
-7.28
-5.01
-2.80
-0.66
1.40
3.40
5.34
7.10
8.52
9.41
9.59
9.00
7.77
6.23
4.81
3.93
3.74
4.16
4.84
5.36
5.38
4.83
3.82
2.64
1.55
0.73
0.23
-0.01
-0.07
-0.09
-0.20
-0.65
-1.68
-3.48
-5.99
-8.89
-11.65
-13.66
-14.43
-13.79
-11.87
-9.05
-5.76
-2.45
0.55
3.03
4.90
6.18
6.96
7.37
7.48
7.35
6.93
6.24
5.38
4.52
3.89
3.68
3.89
4.31
4.63
4.50
3.76
2.48
0.89
-0.67
-1.93
-2.79
-3.32
-3.68
-4.09
-4.71
-5.65
-7.00
-8.73
-10.71
-12.64
-14.11
-14.66
-14.02
-12.11
-9.11
-5.39
-1.36
2.57
6.02
8.66
10.28
10.83
10.52
9.76
9.04
8.73
8.91
9.35
9.65
9.47
8.75
7.70
6.65
5.86
5.40
5.11
4.81
4.37
3.78
3.10
2.40
1.64
0.73
-0.38
-1.63
-2.86
-3.92
-4.79
-5.63
-6.78
-8.49
-10.82
-13.50
-15.92
-17.43
-17.44
-15.77
-12.60
-8.52
-4.18
-0.18
3.18
5.90
8.14
10.04
11.59
12.66
13.06
12.75
11.90
10.85
9.96
9.48
9.47
9.81
10.30
10.74
11.05
11.20
11.21
11.05
10.68
10.04
9.10
7.86
6.32
4.52
2.49
0.32
-1.84
-3.78
-5.32
-6.37
-7.06
-7.64
-8.50
-9.96
-12.16
-15.01
-18.21
-21.32
-23.82
-25.20
-25.05
-23.16
-19.56
-14.56
-8.73
-2.74
2.78
7.34
10.74
12.97
14.23
14.75
14.75
14.44
13.97
13.53
13.28
13.33
13.72
14.39
15.16
15.82
16.15
16.01
15.38
14.37
13.17
11.95
10.85
9.88
8.94
7.89
6.67
5.25
3.74
2.25
0.80
-0.64
-2.10
-3.67
-5.29
-6.98
-8.71
-10.55
-12.64
-15.10
-17.97
-21.04
-23.95
-26.16
-27.10
-26.37
-23.89
-19.86
-14.78
-9.27
-3.92
0.79
4.61
7.46
9.40
10.59
11.23
11.53
11.68
11.80
11.95
12.13
12.34
12.59
12.87
13.19
13.48
13.71
13.83
13.84
13.73
13.45
12.88
11.87
10.31
8.18
5.63
2.88
0.18
-2.29
-4.41
-6.15
-7.48
-8.51
-9.41
-10.44
-11.90
-13.99
-16.69
-19.72
-22.56
-24.61
-25.30
-24.33
-21.67
-17.65
-12.77
-7.62
-2.67
1.76
5.51
8.52
10.74
12.15
12.77
12.72
12.22
11.54
10.95
10.63
10.63
10.92
11.41
11.91
12.27
12.36
12.07
11.46
10.65
9.85
9.24
8.87
8.59
8.14
7.24
5.72
3.66
1.35
-0.85
-2.66
-4.05
-5.22
-6.49
-8.21
-10.61
-13.66
-17.17
-20.66
-23.55
-25.26
-25.35
-23.63
-20.24
-15.59
-10.20
-4.62
0.76
5.64
9.82
13.13
15.44
16.67
16.91
16.40
15.52
14.64
14.01
13.70
13.59
13.49
13.23
12.74
11.99
11.10
10.19
9.37
8.69
8.16
7.66
7.11
6.34
5.28
3.88
2.25
0.51
-1.20
-2.79
-4.29
-5.78
-7.41
-9.37
-11.84
-14.96
-18.67
-22.67
-26.40
-29.08
-29.96
-28.55
-24.82
-19.21
-12.53
-5.70
0.54
5.70
9.61
12.27
13.81
14.39
14.22
13.59
12.86
12.30
12.13
12.34
12.85
13.46
14.01
14.39
14.52
14.40
14.04
13.53
12.92
12.28
11.60
10.72
9.46
7.60
5.13
2.21
-0.81
-3.53
-5.73
-7.41
-8.81
-10.26
-12.10
-14.54
-17.60
-21.12
-24.78
-28.13
-30.68
-31.91
-31.44
-29.16
-25.20
-19.97
-14.01
-7.84
-1.94
3.39
7.88
11.35
13.66
14.78
14.87
14.29
13.49
12.87
12.66
12.90
13.46
14.15
14.83
15.38
15.72
15.74
15.39
14.63
13.55
12.28
10.93
9.50
7.93
6.13
4.10
1.95
-0.09
-1.85
-3.24
-4.38
-5.55
-7.05
-9.18
-12.14
-15.88
-20.13
-24.34
-27.76
-29.61
-29.34
-26.82
-22.36
-16.64
-10.46
-4.49
0.81
5.24
8.71
11.16
12.60
13.11
12.91
12.36
11.84
11.66
11.96
12.63
13.37
13.83
13.73
13.01
11.87
10.66
9.73
9.30
9.22
9.14
8.63
7.46
5.59
3.33
1.05
-0.96
-2.60
-4.03
-5.50
-7.29
-9.55
-12.36
-15.63
-19.16
-22.63
-25.52
-27.23
-27.21
-25.23
-21.38
-16.17
-10.32
-4.51
0.79
5.37
9.24
12.40
14.76
16.17
16.54
15.93
14.62
13.03
11.59
10.61
10.23
10.34
10.74
11.19
11.55
11.75
11.74
11.49
10.94
10.02
8.66
6.89
4.83
2.64
0.48
-1.54
-3.47
-5.43
-7.64
-10.25
-13.29
-16.58
-19.73
-22.13
-23.21
-22.53
-19.92
-15.60
-10.06
-3.97
2.03
7.41
11.84
15.15
17.31
18.33
18.32
17.43
15.94
14.22
12.62
11.43
10.75
10.49
10.44
10.39
10.24
10.01
9.80
9.68
9.60
9.42
8.89
7.80
6.08
3.82
1.21
-1.50
-4.12
-6.53
-8.76
-10.96
-13.35
-16.14
-19.45
-23.17
-26.92
-30.04
-31.75
-31.36
-28.52
-23.38
-16.56
-8.98
-1.56
5.01
10.41
14.63
17.74
19.80
20.78
20.70
19.75
18.36
17.14
16.53
16.67
17.25
17.70
17.50
16.46
14.73
12.75
10.99
9.65
8.67
7.78
6.72
5.35
3.68
1.82
-0.11
-2.09
-4.15
-6.37
-8.81
-11.52
-14.53
-17.85
-21.46
-25.26
-29.02
-32.29
-34.51
-35.07
-33.54
-29.83
-24.22
-17.29
-9.88
-2.78
3.39
8.32
12.00
14.59
16.34
17.41
17.87
17.74
17.09
16.11
15.09
14.36
14.12
14.40
15.00
15.64
15.97
15.82
15.15
14.09
12.81
11.47
10.14
8.80
7.41
5.90
4.25
2.40
0.35
-1.91
-4.32
-6.84
-9.47
-12.26
-15.30
-18.65
-22.31
-26.10
-29.73
-32.80
-34.88
-35.54
-34.43
-31.35
-26.36
-19.86
-12.47
-4.94
2.08
8.07
12.73
15.97
17.85
18.54
18.31
17.49
16.38
15.23
14.15
13.26
12.67
12.48
12.75
13.40
14.24
14.97
15.36
15.33
14.90
14.22
13.37
12.36
11.11
9.52
7.53
5.26
2.93
0.73
-1.18
-2.82
-4.29
-5.75
-7.39
-9.39
-11.91
-15.00
-18.60
-22.31
-25.50
-27.40
-27.33
-24.99
-20.64
-14.95
-8.78
-2.88
2.33
6.73
10.35
13.30
15.60
17.26
18.26
18.62
18.47
17.98
17.40
16.96
16.90
17.30
18.13
19.16
20.10
20.62
20.51
19.72
18.39
16.72
14.94
13.21
11.53
9.76
7.68
5.18
2.28
-0.85
-3.92
-6.71
-9.09
-11.13
-13.00
-14.95
-17.22
-20.03
-23.51
-27.61
-31.98
-35.93
-38.59
-39.11
-37.01
-32.33
-25.66
-17.92
-10.08
-2.89
3.21
8.07
11.73
14.28
15.79
16.40
16.32
15.88
15.44
15.29
15.61
16.33
17.22
17.99
18.49
18.68
18.68
18.60
18.48
18.21
17.67
16.75
15.45
13.94
12.36
10.81
9.27
7.66
5.85
3.82
1.63
-0.62
-2.85
-5.04
-7.27
-9.62
-12.19
-15.07
-18.35
-22.11
-26.30
-30.67
-34.73
-37.79
-39.14
-38.25
-34.94
-29.49
-22.54
-14.94
-7.55
-1.04
4.23
8.22
11.12
13.25
14.83
15.98
16.69
16.92
16.70
16.15
15.52
15.05
14.97
15.33
16.11
17.17
18.32
19.39
20.19
20.53
20.26
19.27
17.58
15.31
12.70
10.03
7.55
5.36
3.44
1.58
-0.42
-2.73
-5.31
-8.04
-10.68
-13.12
-15.40
-17.70
-20.31
-23.44
-27.06
-30.88
-34.31
-36.65
-37.26
-35.76
-32.11
-26.70
-20.14
-13.21
-6.51
-0.47
4.73
9.04
12.47
14.97
16.50
17.09
16.93
16.33
15.67
15.20
15.07
15.21
15.52
15.92
16.40
16.93
17.43
17.68
17.41
16.47
14.92
13.05
11.25
9.77
8.60
7.49
6.06
4.10
1.61
-1.23
-4.19
-7.10
-9.89
-12.57
-15.10
-17.46
-19.73
-22.06
-24.69
-27.73
-30.95
-33.76
-35.27
-34.76
-31.90
-26.92
-20.50
-13.50
-6.61
-0.32
5.15
9.63
13.02
15.28
16.49
16.89
16.73
16.25
15.50
14.43
13.08
11.59
10.25
9.36
9.06
9.25
9.66
10.01
10.12
10.00
9.73
9.38
8.94
8.32
7.46
6.32
4.89
3.22
1.32
-0.77
-2.99
-5.29
-7.66
-10.12
-12.77
-15.75
-19.09
-22.78
-26.68
-30.51
-33.90
-36.37
-37.43
-36.66
-33.87
-29.17
-22.96
-15.95
-8.88
-2.45
2.85
6.82
9.53
11.22
12.21
12.77
13.03
13.06
12.85
12.44
12.00
11.69
11.67
11.93
12.32
12.59
12.53
12.05
11.27
10.42
9.68
9.10
8.48
7.50
5.86
3.50
0.62
-2.38
-5.06
-7.19
-8.75
-10.00
-11.29
-12.99
-15.32
-18.33
-21.82
-25.43
-28.65
-30.96
-31.88
-31.07
-28.44
-24.10
-18.39
-11.84
-5.08
1.21
6.50
10.53
13.23
14.81
15.52
15.62
15.32
14.78
14.17
13.69
13.52
13.75
14.29
14.94
15.43
15.55
15.20
14.43
13.38
12.16
10.87
9.48
7.97
6.22
4.24
2.10
-0.07
-2.14
-4.08
-5.91
-7.75
-9.72
-12.01
-14.73
-17.90
-21.36
-24.71
-27.36
-28.67
-28.12
-25.52
-21.06
-15.29
-8.97
-2.83
2.58
6.95
10.27
12.64
14.23
15.20
15.65
15.65
15.31
14.85
14.49
14.43
14.71
15.22
15.77
16.18
16.38
16.41
16.31
16.06
15.54
14.59
13.10
11.08
8.67
6.04
3.37
0.77
-1.65
-3.85
-5.86
-7.83
-10.02
-12.75
-16.20
-20.39
-25.08
-29.77
-33.81
-36.53
-37.37
-36.03
-32.53
-27.21
-20.71
-13.73
-6.93
-0.85
4.23
8.19
11.09
13.09
14.39
15.20
15.65
15.83
15.76
15.52
15.20
15.01
15.16
15.79
16.94
18.44
20.09
21.57
22.61
22.99
22.57
21.30
19.24
16.56
13.47
10.18
6.90
3.76
0.82
-1.90
-4.37
-6.61
-8.69
-10.85
-13.34
-16.47
-20.39
-24.96
-29.77
-34.13
-37.24
-38.40
-37.19
-33.59
-28.01
-21.16
-13.83
-6.75
-0.35
5.16
9.71
13.25
15.77
17.24
17.74
17.58
17.09
16.60
16.30
16.24
16.34
16.55
16.84
17.24
17.73
18.18
18.36
18.00
16.91
15.13
12.89
10.53
8.38
6.61
5.18
3.89
2.55
1.02
-0.67
-2.41
-4.12
-5.80
-7.58
-9.68
-12.24
-15.34
-18.95
-22.91
-27.02
-30.98
-34.41
-36.79
-37.64
-36.54
-33.35
-28.28
-21.89
-14.96
-8.25
-2.33
2.53
6.35
9.33
11.61
13.33
14.51
15.16
15.35
15.24
15.00
14.79
14.76
14.98
15.51
16.30
17.24
18.11
18.70
18.87
18.62
18.11
17.50
16.79
15.84
14.37
12.19
9.28
5.86
2.28
-1.11
-4.12
-6.74
-9.07
-11.29
-13.62
-16.23
-19.28
-22.83
-26.70
-30.45
-33.41
-34.85
-34.21
-31.23
-26.12
-19.46
-11.96
-4.41
2.60
8.62
13.48
17.12
19.57
20.96
21.39
21.03
20.17
19.14
18.29
17.89
18.03
18.54
19.12
19.47
19.39
18.91
18.13
17.22
16.28
15.27
14.12
12.74
11.08
9.11
6.82
4.27
1.57
-1.12
-3.63
-5.84
-7.78
-9.64
-11.74
-14.42
-17.82
-21.85
-26.15
-30.13
-33.08
-34.32
-33.40
-30.18
-24.91
-18.26
-11.07
-4.16
1.95
7.06
11.20
14.49
16.91
18.37
18.73
18.08
16.74
15.25
14.11
13.63
13.83
14.49
15.35
16.24
17.06
17.85
18.60
19.19
19.48
19.36
18.77
17.73
16.31
14.56
12.46
10.05
7.33
4.41
1.37
-1.70
-4.79
-7.96
-11.32
-15.02
-19.12
-23.60
-28.33
-32.97
-37.04
-39.93
-40.99
-39.76
-36.09
-30.28
-23.00
-15.11
-7.45
-0.63
5.00
9.36
12.43
14.30
15.13
15.17
14.83
14.55
14.64
15.23
16.17
17.20
18.07
18.64
18.94
19.07
19.13
19.09
18.88
18.36
17.44
16.12
14.48
12.64
10.73
8.79
6.79
4.68
2.40
-0.02
-2.54
-5.06
-7.55
-10.02
-12.52
-15.16
-18.06
-21.32
-25.00
-28.95
-32.77
-35.82
-37.34
-36.68
-33.57
-28.28
-21.51
-14.22
-7.27
-1.19
3.90
8.14
11.73
14.69
16.85
18.01
18.10
17.35
16.23
15.31
14.97
15.27
15.95
16.65
17.13
17.34
17.37
17.36
17.26
16.95
16.22
14.98
13.33
11.46
9.59
7.80
6.00
4.05
1.80
-0.80
-3.60
-6.38
-8.91
-11.09
-13.00
-14.91
-17.17
-20.07
-23.65
-27.59
-31.24
-33.78
-34.56
-33.24
-29.95
-25.24
-19.75
-14.06
-8.50
-3.17
1.90
6.60
10.75
14.11
16.58
18.21
19.19
19.74
19.96
19.87
19.46
18.84
18.21
17.87
17.98
18.54
19.36
20.17
20.73
20.90
20.64
19.91
18.73
17.14
15.26
13.25
11.23
9.27
7.28
5.14
2.73
0.09
-2.67
-5.41
-8.01
-10.43
-12.64
-14.68
-16.60
-18.49
-20.56
-22.97
-25.79
-28.85
-31.70
-33.72
-34.30
-33.08
-30.02
-25.44
-19.90
-13.98
-8.17
-2.81
1.89
5.81
8.85
11.01
12.39
13.18
13.63
13.92
14.14
14.32
14.47
14.68
15.07
15.75
16.68
17.69
18.54
18.99
18.91
18.31
17.26
15.89
14.27
12.48
10.57
8.58
6.51
4.36
2.11
-0.27
-2.79
-5.40
-8.00
-10.48
-12.73
-14.69
-16.37
-17.90
-19.57
-21.70
-24.53
-28.16
-32.28
-36.28
-39.30
-40.48
-39.23
-35.45
-29.56
-22.41
-14.97
-8.02
-2.04
2.84
6.69
9.63
11.77
13.19
13.98
14.32
14.40
14.40
14.41
14.45
14.52
14.59
14.67
14.73
14.76
14.71
14.59
14.38
14.10
13.74
13.20
12.37
11.10
9.35
7.17
4.71
2.13
-0.39
-2.75
-4.91
-6.90
-8.81
-10.79
-13.06
-15.82
-19.14
-22.90
-26.70
-29.88
-31.70
-31.53
-29.08
-24.51
-18.44
-11.71
-5.16
0.60
5.33
9.07
11.97
14.20
15.81
16.80
17.18
17.03
16.53
15.89
15.32
14.96
14.79
14.75
14.70
14.51
14.08
13.45
12.72
12.03
11.45
10.90
10.19
9.06
7.40
5.25
2.88
0.57
-1.45
-3.17
-4.82
-6.73
-9.23
-12.49
-16.53
-21.20
-26.24
-31.20
-35.55
-38.64
-39.88
-38.90
-35.65
-30.46
-23.96
-16.91
-10.04
-3.88
1.30
5.43
8.55
10.74
12.10
12.72
12.77
12.47
12.14
12.04
12.36
13.10
14.05
14.97
15.67
16.10
16.32
16.44
16.53
16.51
16.29
15.68
14.62
13.10
11.17
8.90
6.34
3.51
0.51
-2.58
-5.62
-8.49
-11.25
-14.04
-17.09
-20.60
-24.57
-28.78
-32.76
-35.85
-37.45
-37.11
-34.63
-30.21
-24.27
-17.47
-10.48
-3.86
1.98
6.82
10.55
13.15
14.68
15.31
15.27
14.92
14.59
14.56
14.94
15.66
16.54
17.38
18.02
18.47
18.73
18.83
18.71
18.27
17.39
16.03
14.24
12.12
9.79
7.30
4.70
1.99
-0.80
-3.58
-6.27
-8.82
-11.25
-13.63
-16.11
-18.83
-21.93
-25.42
-29.11
-32.56
-35.12
-36.09
-34.95
-31.59
-26.29
-19.66
-12.48
-5.46
0.87
6.22
10.46
13.56
15.55
16.54
16.73
16.44
16.03
15.83
16.04
16.65
17.49
18.27
18.73
18.74
18.34
17.71
17.06
16.56
16.24
15.95
15.45
14.51
13.05
11.12
8.90
6.58
4.22
1.76
-0.91
-3.84
-6.94
-9.99
-12.77
-15.22
-17.55
-20.10
-23.20
-26.89
-30.80
-34.21
-36.23
-36.14
-33.64
-28.92
-22.61
-15.56
-8.57
-2.28
2.95
7.00
9.92
11.87
13.03
13.63
13.89
14.01
14.16
14.43
14.87
15.44
16.06
16.62
17.04
17.27
17.28
17.10
16.75
16.29
15.71
14.99
14.02
12.69
10.91
8.63
5.98
3.17
0.44
-2.06
-4.27
-6.27
-8.23
-10.32
-12.71
-15.53
-18.86
-22.68
-26.85
-30.96
-34.43
-36.58
-36.87
-35.01
-31.13
-25.74
-19.52
-13.12
-7.08
-1.68
2.86
6.49
9.16
10.94
11.95
12.40
12.49
12.40
12.26
12.21
12.40
12.94
13.85
15.01
16.13
16.91
17.15
16.85
16.15
15.21
14.11
12.79
11.14
9.09
6.67
4.07
1.56
-0.65
-2.46
-3.94
-5.31
-6.90
-8.99
-11.73
-15.11
-18.91
-22.75
-26.12
-28.47
-29.27
-28.20
-25.22
-20.55
-14.72
-8.35
-2.05
3.71
8.58
12.38
15.04
16.61
17.27
17.28
16.97
16.63
16.52
16.77
17.40
18.29
19.23
19.96
20.29
20.17
19.67
18.90
17.94
16.73
15.15
13.11
10.60
7.77
4.80
1.90
-0.81
-3.29
-5.56
-7.71
-9.86
-12.16
-14.81
-17.90
-21.42
-25.12
-28.50
-30.91
-31.73
-30.56
-27.40
-22.63
-16.86
-10.77
-4.83
0.70
5.71
10.13
13.76
16.37
17.82
18.15
17.68
16.83
16.05
15.57
15.49
15.75
16.27
16.92
17.55
18.02
18.20
18.07
17.70
17.24
16.76
16.20
15.39
14.08
12.10
9.49
6.40
3.14
-0.07
-3.12
-6.03
-8.91
-11.93
-15.22
-18.92
-23.02
-27.32
-31.44
-34.80
-36.80
-36.92
-34.94
-30.92
-25.26
-18.57
-11.55
-4.81
1.14
5.97
9.54
11.86
13.09
13.47
13.35
13.04
12.79
12.67
12.62
12.48
12.15
11.65
11.09
10.65
10.35
10.16
9.94
9.62
9.22
8.80
8.38
7.81
6.84
5.25
3.01
0.30
-2.51
-5.10
-7.36
-9.39
-11.45
-13.79
-16.58
-19.89
-23.62
-27.59
-31.41
-34.54
-36.32
-36.18
-33.83
-29.39
-23.40
-16.68
-10.01
-3.94
1.25
5.56
9.12
12.02
14.29
15.91
16.88
17.30
17.35
17.27
17.28
17.46
17.77
18.08
18.22
18.11
17.81
17.44
17.13
16.90
16.64
16.10
15.05
13.36
11.09
8.44
5.72
3.13
0.80
-1.30
-3.28
-5.31
-7.50
-10.02
-13.00
-16.47
-20.36
-24.37
-27.96
-30.46
-31.19
-29.76
-26.17
-20.88
-14.66
-8.29
-2.41
2.64
6.79
10.07
12.53
14.16
14.98
15.06
14.64
14.04
13.55
13.35
13.44
13.69
13.92
13.96
13.80
13.45
13.04
12.65
12.30
11.96
11.46
10.70
9.56
8.06
6.31
4.52
2.85
1.30
-0.30
-2.24
-4.81
-8.19
-12.28
-16.84
-21.39
-25.43
-28.44
-29.98
-29.75
-27.66
-23.85
-18.67
-12.62
-6.29
-0.23
5.05
9.20
12.01
13.52
13.93
13.60
12.90
12.14
11.48
10.97
10.60
10.35
10.23
10.24
10.35
10.52
10.71
10.93
11.11
11.11
10.66
9.53
7.62
5.07
2.31
-0.24
-2.31
-4.00
-5.71
-7.95
-11.10
-15.17
-19.79
-24.32
-28.02
-30.22
-30.51
-28.73
-25.02
-19.77
-13.54
-6.97
-0.62
5.04
9.73
13.30
15.73
17.07
17.49
17.21
16.53
15.77
15.14
14.76
14.58
14.46
14.29
14.05
13.80
13.62
13.51
13.31
12.78
11.70
9.98
7.76
5.26
2.71
0.22
-2.20
-4.68
-7.30
-10.08
-13.03
-16.12
-19.38
-22.75
-26.05
-28.88
-30.65
-30.77
-28.89
-24.99
-19.51
-13.14
-6.65
-0.65
4.51
8.66
11.80
13.92
15.03
15.23
14.70
13.84
13.03
12.64
12.78
13.37
14.15
14.83
15.29
15.52
15.62
15.66
15.52
14.96
13.72
11.67
8.95
5.84
2.65
-0.38
-3.23
-5.98
-8.77
-11.68
-14.76
-18.05
-21.64
-25.54
-29.53
-33.18
-35.74
-36.47
-34.83
-30.80
-24.85
-17.82
-10.60
-3.94
1.73
6.23
9.54
11.69
12.77
12.99
12.66
12.16
11.78
11.68
11.86
12.28
12.89
13.65
14.54
15.41
16.05
16.29
16.00
15.23
14.09
12.65
10.94
8.92
6.58
4.00
1.33
-1.25
-3.59
-5.68
-7.62
-9.65
-12.09
-15.28
-19.39
-24.21
-29.14
-33.25
-35.60
-35.58
-33.05
-28.41
-22.38
-15.69
-8.90
-2.40
3.59
8.85
13.11
16.20
18.04
18.79
18.72
18.16
17.39
16.59
15.91
15.45
15.27
15.41
15.84
16.46
17.12
17.70
18.06
18.13
17.82
17.05
15.76
13.97
11.72
9.16
6.42
3.66
1.01
-1.45
-3.67
-5.68
-7.59
-9.60
-11.92
-14.74
-18.17
-22.18
-26.58
-30.99
-34.89
-37.59
-38.46
-37.05
-33.27
-27.47
-20.36
-12.79
-5.56
0.79
5.99
9.99
12.85
14.71
15.67
15.93
15.75
15.38
15.07
15.00
15.22
15.69
16.32
16.99
17.62
18.17
18.55
18.72
18.59
18.07
17.09
15.68
14.00
12.23
10.59
9.13
7.74
6.18
4.25
1.87
-0.82
-3.53
-6.00
-8.12
-10.02
-11.96
-14.20
-16.90
-20.16
-23.94
-28.14
-32.49
-36.48
-39.39
-40.40
-38.93
-34.83
-28.56
-21.01
-13.23
-6.06
0.01
4.84
8.49
11.08
12.67
13.31
13.10
12.29
11.24
10.33
9.79
9.70
9.99
10.51
11.18
11.99
12.94
14.01
15.03
15.83
16.22
16.09
15.50
14.58
13.53
12.48
11.44
10.30
8.86
6.97
4.59
1.88
-0.94
-3.70
-6.33
-8.98
-11.89
-15.26
-19.12
-23.25
-27.21
-30.42
-32.33
-32.52
-30.79
-27.22
-22.18
-16.18
-9.79
-3.53
2.22
7.22
11.29
14.33
16.29
17.25
17.41
17.07
16.58
16.19
16.03
16.11
16.35
16.66
16.95
17.13
17.12
16.82
16.19
15.23
14.01
12.63
11.14
9.57
7.87
6.05
4.17
2.29
0.50
-1.26
-3.05
-4.99
-7.14
-9.47
-11.99
-14.74
-17.77
-21.13
-24.63
-27.81
-30.01
-30.55
-28.99
-25.31
-19.93
-13.53
-6.80
-0.34
5.49
10.49
14.49
17.39
19.10
19.66
19.27
18.28
17.11
16.14
15.58
15.45
15.62
15.91
16.18
16.37
16.47
16.46
16.28
15.87
15.16
14.18
12.96
11.53
9.90
8.01
5.82
3.39
0.84
-1.68
-4.02
-6.17
-8.20
-10.27
-12.57
-15.24
-18.39
-22.02
-25.97
-29.93
-33.35
-35.55
-35.93
-34.12
-30.11
-24.31
-17.46
-10.37
-3.81
1.72
6.01
9.11
11.22
12.56
13.37
13.79
13.99
14.05
14.10
14.22
14.46
14.84
15.33
15.90
16.48
16.99
17.34
17.43
17.22
16.66
15.75
14.56
13.17
11.67
10.12
8.48
6.66
4.57
2.21
-0.36
-2.96
-5.40
-7.61
-9.65
-11.69
-13.99
-16.71
-19.94
-23.59
-27.39
-30.92
-33.66
-35.05
-34.64
-32.23
-27.90
-22.08
-15.35
-8.39
-1.77
4.05
8.80
12.35
14.68
15.92
16.28
16.06
15.58
15.15
14.95
15.08
15.50
16.10
16.76
17.39
17.90
18.23
18.30
18.06
17.48
16.56
15.30
13.78
12.09
10.31
8.53
6.80
5.07
3.26
1.29
-0.88
-3.21
-5.58
-7.85
-9.90
-11.74
-13.53
-15.49
-17.84
-20.72
-24.02
-27.44
-30.49
-32.58
-33.16
-31.87
-28.66
-23.86
-18.10
-12.15
-6.67
-2.06
1.68
4.76
7.42
9.72
11.52
12.56
12.72
12.13
11.20
10.45
10.23
10.62
11.42
12.35
13.19
13.87
14.42
14.84
15.05
14.84
14.08
12.75
10.98
9.06
7.25
5.70
4.38
3.19
1.94
0.47
-1.34
-3.46
-5.79
-8.13
-10.22
-11.95
-13.40
-14.85
-16.70
-19.25
-22.51
-26.10
-29.31
-31.33
-31.49
-29.52
-25.55
-20.05
-13.69
-7.18
-1.11
4.11
8.21
11.12
12.86
13.59
13.55
13.04
12.32
11.68
11.29
11.30
11.73
12.55
13.63
14.78
15.78
16.43
16.60
16.29
15.58
14.60
13.48
12.21
10.73
8.99
6.95
4.71
2.42
0.20
-1.90
-3.93
-6.01
-8.24
-10.67
-13.30
-16.14
-19.17
-22.30
-25.26
-27.62
-28.82
-28.38
-26.04
-21.94
-16.56
-10.57
-4.67
0.64
5.07
8.53
11.07
12.82
13.90
14.45
14.60
14.47
14.16
13.74
13.31
12.93
12.63
12.40
12.22
12.06
11.90
11.71
11.44
10.93
10.00
8.53
6.53
4.21
1.88
-0.20
-1.94
-3.45
-4.92
-6.50
-8.18
-9.92
-11.61
-13.31
-15.23
-17.63
-20.67
-24.23
-27.89
-30.96
-32.71
-32.58
-30.37
-26.32
-20.98
-15.02
-9.10
-3.70
0.88
4.49
7.09
8.80
9.77
10.22
10.39
10.46
10.51
10.53
10.55
10.58
10.67
10.85
11.13
11.42
11.61
11.62
11.41
11.00
10.38
9.58
8.52
7.16
5.47
3.47
1.26
-1.01
-3.23
-5.36
-7.41
-9.45
-11.61
-13.97
-16.63
-19.63
-22.87
-26.12
-28.93
-30.76
-31.11
-29.69
-26.49
-21.82
-16.19
-10.22
-4.50
0.50
4.46
7.26
9.03
10.01
10.52
10.83
11.06
11.19
11.22
11.23
11.37
11.82
12.64
13.64
14.51
14.90
14.64
13.85
12.83
11.95
11.43
11.23
11.08
10.62
9.56
7.88
5.77
3.52
1.42
-0.38
-1.94
-3.44
-5.11
-7.16
-9.65
-12.58
-15.85
-19.27
-22.54
-25.29
-27.07
-27.43
-26.07
-22.94
-18.25
-12.43
-6.02
0.45
6.52
11.84
16.20
19.51
21.81
23.30
24.29
25.11
26.04
27.19
28.54
29.92
31.12
31.97
32.40
32.45
32.20
31.76
31.18
30.41
29.40
28.06
26.35
24.21
21.58
18.42
14.71
10.57
6.25
2.09
-1.59
-4.64
-7.15
-9.40
-11.73
-14.44
-17.70
-21.43
-25.37
-29.09
-32.03
-33.62
-33.43
-31.32
-27.50
-22.54
-17.13
-11.91
-7.37
-3.72
-1.01
0.82
1.81
2.06
1.73
1.07
0.41
-0.02
-0.09
0.13
0.44
0.59
0.46
0.06
-0.44
-0.81
-0.90
-0.74
-0.49
-0.40
-0.69
-1.43
-2.53
-3.85
-5.17
-6.35
-7.36
-8.26
-9.15
-10.21
-11.64
-13.62
-16.34
-19.80
-23.85
-28.07
-31.87
-34.60
-35.71
-35.00
-32.50
-28.62
-23.84
-18.68
-13.48
-8.48
-3.81
0.41
4.09
7.15
9.55
11.30
12.46
13.09
13.31
13.26
13.18
13.32
13.91
15.02
16.52
18.06
19.21
19.66
19.29
18.27
16.86
15.32
13.78
12.22
10.57
8.76
6.81
4.76
2.68
0.62
-1.43
-3.51
-5.66
-7.94
-10.42
-13.21
-16.37
-19.96
-23.84
-27.73
-31.14
-33.51
-34.29
-33.10
-29.85
-24.81
-18.55
-11.78
-5.23
0.55
5.26
8.85
11.41
13.18
14.37
15.22
15.90
16.48
17.00
17.45
17.85
18.23
18.68
19.23
19.87
20.51
21.02
21.31
21.36
21.16
20.70
19.96
18.88
17.46
15.75
13.87
12.01
10.27
8.66
7.14
5.67
4.18
2.69
1.16
-0.49
-2.32
-4.38
-6.60
-8.86
-11.01
-13.00
-14.90
-16.87
-19.09
-21.69
-24.67
-27.93
-31.16
-33.97
-35.85
-36.23
-34.71
-31.15
-25.81
-19.27
-12.32
-5.70
0.09
4.80
8.47
11.23
13.29
14.83
15.96
16.81
17.47
18.03
18.49
18.87
19.10
19.17
19.14
19.14
19.35
19.83
20.57
21.38
21.98
22.08
21.51
20.25
18.44
16.36
14.31
12.56
11.21
10.28
9.63
9.08
8.50
7.79
6.94
5.94
4.80
3.53
2.11
0.54
-1.20
-3.10
-5.23
-7.59
-10.10
-12.65
-15.02
-17.03
-18.62
-19.94
-21.29
-23.03
-25.41
-28.36
-31.46
-33.95
-35.05
-34.16
-31.14
-26.29
-20.26
-13.77
-7.49
-1.82
3.05
7.02
10.07
12.16
13.37
13.85
13.89
13.78
13.68
13.65
13.58
13.35
12.93
12.44
12.02
11.81
11.82
11.93
12.01
11.97
11.82
11.62
11.38
11.06
10.59
9.95
9.21
8.56
8.12
7.97
7.97
7.91
7.54
6.77
5.67
4.42
3.21
2.09
0.96
-0.40
-2.11
-4.15
-6.35
-8.47
-10.32
-11.93
-13.49
-15.28
-17.50
-20.13
-22.97
-25.68
-27.85
-29.14
-29.28
-28.08
-25.48
-21.62
-16.87
-11.70
-6.67
-2.21
1.47
4.38
6.68
8.51
9.97
11.06
11.75
12.08
12.17
12.12
12.09
12.13
12.31
12.60
13.02
13.50
13.99
14.36
14.53
14.40
13.90
13.02
11.81
10.38
8.88
7.48
6.26
5.19
4.10
2.79
1.15
-0.80
-2.93
-5.07
-7.16
-9.23
-11.40
-13.74
-16.23
-18.82
-21.35
-23.68
-25.60
-26.81
-26.95
-25.67
-22.83
-18.59
-13.37
-7.81
-2.50
2.15
5.93
8.81
10.87
12.20
12.89
13.11
13.01
12.78
12.61
12.58
12.73
13.01
13.35
13.70
14.02
14.26
14.38
14.34
14.04
13.46
12.55
11.33
9.85
8.21
6.53
4.91
3.40
1.94
0.42
-1.28
-3.19
-5.17
-7.05
-8.63
-9.88
-10.90
-11.98
-13.38
-15.27
-17.66
-20.38
-23.14
-25.55
-27.20
-27.72
-26.84
-24.50
-20.94
-16.59
-12.02
-7.73
-4.02
-0.97
1.52
3.57
5.33
6.86
8.13
9.11
9.77
10.08
10.03
9.69
9.23
8.85
8.74
8.96
9.38
9.79
9.93
9.68
9.09
8.33
7.52
6.73
5.92
5.03
4.05
3.04
2.11
1.27
0.41
-0.64
-2.01
-3.69
-5.54
-7.39
-9.19
-11.06
-13.24
-15.87
-18.88
-21.86
-24.13
-25.05
-24.21
-21.63
-17.76
-13.25
-8.73
-4.63
-1.05
2.07
4.89
7.46
9.67
11.29
12.16
12.28
11.82
11.08
10.37
9.87
9.61
9.52
9.52
9.55
9.58
9.59
9.55
9.38
9.05
8.52
7.83
6.98
5.97
4.76
3.28
1.50
-0.60
-2.93
-5.35
-7.67
-9.71
-11.41
-12.87
-14.30
-15.91
-17.78
-19.83
-21.76
-23.22
-23.87
-23.51
-22.07
-19.62
-16.31
-12.39
-8.18
-4.05
-0.36
2.62
4.78
6.17
6.94
7.29
7.38
7.33
7.25
7.26
7.45
7.82
8.29
8.68
8.80
8.55
8.00
7.32
6.72
6.33
6.13
5.99
5.72
5.19
4.30
3.12
1.75
0.28
-1.21
-2.65
-4.05
-5.48
-7.02
-8.72
-10.63
-12.70
-14.82
-16.83
-18.57
-19.85
-20.41
-20.01
-18.39
-15.46
-11.41
-6.75
-2.15
1.73
4.51
6.24
7.22
7.88
8.42
8.87
9.11
9.12
9.01
9.04
9.38
10.03
10.78
11.33
11.53
11.39
11.05
10.67
10.24
9.64
8.67
7.29
5.57
3.72
1.98
0.46
-0.87
-2.14
-3.54
-5.16
-7.00
-8.95
-10.96
-13.00
-15.17
-17.53
-20.00
-22.29
-23.88
-24.18
-22.77
-19.64
-15.18
-10.15
-5.37
-1.45
1.40
3.33
4.72
5.96
7.21
8.45
9.50
10.22
10.59
10.75
10.86
11.08
11.46
11.89
12.27
12.47
12.47
12.29
11.97
11.50
10.83
9.87
8.48
6.66
4.45
2.06
-0.29
-2.45
-4.33
-6.00
-7.59
-9.24
-11.01
-12.89
-14.82
-16.78
-18.82
-20.89
-22.93
-24.74
-26.00
-26.38
-25.61
-23.62
-20.48
-16.49
-12.03
-7.55
-3.46
0.04
2.84
5.00
6.65
7.88
8.73
9.24
9.50
9.60
9.77
10.15
10.83
11.79
12.90
13.95
14.76
15.12
14.95
14.26
13.16
11.83
10.40
8.89
7.25
5.39
3.28
1.06
-0.99
-2.66
-3.83
-4.69
-5.56
-6.80
-8.63
-11.09
-13.99
-17.01
-19.80
-21.99
-23.23
-23.27
-21.92
-19.24
-15.48
-11.07
-6.53
-2.27
1.46
4.59
7.20
9.35
11.06
12.27
12.93
13.10
12.96
12.77
12.77
13.07
13.59
14.15
14.58
14.77
14.73
14.47
14.02
13.38
12.49
11.32
9.82
7.98
5.86
3.60
1.35
-0.70
-2.48
-4.06
-5.62
-7.39
-9.44
-11.79
-14.34
-17.00
-19.67
-22.27
-24.56
-26.15
-26.57
-25.41
-22.57
-18.28
-13.08
-7.63
-2.50
1.93
5.56
8.38
10.48
11.93
12.75
13.02
12.79
12.26
11.62
11.10
10.81
10.77
10.89
11.01
11.07
11.09
11.19
11.49
12.01
12.58
12.96
12.91
12.39
11.53
10.58
9.69
8.86
7.94
6.73
5.17
3.35
1.48
-0.23
-1.75
-3.24
-4.95
-7.05
-9.63
-12.64
-15.88
-19.08
-21.88
-23.88
-24.66
-23.96
-21.72
-18.16
-13.74
-9.02
-4.49
-0.46
2.90
5.63
7.74
9.28
10.27
10.77
10.91
10.87
10.85
10.98
11.27
11.67
12.08
12.43
12.74
13.08
13.52
14.06
14.55
14.75
14.47
13.62
12.30
10.69
8.99
7.26
5.55
3.81
2.07
0.34
-1.31
-2.91
-4.53
-6.27
-8.21
-10.37
-12.75
-15.34
-18.12
-21.04
-23.88
-26.18
-27.38
-26.96
-24.66
-20.65
-15.47
-9.81
-4.35
0.51
4.61
8.05
10.96
13.45
15.53
17.14
18.21
18.72
18.76
18.53
18.30
18.23
18.38
18.66
18.85
18.72
18.19
17.31
16.26
15.25
14.38
13.62
12.82
11.79
10.38
8.63
6.70
4.80
3.15
1.88
0.96
0.28
-0.31
-0.96
-1.77
-2.85
-4.25
-5.95
-7.87
-9.84
-11.64
-13.00
-13.62
-13.21
-11.49
-8.34
-3.76
2.04
8.74
15.96
23.23
29.90
35.04
37.57
36.60
31.87
24.07
14.73
5.75
-1.32
-5.74
-7.71
-8.02
-7.58
-7.01
-6.54
-6.18
-5.91
-5.73
-5.69
-5.78
-5.92
-5.91
-5.64
-5.02
-4.09
-2.93
-1.73
-0.69
-0.04
0.04
-0.59
-1.87
-3.53
-5.23
-6.57
-7.34
-7.59
-7.57
-7.56
-7.76
-8.22
-8.87
-9.70
-10.75
-12.13
-13.79
-15.46
-16.58
-16.53
-14.84
-11.46
-6.77
-1.48
3.68
8.13
11.62
14.19
16.00
17.30
18.23
18.88
19.27
19.38
19.15
18.58
17.68
16.54
15.26
14.01
12.95
12.19
11.79
11.71
11.84
12.02
12.10
11.98
11.59
10.93
10.00
8.84
7.47
5.92
4.25
2.54
0.96
-0.37
-1.39
-2.14
-2.79
-3.60
-4.80
-6.53
-8.79
-11.42
-14.26
-17.07
-19.61
-21.54
-22.49
-22.08
-20.05
-16.42
-11.51
-5.89
-0.16
5.13
9.65
13.24
15.83
17.45
18.19
18.16
17.56
16.55
15.24
13.62
11.68
9.44
7.02
4.61
2.36
0.33
-1.48
-3.13
-4.58
-5.78
-6.66
-7.29
-7.85
-8.61
-9.77
-11.34
-13.21
-15.17
-17.03
-18.66
-19.97
-20.88
-21.35
-21.44
-21.39
-21.51
-22.09
-23.21
-24.68
-26.10
-26.96
-26.87
-25.66
-23.37
-20.19
-16.38
-12.21
-7.97
-3.96
-0.47
2.20
3.95
4.84
5.11
5.11
5.11
5.25
5.46
5.61
5.59
5.39
5.13
4.93
4.87
4.91
4.96
4.90
4.66
4.30
3.88
3.47
3.03
2.45
1.57
0.29
-1.37
-3.27
-5.16
-6.86
-8.37
-9.83
-11.44
-13.33
-15.46
-17.55
-19.22
-20.06
-19.81
-18.40
-15.93
-12.64
-8.86
-4.95
-1.25
1.96
4.51
6.36
7.56
8.22
8.44
8.38
8.13
7.83
7.60
7.56
7.73
8.10
8.59
9.04
9.33
9.40
9.24
8.91
8.44
7.83
7.05
6.06
4.87
3.55
2.23
1.04
0.03
-0.87
-1.78
-2.84
-4.16
-5.78
-7.67
-9.82
-12.16
-14.63
-17.04
-19.11
-20.48
-20.81
-19.88
-17.63
-14.30
-10.31
-6.18
-2.42
0.63
2.90
4.48
5.62
6.58
7.52
8.49
9.50
10.49
11.44
12.27
12.87
13.17
13.13
12.80
12.26
11.58
10.76
9.76
8.57
7.23
5.82
4.43
3.09
1.76
0.40
-1.04
-2.50
-3.85
-5.03
-6.03
-6.99
-8.11
-9.53
-11.28
-13.29
-15.42
-17.47
-19.23
-20.40
-20.72
-19.90
-17.79
-14.47
-10.25
-5.66
-1.29
2.43
5.29
7.32
8.67
9.55
10.08
10.36
10.49
10.61
10.87
11.42
12.27
13.25
14.10
14.55
14.45
13.82
12.87
11.88
11.07
10.53
10.13
9.64
8.82
7.58
5.96
4.14
2.27
0.42
-1.44
-3.38
-5.37
-7.31
-9.05
-10.44
-11.53
-12.46
-13.49
-14.89
-16.71
-18.77
-20.72
-22.04
-22.28
-21.14
-18.60
-14.87
-10.36
-5.57
-0.93
3.18
6.53
8.96
10.43
10.98
10.80
10.19
9.52
9.10
9.17
9.71
10.57
11.47
12.19
12.63
12.87
13.10
13.46
13.99
14.57
14.97
14.96
14.39
13.25
11.64
9.79
7.92
6.16
4.53
2.98
1.39
-0.32
-2.11
-3.89
-5.55
-6.97
-8.15
-9.17
-10.17
-11.31
-12.71
-14.43
-16.44
-18.65
-20.86
-22.78
-24.09
-24.46
-23.68
-21.70
-18.65
-14.83
-10.65
-6.51
-2.71
0.59
3.35
5.58
7.35
8.70
9.65
10.21
10.44
10.37
10.07
9.64
9.20
8.84
8.68
8.78
9.13
9.64
10.14
10.45
10.39
9.91
9.03
7.88
6.63
5.42
4.33
3.35
2.47
1.63
0.84
0.05
-0.79
-1.76
-2.89
-4.17
-5.56
-6.99
-8.48
-10.12
-12.03
-14.19
-16.38
-18.20
-19.16
-18.89
-17.28
-14.49
-10.88
-6.86
-2.80
1.07
4.55
7.50
9.78
11.32
12.10
12.23
11.93
11.47
11.08
10.89
10.91
11.03
11.11
11.04
10.80
10.44
10.09
9.88
9.83
9.86
9.75
9.31
8.40
7.05
5.43
3.79
2.31
1.07
0.01
-1.02
-2.18
-3.53
-5.09
-6.85
-8.83
-11.04
-13.45
-15.89
-18.10
-19.73
-20.42
-19.91
-18.10
-15.07
-11.06
-6.36
-1.35
3.60
8.10
11.77
14.36
15.86
16.45
16.51
16.48
16.65
17.11
17.74
18.30
18.56
18.44
18.01
17.47
17.08
17.11
17.74
19.00
20.70
22.35
23.24
22.59
19.81
14.72
7.61
-0.80
-9.60
-17.93
-25.17
-30.97
-35.29
-38.25
-40.15
-41.39
-42.43
-43.72
-45.53
-47.78
-49.99
-51.45
-51.39
-49.28
-44.99
-38.87
-31.56
-23.77
-16.15
-9.10
-2.85
2.50
6.91
10.40
13.01
14.83
15.99
16.66
16.99
17.15
17.30
17.52
17.85
18.24
18.62
18.91
19.08
19.16
19.12
18.89
18.31
17.30
15.84
14.11
12.37
10.85
9.64
8.68
7.77
6.73
5.47
3.99
2.39
0.76
-0.86
-2.52
-4.32
-6.36
-8.76
-11.56
-14.72
-18.09
-21.34
-24.01
-25.58
-25.62
-23.94
-20.73
-16.44
-11.69
-6.97
-2.56
1.45
5.11
8.36
11.02
12.83
13.64
13.51
12.73
11.71
10.83
10.29
10.12
10.18
10.29
10.32
10.25
10.14
10.06
10.05
10.09
10.06
9.83
9.34
8.55
7.51
6.29
4.95
3.57
2.23
1.01
-0.04
-0.92
-1.70
-2.50
-3.54
-4.99
-7.06
-9.87
-13.32
-17.08
-20.55
-22.95
-23.67
-22.43
-19.40
-15.18
-10.48
-5.89
-1.75
1.85
4.94
7.57
9.66
11.12
11.89
12.08
11.93
11.75
11.75
12.00
12.37
12.66
12.74
12.59
12.32
12.07
11.87
11.66
11.27
10.48
9.12
7.22
4.84
2.23
-0.33
-2.54
-4.20
-5.22
-5.73
-6.04
-6.50
-7.42
-8.98
-11.17
-13.83
-16.68
-19.39
-21.58
-22.84
-22.83
-21.37
-18.47
-14.44
-9.74
-4.93
-0.47
3.32
6.28
8.43
9.92
10.96
11.74
12.43
13.05
13.56
13.88
13.95
13.83
13.59
13.37
13.24
13.19
13.14
12.96
12.56
11.90
11.07
10.19
9.36
8.63
7.92
7.11
6.01
4.53
2.69
0.60
-1.59
-3.79
-5.93
-8.01
-10.02
-11.95
-13.75
-15.48
-17.28
-19.30
-21.68
-24.30
-26.77
-28.51
-28.92
-27.59
-24.51
-20.05
-14.82
-9.51
-4.64
-0.50
2.89
5.69
8.08
10.13
11.84
13.13
13.95
14.34
14.44
14.38
14.31
14.26
14.20
14.13
14.09
14.17
14.42
14.73
14.88
14.60
13.73
12.32
10.61
8.98
7.67
6.77
6.16
5.59
4.87
3.86
2.56
1.00
-0.80
-2.82
-5.00
-7.25
-9.52
-11.78
-14.15
-16.74
-19.61
-22.60
-25.30
-27.20
-27.78
-26.73
-24.05
-20.04
-15.21
-10.10
-5.24
-1.04
2.27
4.68
6.31
7.46
8.39
9.27
10.16
11.02
11.83
12.61
13.48
14.45
15.50
16.42
16.97
16.96
16.31
15.17
13.75
12.28
10.90
9.62
8.39
7.14
5.81
4.36
2.78
1.08
-0.73
-2.59
-4.40
-6.07
-7.54
-8.86
-10.19
-11.76
-13.78
-16.36
-19.40
-22.60
-25.47
-27.47
-28.06
-26.94
-24.08
-19.80
-14.68
-9.38
-4.50
-0.40
2.81
5.26
7.13
8.55
9.60
10.26
10.51
10.39
10.04
9.62
9.31
9.14
9.11
9.10
9.00
8.79
8.51
8.31
8.28
8.42
8.60
8.59
8.17
7.21
5.76
4.01
2.22
0.60
-0.77
-1.97
-3.16
-4.51
-6.16
-8.18
-10.54
-13.21
-16.03
-18.76
-21.05
-22.49
-22.80
-21.84
-19.71
-16.69
-13.06
-9.10
-4.98
-0.83
3.18
6.80
9.73
11.71
12.61
12.53
11.82
10.96
10.43
10.51
11.15
12.11
12.98
13.49
13.59
13.44
13.30
13.29
13.36
13.26
12.73
11.57
9.75
7.45
4.88
2.24
-0.29
-2.67
-4.85
-6.86
-8.78
-10.70
-12.76
-15.05
-17.57
-20.21
-22.70
-24.63
-25.58
-25.14
-23.12
-19.55
-14.78
-9.38
-4.01
0.78
4.69
7.70
10.02
11.89
13.48
14.75
15.60
15.91
15.71
15.14
14.48
13.97
13.71
13.69
13.78
13.82
13.70
13.37
12.86
12.17
11.27
10.08
8.53
6.60
4.36
1.97
-0.38
-2.55
-4.52
-6.30
-8.01
-9.73
-11.57
-13.62
-15.91
-18.36
-20.74
-22.71
-23.87
-23.94
-22.73
-20.29
-16.81
-12.56
-7.96
-3.43
0.65
4.06
6.73
8.77
10.26
11.23
11.66
11.56
11.17
10.81
10.89
11.58
12.78
14.07
15.05
15.44
15.25
14.67
13.91
13.08
12.16
11.07
9.78
8.32
6.78
5.19
3.57
1.90
0.17
-1.60
-3.33
-4.99
-6.60
-8.27
-10.19
-12.53
-15.30
-18.37
-21.36
-23.76
-25.03
-24.75
-22.71
-19.04
-14.13
-8.58
-3.06
1.90
6.02
9.35
12.10
14.52
16.73
18.67
20.24
21.37
22.17
22.94
23.98
25.53
27.67
30.33
33.33
36.37
38.94
40.36
40.00
37.42
32.70
26.39
19.33
12.39
6.14
0.75
-3.85
-7.89
-11.57
-15.04
-18.46
-22.00
-25.81
-29.91
-34.21
-38.45
-42.34
-45.71
-48.45
-50.54
-51.90
-52.37
-51.66
-49.58
-46.01
-41.18
-35.48
-29.47
-23.62
-18.20
-13.33
-8.99
-5.19
-1.98
0.56
2.46
3.86
5.02
6.17
7.46
8.91
10.44
11.95
13.33
14.57
15.67
16.63
17.45
18.05
18.35
18.26
17.78
16.95
15.89
14.71
13.47
12.16
10.70
9.04
7.20
5.28
3.36
1.52
-0.31
-2.24
-4.42
-6.96
-9.91
-13.27
-16.91
-20.60
-23.90
-26.21
-26.92
-25.62
-22.29
-17.37
-11.63
-5.90
-0.84
3.27
6.46
8.93
10.89
12.46
13.71
14.71
15.52
16.25
16.95
17.62
18.22
18.71
19.08
19.37
19.58
19.66
19.51
19.04
18.21
17.10
15.88
14.67
13.49
12.22
10.65
8.65
6.24
3.65
1.18
-0.94
-2.66
-4.11
-5.56
-7.20
-9.16
-11.50
-14.18
-17.15
-20.24
-23.15
-25.45
-26.62
-26.23
-24.04
-20.22
-15.27
-9.86
-4.74
-0.39
3.00
5.52
7.42
8.93
10.15
11.05
11.62
11.90
12.01
12.07
12.16
12.25
12.27
12.22
12.16
12.18
12.30
12.43
12.47
12.36
12.10
11.77
11.35
10.73
9.67
8.05
5.92
3.57
1.34
-0.50
-1.94
-3.19
-4.49
-6.07
-7.99
-10.18
-12.57
-15.17
-18.02
-21.05
-23.94
-26.10
-26.87
-25.75
-22.64
-17.99
-12.57
-7.19
-2.42
1.56
4.83
7.51
9.66
11.18
12.00
12.19
11.99
11.71
11.62
11.83
12.24
12.70
13.14
13.49
13.80
14.05
14.17
14.05
13.61
12.85
11.83
10.63
9.25
7.71
5.99
4.17
2.34
0.60
-1.07
-2.75
-4.61
-6.69
-8.94
-11.16
-13.20
-15.02
-16.80
-18.73
-20.90
-23.13
-24.97
-25.80
-25.13
-22.75
-18.80
-13.73
-8.08
-2.38
2.94
7.58
11.35
14.11
15.83
16.57
16.49
15.84
14.88
13.78
12.68
11.61
10.60
9.68
8.92
8.37
8.12
8.21
8.59
9.17
9.72
9.99
9.77
8.95
7.55
5.75
3.72
1.64
-0.35
-2.19
-3.88
-5.48
-7.13
-9.04
-11.39
-14.30
-17.65
-21.11
-24.19
-26.28
-26.90
-25.76
-22.86
-18.52
-13.31
-7.83
-2.65
1.85
5.51
8.32
10.32
11.58
12.16
12.16
11.77
11.23
10.78
10.58
10.67
11.01
11.46
11.90
12.21
12.38
12.38
12.28
12.07
11.71
11.11
10.13
8.69
6.82
4.67
2.49
0.49
-1.20
-2.59
-3.83
-5.13
-6.71
-8.76
-11.34
-14.37
-17.60
-20.59
-22.81
-23.79
-23.24
-21.12
-17.71
-13.44
-8.80
-4.22
-0.02
3.58
6.42
8.39
9.44
9.66
9.31
8.82
8.61
8.97
9.93
11.23
12.46
13.26
13.41
12.99
12.21
11.32
10.50
9.73
8.95
8.03
6.89
5.56
4.12
2.66
1.23
-0.23
-1.82
-3.58
-5.48
-7.40
-9.23
-10.97
-12.76
-14.82
-17.34
-20.26
-23.30
-25.96
-27.67
-27.99
-26.75
-24.03
-20.16
-15.58
-10.76
-6.10
-1.86
1.82
4.87
7.27
8.99
10.03
10.46
10.51
10.48
10.65
11.22
12.19
13.37
14.46
15.14
15.25
14.78
13.91
12.89
11.95
11.20
10.66
10.24
9.79
9.19
8.29
7.03
5.39
3.47
1.36
-0.80
-2.93
-5.03
-7.11
-9.24
-11.52
-14.06
-17.00
-20.37
-24.07
-27.69
-30.61
-32.09
-31.53
-28.74
-24.01
-18.04
-11.64
-5.60
-0.41
3.69
6.71
8.79
10.18
11.16
11.92
12.60
13.23
13.80
14.25
14.60
14.87
15.09
15.27
15.37
15.33
15.13
14.77
14.32
13.85
13.39
12.91
12.33
11.44
10.15
8.37
6.18
3.76
1.32
-0.96
-3.04
-4.94
-6.84
-8.89
-11.29
-14.16
-17.53
-21.27
-25.08
-28.43
-30.71
-31.43
-30.32
-27.44
-23.13
-17.95
-12.39
-6.96
-2.00
2.24
5.62
8.14
9.89
11.05
11.83
12.38
12.72
12.83
12.72
12.49
12.31
12.31
12.51
12.82
13.11
13.26
13.29
13.29
13.34
13.43
13.45
13.18
12.45
11.17
9.46
7.57
5.87
4.62
3.98
3.80
3.72
3.22
1.89
-0.33
-3.09
-5.66
-7.17
-6.86
-4.36
0.28
6.51
13.39
19.73
24.31
26.17
24.86
20.65
14.35
7.14
0.20
-5.66
-10.06
-13.07
-15.03
-16.34
-17.34
-18.27
-19.24
-20.30
-21.39
-22.27
-22.65
-22.17
-20.57
-17.81
-14.16
-10.18
-6.55
-3.87
-2.38
-1.91
-1.96
-1.95
-1.50
-0.61
0.36
0.91
0.56
-0.81
-2.99
-5.54
-7.96
-9.94
-11.27
-11.83
-11.52
-10.19
-7.76
-4.31
-0.13
4.31
8.51
12.15
15.15
17.61
19.66
21.35
22.61
23.28
23.30
22.80
22.11
21.61
21.59
22.08
22.85
23.51
23.72
23.34
22.46
21.37
20.37
19.61
19.03
18.44
17.56
16.20
14.29
11.86
9.03
5.94
2.73
-0.53
-3.84
-7.28
-10.98
-15.05
-19.48
-24.08
-28.45
-32.07
-34.39
-35.04
-33.86
-31.03
-26.93
-22.09
-17.09
-12.41
-8.35
-5.06
-2.56
-0.78
0.43
1.24
1.83
2.36
3.01
3.85
4.87
6.00
7.08
7.93
8.43
8.53
8.27
7.78
7.14
6.38
5.44
4.22
2.65
0.75
-1.34
-3.38
-5.17
-6.59
-7.68
-8.58
-9.51
-10.68
-12.21
-14.11
-16.32
-18.64
-20.88
-22.75
-23.93
-24.08
-22.91
-20.26
-16.28
-11.37
-6.14
-1.23
2.92
6.17
8.59
10.38
11.71
12.66
13.23
13.42
13.33
13.10
12.89
12.81
12.83
12.92
12.97
12.93
12.70
12.24
11.47
10.33
8.89
7.30
5.70
4.22
2.88
1.60
0.29
-1.11
-2.56
-3.96
-5.28
-6.59
-8.07
-9.91
-12.18
-14.80
-17.50
-19.88
-21.56
-22.29
-21.94
-20.57
-18.34
-15.45
-12.13
-8.59
-4.97
-1.41
1.93
4.90
7.31
9.03
9.98
10.22
9.91
9.34
8.80
8.51
8.58
8.97
9.53
10.11
10.59
10.91
11.07
11.04
10.79
10.29
9.51
8.45
7.17
5.74
4.25
2.79
1.37
0.00
-1.40
-2.94
-4.73
-6.83
-9.19
-11.73
-14.36
-17.00
-19.58
-22.00
-24.02
-25.28
-25.41
-24.12
-21.38
-17.41
-12.70
-7.78
-3.14
0.91
4.24
6.87
8.87
10.27
11.08
11.34
11.10
10.54
9.92
9.53
9.57
10.09
10.91
11.81
12.51
12.84
12.76
12.35
11.68
10.80
9.68
8.26
6.53
4.56
2.47
0.41
-1.59
-3.55
-5.58
-7.78
-10.23
-12.90
-15.71
-18.50
-20.97
-22.74
-23.41
-22.63
-20.30
-16.60
-11.96
-6.94
-2.04
2.44
6.32
9.53
12.02
13.73
14.63
14.76
14.34
13.66
13.03
12.66
12.57
12.61
12.57
12.26
11.66
10.90
10.26
9.97
10.02
10.19
10.06
9.26
7.64
5.38
2.90
0.62
-1.18
-2.56
-3.80
-5.29
-7.33
-10.05
-13.33
-16.91
-20.32
-23.00
-24.42
-24.19
-22.15
-18.41
-13.36
-7.47
-1.24
4.95
10.77
15.97
20.35
23.79
26.30
28.06
29.30
30.23
31.02
31.73
32.39
33.12
34.02
35.11
36.17
36.67
35.96
33.43
28.86
22.41
14.56
5.89
-3.15
-12.21
-21.00
-29.17
-36.36
-42.22
-46.62
-49.67
-51.70
-53.13
-54.33
-55.59
-57.06
-58.73
-60.44
-61.82
-62.35
-61.57
-59.19
-55.24
-50.00
-43.87
-37.16
-30.02
-22.52
-14.75
-6.93
0.49
6.98
12.14
15.82
18.15
19.54
20.43
21.15
21.81
22.41
22.88
23.21
23.53
23.96
24.55
25.18
25.60
25.52
24.75
23.31
21.39
19.22
17.01
14.86
12.74
10.62
8.44
6.14
3.72
1.18
-1.41
-3.92
-6.21
-8.23
-10.06
-11.94
-14.19
-16.98
-20.20
-23.36
-25.77
-26.74
-25.88
-23.21
-19.08
-14.02
-8.48
-2.82
2.70
7.84
12.24
15.51
17.38
17.87
17.31
16.30
15.43
15.07
15.29
15.86
16.46
16.81
16.79
16.41
15.76
14.91
13.95
12.92
11.85
10.76
9.68
8.56
7.37
6.04
4.53
2.79
0.85
-1.26
-3.41
-5.48
-7.40
-9.23
-11.10
-13.21
-15.66
-18.34
-20.91
-22.82
-23.54
-22.66
-20.09
-16.05
-10.98
-5.49
-0.10
4.76
8.83
12.02
14.34
15.93
16.95
17.57
17.93
18.12
18.18
18.14
18.02
17.82
17.57
17.19
16.58
15.69
14.54
13.28
12.11
11.19
10.48
9.77
8.71
7.02
4.62
1.71
-1.31
-4.06
-6.28
-8.00
-9.40
-10.85
-12.64
-14.98
-17.90
-21.25
-24.70
-27.75
-29.83
-30.38
-29.02
-25.71
-20.77
-14.84
-8.66
-2.88
2.09
6.13
9.35
11.89
13.89
15.39
16.47
17.21
17.81
18.45
19.25
20.17
21.03
21.67
22.05
22.31
22.70
23.42
24.50
25.72
26.69
27.00
26.42
24.94
22.82
20.44
18.22
16.49
15.40
14.88
14.45
13.26
10.24
4.43
-4.47
-15.92
-28.53
-40.53
-50.35
-57.12
-60.68
-61.41
-59.80
-56.22
-50.90
-44.10
-36.31
-28.20
-20.45
-13.57
-7.77
-3.01
0.80
3.76
5.92
7.40
8.32
8.91
9.38
9.92
10.60
11.37
12.13
12.72
13.01
12.94
12.53
11.85
11.07
10.35
9.83
9.50
9.27
8.89
8.07
6.62
4.51
1.92
-0.83
-3.40
-5.59
-7.43
-9.10
-10.83
-12.85
-15.27
-18.10
-21.25
-24.45
-27.31
-29.28
-29.79
-28.46
-25.22
-20.38
-14.53
-8.41
-2.62
2.43
6.58
9.86
12.36
14.15
15.26
15.74
15.70
15.33
14.89
14.61
14.66
15.05
15.68
16.37
16.97
17.34
17.42
17.21
16.73
15.99
14.98
13.66
11.94
9.82
7.34
4.70
2.08
-0.29
-2.30
-4.02
-5.56
-7.14
-8.94
-11.13
-13.80
-16.97
-20.47
-23.97
-26.97
-28.87
-29.20
-27.66
-24.31
-19.47
-13.68
-7.57
-1.72
3.40
7.53
10.59
12.67
13.92
14.52
14.65
14.46
14.12
13.80
13.66
13.77
14.13
14.65
15.16
15.55
15.69
15.55
15.10
14.33
13.24
11.85
10.25
8.53
6.78
5.01
3.16
1.16
-1.01
-3.28
-5.55
-7.74
-9.84
-11.98
-14.36
-17.10
-20.13
-23.11
-25.46
-26.55
-25.86
-23.27
-18.96
-13.51
-7.57
-1.72
3.62
8.27
12.15
15.20
17.32
18.46
18.64
18.02
16.93
15.71
14.67
13.98
13.63
13.52
13.53
13.55
13.55
13.49
13.33
12.97
12.31
11.32
10.02
8.50
6.87
5.21
3.55
1.84
0.06
-1.83
-3.80
-5.82
-7.84
-9.90
-12.11
-14.61
-17.58
-21.06
-24.92
-28.75
-31.97
-33.94
-34.14
-32.32
-28.59
-23.36
-17.19
-10.69
-4.39
1.31
6.12
9.91
12.69
14.61
15.91
16.85
17.60
18.18
18.56
18.63
18.36
17.82
17.14
16.42
15.73
15.06
14.41
13.76
13.08
12.29
11.26
9.81
7.87
5.45
2.74
0.02
-2.49
-4.62
-6.36
-7.78
-9.04
-10.35
-11.89
-13.85
-16.28
-19.10
-22.04
-24.64
-26.40
-26.90
-25.84
-23.22
-19.24
-14.31
-8.95
-3.65
1.20
5.38
8.83
11.56
13.58
14.90
15.54
15.55
15.10
14.40
13.73
13.31
13.25
13.49
13.94
14.42
14.82
15.06
15.18
15.18
15.09
14.87
14.44
13.77
12.80
11.52
9.87
7.79
5.28
2.42
-0.56
-3.43
-5.98
-8.21
-10.32
-12.63
-15.38
-18.70
-22.44
-26.23
-29.57
-31.91
-32.71
-31.61
-28.55
-23.81
-17.99
-11.80
-5.95
-0.91
3.09
6.07
8.12
9.39
10.00
10.11
9.93
9.71
9.68
10.00
10.73
11.74
12.81
13.61
13.92
13.61
12.78
11.71
10.73
10.05
9.65
9.31
8.68
7.49
5.73
3.62
1.51
-0.28
-1.65
-2.71
-3.72
-4.95
-6.55
-8.52
-10.82
-13.40
-16.21
-19.10
-21.75
-23.63
-24.15
-22.89
-19.84
-15.41
-10.29
-5.18
-0.54
3.45
6.82
9.64
11.89
13.48
14.34
14.54
14.33
14.01
13.81
13.80
13.89
13.96
13.96
13.91
13.89
13.90
13.88
13.62
12.99
11.89
10.38
8.64
6.86
5.23
3.80
2.58
1.50
0.47
-0.64
-1.98
-3.70
-5.99
-8.97
-12.65
-16.82
-21.03
-24.67
-27.12
-27.94
-26.94
-24.30
-20.37
-15.64
-10.61
-5.73
-1.32
2.40
5.30
7.38
8.69
9.41
9.76
9.96
10.21
10.59
11.15
11.82
12.48
13.01
13.34
13.47
13.43
13.32
13.16
12.93
12.57
11.96
10.99
9.61
7.86
5.85
3.75
1.66
-0.36
-2.33
-4.31
-6.36
-8.54
-10.91
-13.58
-16.61
-19.99
-23.50
-26.69
-28.90
-29.51
-28.11
-24.70
-19.73
-13.94
-8.12
-2.88
1.49
4.99
7.73
9.84
11.34
12.19
12.44
12.21
11.74
11.34
11.24
11.48
11.98
12.53
12.96
13.19
13.23
13.19
13.13
13.09
12.95
12.57
11.81
10.60
9.00
7.10
5.09
3.04
0.96
-1.17
-3.45
-5.87
-8.40
-10.91
-13.33
-15.65
-18.01
-20.54
-23.26
-25.95
-28.12
-29.14
-28.51
-25.98
-21.74
-16.31
-10.35
-4.55
0.61
4.83
8.01
10.20
11.52
12.18
12.37
12.31
12.19
12.13
12.19
12.36
12.61
12.91
13.24
13.52
13.72
13.73
13.46
12.86
11.92
10.73
9.37
7.87
6.19
4.21
1.86
-0.82
-3.57
-6.08
-8.11
-9.59
-10.73
-11.89
-13.40
-15.48
-18.08
-20.94
-23.66
-25.84
-27.13
-27.29
-26.17
-23.72
-20.01
-15.30
-9.94
-4.44
0.72
5.16
8.67
11.23
12.93
13.92
14.30
14.23
13.81
13.21
12.63
12.19
11.99
12.03
12.27
12.62
13.02
13.30
13.36
13.06
12.29
11.01
9.25
7.13
4.85
2.68
0.81
-0.63
-1.72
-2.66
-3.73
-5.17
-7.11
-9.57
-12.43
-15.57
-18.73
-21.54
-23.53
-24.21
-23.26
-20.66
-16.73
-12.01
-7.08
-2.38
1.84
5.48
8.48
10.82
12.46
13.48
14.02
14.27
14.42
14.54
14.66
14.75
14.76
14.65
14.35
13.80
12.92
11.74
10.28
8.66
7.00
5.38
3.83
2.31
0.80
-0.76
-2.33
-3.90
-5.42
-6.89
-8.36
-10.02
-12.03
-14.47
-17.28
-20.24
-22.96
-25.03
-26.11
-25.96
-24.44
-21.58
-17.55
-12.66
-7.27
-1.78
3.38
7.83
11.25
13.44
14.41
14.36
13.71
12.89
12.24
11.89
11.79
11.77
11.71
11.60
11.50
11.49
11.60
11.80
12.03
12.21
12.21
11.85
10.94
9.35
7.14
4.54
1.93
-0.40
-2.32
-3.95
-5.53
-7.33
-9.51
-12.18
-15.33
-18.89
-22.64
-26.17
-28.88
-30.17
-29.63
-27.14
-22.96
-17.66
-11.93
-6.39
-1.50
2.47
5.52
7.79
9.50
10.80
11.73
12.24
12.27
11.92
11.43
11.13
11.27
11.89
12.80
13.70
14.28
14.41
14.09
13.47
12.69
11.85
10.95
9.88
8.57
7.05
5.37
3.69
2.15
0.81
-0.40
-1.63
-3.06
-4.85
-7.10
-9.82
-12.94
-16.34
-19.77
-22.90
-25.32
-26.63
-26.54
-24.96
-22.02
-18.04
-13.45
-8.67
-4.09
0.01
3.41
5.97
7.64
8.47
8.66
8.46
8.19
8.10
8.31
8.80
9.46
10.20
10.92
11.54
11.99
12.17
12.01
11.48
10.66
9.72
8.73
7.72
6.58
5.14
3.36
1.34
-0.68
-2.46
-3.92
-5.21
-6.64
-8.55
-11.11
-14.28
-17.74
-21.06
-23.78
-25.51
-25.98
-25.04
-22.65
-18.93
-14.18
-8.86
-3.54
1.30
5.31
8.37
10.51
11.87
12.52
12.54
12.01
11.10
10.10
9.33
9.05
9.28
9.84
10.43
10.81
10.94
10.90
10.86
10.81
10.60
9.92
8.54
6.47
3.95
1.40
-0.85
-2.63
-4.08
-5.47
-7.15
-9.33
-12.10
-15.30
-18.67
-21.77
-24.20
-25.57
-25.69
-24.50
-22.10
-18.62
-14.26
-9.23
-3.91
1.28
5.82
9.36
11.76
13.12
13.75
13.93
13.90
13.70
13.37
12.94
12.48
12.10
11.83
11.58
11.24
10.70
9.93
9.04
8.17
7.44
6.83
6.19
5.33
4.12
2.54
0.73
-1.12
-2.83
-4.34
-5.75
-7.25
-9.06
-11.37
-14.23
-17.56
-21.09
-24.42
-27.04
-28.41
-28.17
-26.18
-22.61
-17.91
-12.67
-7.44
-2.66
1.45
4.86
7.63
9.81
11.43
12.51
13.09
13.30
13.33
13.44
13.82
14.48
15.31
16.09
16.63
16.85
16.77
16.47
15.99
15.30
14.30
12.91
11.10
8.90
6.41
3.73
0.99
-1.64
-3.98
-5.88
-7.34
-8.50
-9.68
-11.26
-13.49
-16.46
-19.97
-23.66
-27.00
-29.49
-30.70
-30.33
-28.28
-24.65
-19.74
-13.95
-7.80
-1.85
3.45
7.78
10.98
13.16
14.48
15.16
15.41
15.37
15.13
14.81
14.50
14.23
14.04
13.86
13.63
13.30
12.87
12.36
11.83
11.30
10.70
9.91
8.79
7.24
5.29
3.03
0.64
-1.67
-3.73
-5.47
-6.92
-8.22
-9.58
-11.25
-13.45
-16.26
-19.54
-22.88
-25.74
-27.50
-27.73
-26.25
-23.17
-18.83
-13.67
-8.18
-2.78
2.17
6.45
9.97
12.78
14.99
16.69
17.95
18.80
19.23
19.34
19.25
19.12
19.03
19.03
19.12
19.31
19.55
19.78
19.84
19.54
18.76
17.50
15.98
14.46
13.13
12.03
11.02
9.89
8.60
7.20
5.87
4.75
3.85
3.06
2.31
1.53
0.72
-0.24
-1.65
-4.00
-7.67
-12.62
-18.25
-23.51
-27.30
-28.95
-28.46
-26.43
-23.72
-21.03
-18.72
-16.83
-15.23
-13.88
-12.80
-11.96
-11.26
-10.39
-8.98
-6.80
-3.83
-0.36
3.12
6.04
8.04
9.06
9.31
9.18
8.99
8.89
8.79
8.46
7.74
6.58
5.09
3.44
1.80
0.22
-1.36
-3.01
-4.93
-7.23
-10.02
-13.27
-16.85
-20.48
-23.86
-26.70
-28.71
-29.61
-29.16
-27.18
-23.65
-18.79
-13.01
-6.92
-1.11
3.99
8.12
11.23
13.44
14.90
15.79
16.24
16.39
16.34
16.29
16.42
16.87
17.66
18.59
19.37
19.68
19.33
18.34
16.92
15.37
13.88
12.50
11.12
9.59
7.85
5.87
3.75
1.59
-0.53
-2.59
-4.56
-6.43
-8.25
-10.11
-12.18
-14.65
-17.62
-21.02
-24.53
-27.55
-29.42
-29.57
-27.75
-24.11
-19.12
-13.48
-7.80
-2.55
2.06
6.00
9.29
11.93
13.87
15.10
15.68
15.79
15.67
15.60
15.68
15.93
16.23
16.42
16.40
16.11
15.58
14.93
14.30
13.78
13.41
13.07
12.50
11.49
9.92
7.94
5.86
3.97
2.41
1.06
-0.35
-2.13
-4.40
-7.12
-10.15
-13.35
-16.72
-20.23
-23.76
-26.96
-29.30
-30.19
-29.22
-26.32
-21.77
-16.18
-10.22
-4.53
0.47
4.64
7.96
10.47
12.24
13.29
13.70
13.65
13.41
13.29
13.50
14.05
14.80
15.52
16.00
16.18
16.06
15.72
15.22
14.55
13.64
12.41
10.87
9.01
6.94
4.76
2.57
0.45
-1.60
-3.61
-5.66
-7.79
-10.03
-12.37
-14.78
-17.27
-19.86
-22.50
-25.03
-27.13
-28.33
-28.21
-26.48
-23.17
-18.61
-13.31
-7.85
-2.65
2.02
6.01
9.22
11.58
12.96
13.38
13.02
12.22
11.44
11.04
11.18
11.77
12.55
13.24
13.68
13.82
13.73
13.51
13.17
12.68
11.96
10.98
9.72
8.19
6.42
4.47
2.38
0.21
-1.95
-4.06
-6.06
-7.96
-9.81
-11.76
-14.00
-16.66
-19.73
-22.95
-25.79
-27.56
-27.65
-25.74
-21.94
-16.80
-11.03
-5.30
-0.01
4.68
8.75
12.14
14.70
16.25
16.74
16.39
15.57
14.72
14.12
13.81
13.64
13.37
12.90
12.22
11.45
10.77
10.25
9.91
9.60
9.16
8.42
7.26
5.69
3.79
1.79
-0.16
-1.94
-3.60
-5.26
-7.12
-9.34
-12.06
-15.32
-18.99
-22.77
-26.11
-28.38
-28.98
-27.53
-24.04
-18.91
-12.84
-6.58
-0.82
4.03
7.78
10.40
11.99
12.64
12.55
11.95
11.15
10.45
10.09
10.13
10.51
11.06
11.66
12.24
12.77
13.23
13.57
13.69
13.49
12.88
11.85
10.42
8.59
6.38
3.86
1.18
-1.45
-3.83
-5.84
-7.54
-9.19
-11.17
-13.80
-17.14
-20.89
-24.31
-26.52
-26.67
-24.34
-19.68
-13.32
-6.17
0.84
7.03
12.08
15.99
19.06
21.71
24.34
27.11
29.81
31.76
32.03
29.77
24.69
17.24
8.56
0.11
-6.92
-11.91
-14.89
-16.32
-16.75
-16.61
-16.21
-15.81
-15.69
-16.17
-17.42
-19.38
-21.67
-23.79
-25.26
-25.88
-25.83
-25.56
-25.71
-26.79
-28.93
-31.81
-34.67
-36.55
-36.55
-34.19
-29.49
-23.05
-15.78
-8.57
-2.09
3.41
7.98
11.78
14.92
17.33
18.89
19.60
19.67
19.49
19.48
19.87
20.58
21.32
21.79
21.83
21.50
20.98
20.44
19.89
19.21
18.17
16.59
14.39
11.68
8.68
5.72
3.07
0.84
-1.03
-2.75
-4.57
-6.71
-9.28
-12.30
-15.73
-19.43
-23.13
-26.41
-28.70
-29.43
-28.27
-25.18
-20.57
-15.09
-9.46
-4.20
0.38
4.19
7.23
9.48
10.90
11.53
11.52
11.13
10.68
10.44
10.55
10.97
11.56
12.13
12.59
12.88
13.03
13.06
12.97
12.71
12.18
11.28
9.95
8.22
6.21
4.09
2.02
0.06
-1.83
-3.81
-6.10
-8.85
-12.10
-15.74
-19.48
-22.89
-25.50
-26.83
-26.51
-24.41
-20.63
-15.53
-9.64
-3.56
2.17
7.19
11.27
14.34
16.44
17.65
18.11
18.01
17.59
17.11
16.78
16.66
16.75
17.01
17.34
17.72
18.11
18.43
18.49
18.03
16.80
14.66
11.69
8.18
4.59
1.32
-1.37
-3.48
-5.22
-6.92
-8.90
-11.34
-14.28
-17.61
-21.12
-24.47
-27.30
-29.12
-29.53
-28.18
-24.98
-20.19
-14.32
-8.12
-2.26
2.76
6.80
9.94
12.42
14.49
16.25
17.74
18.88
19.65
20.07
20.20
20.12
19.87
19.47
18.92
18.29
17.63
17.03
16.53
16.17
15.91
15.67
15.33
14.80
14.01
12.94
11.63
10.11
8.36
6.33
4.02
1.47
-1.23
-3.91
-6.48
-8.91
-11.26
-13.65
-16.26
-19.23
-22.63
-26.31
-29.93
-32.90
-34.53
-34.20
-31.66
-27.07
-21.01
-14.35
-7.92
-2.29
2.34
6.05
9.00
11.26
12.75
13.38
13.22
12.59
12.02
12.00
12.73
14.06
15.57
16.82
17.59
17.93
18.04
18.15
18.30
18.39
18.25
17.75
16.85
15.61
14.09
12.35
10.43
8.33
6.09
3.77
1.48
-0.66
-2.60
-4.38
-6.09
-7.93
-10.10
-12.73
-15.87
-19.45
-23.29
-27.10
-30.45
-32.75
-33.45
-32.13
-28.73
-23.63
-17.58
-11.45
-5.96
-1.44
2.19
5.22
7.91
10.32
12.29
13.64
14.31
14.47
14.42
14.44
14.63
14.89
15.06
15.00
14.69
14.26
13.79
13.33
12.83
12.19
11.34
10.31
9.15
7.95
6.72
5.48
4.20
2.86
1.49
0.12
-1.24
-2.57
-3.90
-5.31
-6.87
-8.70
-10.95
-13.67
-16.82
-20.15
-23.23
-25.52
-26.45
-25.64
-22.95
-18.63
-13.19
-7.33
-1.71
3.18
7.10
10.03
12.07
13.34
13.97
14.05
13.74
13.21
12.73
12.51
12.72
13.34
14.28
15.39
16.45
17.33
17.89
18.05
17.78
17.12
16.16
14.94
13.51
11.79
9.74
7.36
4.77
2.15
-0.33
-2.59
-4.68
-6.76
-8.97
-11.38
-13.99
-16.78
-19.78
-22.99
-26.31
-29.41
-31.74
-32.64
-31.58
-28.37
-23.25
-16.84
-9.95
-3.38
2.23
6.58
9.63
11.61
12.87
13.74
14.47
15.16
15.75
16.07
16.01
15.54
14.79
14.01
13.50
13.47
13.87
14.47
14.93
14.90
14.23
12.93
11.18
9.21
7.25
5.46
3.88
2.46
1.05
-0.52
-2.39
-4.55
-6.88
-9.12
-11.08
-12.75
-14.33
-16.19
-18.59
-21.57
-24.79
-27.68
-29.58
-29.95
-28.54
-25.43
-20.99
-15.70
-10.11
-4.70
0.16
4.20
7.30
9.37
10.51
10.82
10.56
9.98
9.36
8.92
8.76
8.89
9.22
9.67
10.17
10.68
11.19
11.65
12.02
12.23
12.24
12.04
11.58
10.77
9.55
7.89
5.88
3.70
1.55
-0.35
-1.94
-3.21
-4.30
-5.39
-6.66
-8.31
-10.48
-13.27
-16.59
-20.12
-23.32
-25.51
-26.14
-24.90
-21.92
-17.69
-12.93
-8.27
-4.13
-0.63
2.32
4.78
6.77
8.23
9.08
9.39
9.38
9.39
9.63
10.20
10.95
11.65
12.08
12.14
11.88
11.43
10.93
10.39
9.77
8.94
7.86
6.56
5.20
3.96
2.97
2.23
1.64
1.00
0.07
-1.29
-3.08
-5.25
-7.61
-9.99
-12.26
-14.28
-15.94
-17.07
-17.38
-16.59
-14.46
-10.94
-6.23
-0.68
5.27
11.25
16.97
22.02
25.79
27.53
26.52
22.48
15.81
7.60
-0.74
-7.91
-13.12
-16.27
-17.72
-18.01
-17.59
-16.67
-15.29
-13.53
-11.51
-9.49
-7.80
-6.68
-6.21
-6.37
-6.92
-7.64
-8.34
-8.95
-9.52
-10.18
-11.04
-12.22
-13.79
-15.73
-17.98
-20.31
-22.34
-23.62
-23.73
-22.37
-19.54
-15.49
-10.61
-5.42
-0.39
4.10
7.77
10.52
12.36
13.48
14.06
14.33
14.43
14.46
14.47
14.53
14.68
14.86
15.00
14.98
14.73
14.28
13.69
13.03
12.34
11.56
10.59
9.34
7.79
6.03
4.11
2.13
0.10
-1.97
-4.09
-6.28
-8.52
-10.87
-13.42
-16.27
-19.44
-22.77
-25.87
-28.16
-29.00
-27.98
-25.03
-20.55
-15.24
-9.90
-5.16
-1.33
1.57
3.75
5.45
6.89
8.19
9.42
10.61
11.78
12.90
13.90
14.71
15.28
15.62
15.77
15.75
15.56
15.18
14.56
13.69
12.56
11.19
9.60
7.82
5.88
3.80
1.60
-0.72
-3.13
-5.56
-7.88
-9.96
-11.78
-13.45
-15.29
-17.65
-20.67
-24.08
-27.21
-29.17
-29.19
-26.95
-22.80
-17.44
-11.82
-6.64
-2.23
1.43
4.51
7.17
9.42
11.12
12.13
12.41
12.10
11.45
10.79
10.42
10.52
11.06
11.88
12.71
13.32
13.56
13.48
13.17
12.75
12.25
11.57
10.52
8.97
6.97
4.68
2.35
0.18
-1.76
-3.58
-5.39
-7.36
-9.59
-12.15
-15.07
-18.31
-21.71
-24.92
-27.44
-28.69
-28.26
-26.02
-22.21
-17.29
-11.81
-6.30
-1.11
3.50
7.36
10.34
12.33
13.36
13.56
13.20
12.56
11.97
11.62
11.66
12.09
12.82
13.69
14.47
14.97
15.02
14.59
13.75
12.63
11.36
9.97
8.45
6.74
4.85
2.88
0.98
-0.74
-2.30
-3.83
-5.58
-7.74
-10.41
-13.55
-17.01
-20.52
-23.73
-26.21
-27.49
-27.16
-25.00
-21.10
-15.83
-9.81
-3.70
1.90
6.61
10.24
12.78
14.31
14.98
14.96
14.43
13.66
12.92
12.45
12.42
12.87
13.73
14.77
15.78
16.51
16.84
16.72
16.21
15.44
14.48
13.34
11.90
10.11
7.94
5.47
2.91
0.46
-1.73
-3.65
-5.37
-7.08
-8.96
-11.18
-13.90
-17.18
-21.00
-25.14
-29.19
-32.57
-34.62
-34.78
-32.74
-28.62
-22.87
-16.24
-9.48
-3.22
2.17
6.54
9.91
12.33
13.94
14.85
15.25
15.32
15.27
15.25
15.38
15.73
16.32
17.07
17.84
18.42
18.65
18.47
17.96
17.25
16.49
15.69
14.78
13.66
12.26
10.61
8.76
6.77
4.66
2.44
0.13
-2.21
-4.54
-6.86
-9.22
-11.80
-14.72
-18.08
-21.83
-25.76
-29.50
-32.58
-34.42
-34.55
-32.72
-29.01
-23.88
-17.95
-11.89
-6.21
-1.20
3.04
6.51
9.25
11.32
12.86
14.02
14.98
15.82
16.56
17.18
17.70
18.18
18.74
19.40
20.10
20.68
20.94
20.70
19.83
18.33
16.31
13.94
11.50
9.20
7.18
5.42
3.80
2.15
0.38
-1.45
-3.20
-4.73
-6.01
-7.21
-8.61
-10.47
-12.95
-16.06
-19.66
-23.52
-27.28
-30.52
-32.73
-33.44
-32.29
-29.19
-24.33
-18.23
-11.58
-5.08
0.66
5.30
8.71
11.02
12.51
13.49
14.20
14.76
15.13
15.24
15.03
14.63
14.22
13.96
13.88
13.90
13.88
13.71
13.41
13.05
12.70
12.32
11.83
11.10
10.07
8.79
7.34
5.79
4.14
2.36
0.44
-1.59
-3.66
-5.75
-7.93
-10.37
-13.27
-16.76
-20.84
-25.26
-29.59
-33.27
-35.66
-36.24
-34.73
-31.17
-25.96
-19.76
-13.25
-7.00
-1.35
3.57
7.69
10.92
13.17
14.39
14.70
14.40
13.89
13.50
13.37
13.41
13.47
13.48
13.48
13.62
13.98
14.53
15.06
15.33
15.12
14.40
13.23
11.68
9.83
7.69
5.29
2.69
0.05
-2.48
-4.80
-6.93
-8.98
-11.18
-13.72
-16.71
-20.06
-23.45
-26.31
-27.98
-27.91
-25.85
-21.92
-16.62
-10.62
-4.55
1.05
5.84
9.62
12.33
14.01
14.88
15.24
15.43
15.71
16.17
16.77
17.39
17.91
18.25
18.34
18.08
17.39
16.26
14.79
13.18
11.66
10.36
9.28
8.22
6.97
5.36
3.35
1.10
-1.12
-3.04
-4.50
-5.56
-6.53
-7.88
-9.98
-12.99
-16.71
-20.59
-23.84
-25.72
-25.61
-23.24
-18.73
-12.50
-5.20
2.42
9.80
16.56
22.56
27.80
32.24
35.80
38.42
40.06
40.64
40.01
37.77
33.46
26.82
18.11
8.28
-1.29
-9.23
-14.73
-17.69
-18.69
-18.56
-17.99
-17.37
-16.80
-16.31
-15.93
-15.76
-15.91
-16.42
-17.28
-18.42
-19.75
-21.12
-22.46
-23.80
-25.30
-27.21
-29.77
-32.98
-36.48
-39.60
-41.52
-41.55
-39.33
-34.98
-29.01
-22.17
-15.15
-8.46
-2.35
3.12
8.02
12.39
16.12
19.01
20.91
21.80
21.93
21.68
21.50
21.65
22.16
22.82
23.33
23.45
23.07
22.18
20.86
19.24
17.38
15.41
13.43
11.48
9.57
7.60
5.49
3.19
0.78
-1.58
-3.76
-5.70
-7.47
-9.21
-11.07
-13.20
-15.70
-18.59
-21.92
-25.58
-29.19
-32.17
-33.76
-33.34
-30.61
-25.77
-19.50
-12.71
-6.26
-0.70
3.79
7.36
10.23
12.58
14.45
15.80
16.60
16.91
16.91
16.82
16.75
16.73
16.75
16.76
16.76
16.79
16.83
16.82
16.61
16.10
15.26
14.16
12.81
11.19
9.29
7.09
4.70
2.36
0.29
-1.42
-2.94
-4.65
-7.00
-10.26
-14.41
-19.08
-23.67
-27.50
-29.98
-30.70
-29.49
-26.35
-21.58
-15.65
-9.20
-2.88
2.75
7.35
10.81
13.22
14.76
15.57
15.77
15.49
14.91
14.30
13.90
13.83
14.05
14.38
14.64
14.75
14.73
14.68
14.65
14.47
13.91
12.70
10.78
8.26
5.45
2.65
-0.05
-2.62
-5.17
-7.73
-10.25
-12.68
-15.03
-17.44
-20.19
-23.44
-27.13
-30.84
-33.84
-35.38
-34.94
-32.38
-28.04
-22.54
-16.60
-10.79
-5.47
-0.79
3.22
6.60
9.39
11.64
13.41
14.79
15.88
16.70
17.32
17.74
17.97
17.98
17.75
17.25
16.48
15.53
14.50
13.46
12.38
11.09
9.38
7.04
4.07
0.63
-2.93
-6.28
-9.15
-11.52
-13.55
-15.52
-17.74
-20.44
-23.67
-27.30
-30.94
-33.99
-35.76
-35.62
-33.23
-28.69
-22.47
-15.38
-8.26
-1.84
3.43
7.45
10.30
12.21
13.43
14.18
14.65
14.98
15.24
15.51
15.76
15.94
15.99
15.86
15.57
15.20
14.83
14.54
14.32
14.08
13.64
12.78
11.35
9.29
6.72
3.85
0.97
-1.69
-4.00
-6.06
-8.14
-10.55
-13.65
-17.55
-22.14
-26.98
-31.45
-34.83
-36.46
-35.92
-33.11
-28.27
-21.95
-14.83
-7.68
-1.11
4.46
8.80
11.88
13.77
14.64
14.72
14.30
13.70
13.20
12.97
13.03
13.28
13.54
13.67
13.63
13.50
13.41
13.45
13.59
13.66
13.41
12.54
10.93
8.67
6.03
3.43
1.19
-0.57
-1.95
-3.24
-4.79
-6.88
-9.67
-13.14
-17.06
-20.96
-24.16
-25.86
-25.42
-22.62
-17.70
-11.43
-4.78
1.46
6.85
11.37
15.25
18.67
21.60
23.86
25.18
25.50
24.98
24.09
23.33
23.16
23.78
25.17
27.05
28.98
30.45
30.92
29.96
27.37
23.23
17.94
12.05
6.07
0.34
-4.93
-9.64
-13.67
-16.86
-19.10
-20.46
-21.32
-22.20
-23.64
-25.89
-28.90
-32.33
-35.73
-38.69
-40.84
-41.83
-41.30
-38.95
-34.71
-28.87
-22.05
-15.00
-8.36
-2.47
2.63
7.08
10.96
14.20
16.68
18.32
19.28
19.87
20.49
21.41
22.67
24.06
25.29
26.10
26.43
26.38
26.12
25.78
25.37
24.76
23.78
22.29
20.30
17.97
15.55
13.30
11.33
9.58
7.83
5.82
3.41
0.68
-2.13
-4.69
-6.84
-8.70
-10.63
-13.07
-16.35
-20.50
-25.28
-30.17
-34.60
-37.95
-39.71
-39.49
-37.12
-32.75
-26.78
-19.88
-12.77
-6.04
-0.07
5.03
9.31
12.90
15.88
18.28
20.08
21.29
21.99
22.35
22.58
22.89
23.41
24.15
25.08
26.04
26.91
27.53
27.79
27.56
26.78
25.42
23.53
21.28
18.86
16.45
14.17
12.02
9.89
7.65
5.24
2.64
-0.07
-2.75
-5.33
-7.73
-10.00
-12.24
-14.57
-17.17
-20.21
-23.72
-27.52
-31.16
-33.99
-35.32
-34.67
-31.96
-27.50
-21.93
-15.94
-10.09
-4.74
-0.06
3.87
7.00
9.31
10.84
11.73
12.23
12.56
12.93
13.45
14.11
14.87
15.67
16.48
17.28
18.07
18.73
19.08
18.94
18.14
16.69
14.75
12.61
10.58
8.88
7.50
6.30
5.03
3.49
1.61
-0.47
-2.57
-4.49
-6.12
-7.51
-8.88
-10.47
-12.44
-14.90
-17.80
-21.07
-24.62
-28.29
-31.73
-34.35
-35.36
-34.09
-30.23
-24.10
-16.57
-8.81
-1.79
3.94
8.35
11.67
14.14
15.80
16.62
16.65
16.21
15.78
15.78
16.35
17.26
18.10
18.53
18.49
18.23
18.08
18.21
18.49
18.58
18.11
16.93
15.16
13.11
11.03
9.09
7.23
5.32
3.23
0.92
-1.49
-3.87
-6.10
-8.13
-9.97
-11.79
-13.79
-16.24
-19.30
-22.92
-26.74
-30.13
-32.29
-32.55
-30.60
-26.60
-21.16
-15.08
-9.11
-3.78
0.71
4.41
7.50
10.15
12.44
14.31
15.66
16.41
16.61
16.47
16.26
16.21
16.40
16.72
16.98
16.96
16.63
16.02
15.26
14.39
13.39
12.19
10.73
9.02
7.07
4.93
2.56
-0.01
-2.73
-5.47
-8.05
-10.33
-12.29
-14.00
-15.58
-17.22
-19.07
-21.28
-23.98
-27.11
-30.39
-33.24
-34.90
-34.72
-32.37
-28.10
-22.55
-16.60
-10.97
-6.06
-1.93
1.58
4.71
7.61
10.29
12.66
14.62
16.06
16.95
17.36
17.41
17.25
17.05
16.89
16.77
16.62
16.37
15.96
15.40
14.70
13.83
12.77
11.47
9.97
8.33
6.66
5.02
3.42
1.81
0.12
-1.69
-3.65
-5.72
-7.90
-10.23
-12.79
-15.72
-19.11
-22.90
-26.82
-30.38
-32.92
-33.82
-32.68
-29.49
-24.61
-18.71
-12.51
-6.60
-1.30
3.25
7.06
10.11
12.42
13.97
14.86
15.26
15.40
15.50
15.70
16.02
16.38
16.64
16.68
16.42
15.87
15.12
14.30
13.54
12.91
12.35
11.69
10.73
9.34
7.51
5.34
3.00
0.57
-1.94
-4.58
-7.41
-10.39
-13.42
-16.40
-19.34
-22.33
-25.50
-28.77
-31.76
-33.85
-34.36
-32.83
-29.26
-24.06
-17.91
-11.46
-5.23
0.48
5.49
9.63
12.73
14.64
15.39
15.19
14.44
13.59
12.93
12.61
12.59
12.74
12.97
13.19
13.36
13.43
13.31
12.88
12.08
10.88
9.36
7.61
5.70
3.72
1.72
-0.20
-1.96
-3.48
-4.78
-6.01
-7.43
-9.32
-11.87
-14.99
-18.35
-21.33
-23.26
-23.60
-22.08
-18.81
-14.20
-8.83
-3.29
1.91
6.44
10.09
12.78
14.51
15.35
15.46
15.01
14.25
13.42
12.71
12.22
11.93
11.78
11.68
11.55
11.37
11.10
10.72
10.17
9.39
8.30
6.93
5.31
3.49
1.51
-0.58
-2.69
-4.66
-6.31
-7.58
-8.56
-9.60
-11.13
-13.51
-16.83
-20.82
-24.86
-28.20
-30.15
-30.23
-28.31
-24.59
-19.51
-13.71
-7.77
-2.22
2.62
6.60
9.70
11.96
13.41
14.12
14.21
13.91
13.49
13.24
13.28
13.64
14.20
14.83
15.42
15.87
16.15
16.22
16.05
15.62
14.96
14.09
13.03
11.75
10.14
8.12
5.66
2.86
-0.02
-2.71
-5.02
-6.94
-8.59
-10.24
-12.18
-14.58
-17.54
-21.02
-24.80
-28.55
-31.76
-33.82
-34.21
-32.56
-28.86
-23.51
-17.18
-10.62
-4.44
0.98
5.51
9.22
12.19
14.43
15.93
16.68
16.80
16.54
16.21
16.09
16.31
16.76
17.25
17.55
17.55
17.33
17.10
17.04
17.26
17.67
18.02
18.01
17.41
16.16
14.36
12.25
10.14
8.23
6.62
5.18
3.71
1.96
-0.20
-2.71
-5.37
-7.90
-10.11
-11.96
-13.55
-15.13
-16.94
-19.21
-22.10
-25.64
-29.72
-34.00
-37.87
-40.57
-41.32
-39.60
-35.32
-28.98
-21.47
-13.81
-6.83
-1.06
3.45
6.88
9.54
11.68
13.40
14.74
15.71
16.36
16.79
17.11
17.40
17.70
18.05
18.41
18.75
19.02
19.16
19.20
19.10
18.82
18.26
17.29
15.79
13.80
11.45
9.00
6.77
4.94
3.57
2.55
1.69
0.76
-0.33
-1.59
-2.99
-4.45
-5.92
-7.41
-8.96
-10.66
-12.60
-14.82
-17.34
-20.16
-23.22
-26.44
-29.59
-32.34
-34.22
-34.79
-33.71
-30.87
-26.43
-20.81
-14.58
-8.34
-2.60
2.26
6.04
8.76
10.54
11.62
12.29
12.70
12.99
13.20
13.38
13.54
13.74
13.94
14.12
14.18
14.04
13.69
13.16
12.55
11.90
11.17
10.34
9.38
8.33
7.27
6.26
5.30
4.32
3.24
2.01
0.66
-0.74
-2.04
-3.22
-4.36
-5.69
-7.49
-10.03
-13.40
-17.45
-21.82
-25.85
-28.84
-30.12
-29.29
-26.32
-21.55
-15.63
-9.30
-3.21
2.20
6.72
10.35
13.10
15.03
16.16
16.57
16.45
16.06
15.70
15.55
15.66
15.89
16.09
16.15
16.07
15.89
15.65
15.29
14.71
13.84
12.67
11.29
9.82
8.27
6.61
4.73
2.59
0.33
-1.87
-3.84
-5.56
-7.11
-8.67
-10.36
-12.21
-14.19
-16.29
-18.57
-21.15
-24.10
-27.32
-30.48
-33.01
-34.26
-33.69
-31.02
-26.40
-20.38
-13.78
-7.46
-2.05
2.19
5.34
7.66
9.44
10.82
11.82
12.42
12.67
12.70
12.71
12.85
13.21
13.74
14.36
14.99
15.55
16.01
16.28
16.23
15.78
14.94
13.77
12.38
10.88
9.26
7.49
5.52
3.32
0.96
-1.39
-3.54
-5.41
-7.01
-8.53
-10.25
-12.42
-15.20
-18.59
-22.44
-26.47
-30.29
-33.40
-35.27
-35.42
-33.51
-29.57
-23.99
-17.47
-10.80
-4.65
0.60
4.81
8.03
10.40
12.07
13.18
13.85
14.25
14.49
14.67
14.89
15.16
15.55
16.00
16.44
16.79
16.92
16.79
16.40
15.78
14.94
13.88
12.57
10.96
9.04
6.83
4.36
1.71
-1.04
-3.77
-6.32
-8.59
-10.52
-12.15
-13.64
-15.23
-17.14
-19.53
-22.41
-25.55
-28.52
-30.76
-31.64
-30.76
-27.98
-23.53
-17.92
-11.83
-5.89
-0.59
3.80
7.21
9.66
11.28
12.19
12.51
12.38
11.96
11.38
10.87
10.59
10.70
11.26
12.18
13.23
14.09
14.51
14.31
13.55
12.39
10.99
9.45
7.74
5.73
3.31
0.54
-2.38
-5.16
-7.57
-9.49
-11.01
-12.32
-13.70
-15.40
-17.61
-20.45
-23.84
-27.51
-30.97
-33.57
-34.72
-33.95
-31.22
-26.81
-21.31
-15.39
-9.58
-4.23
0.54
4.69
8.17
10.82
12.46
12.99
12.48
11.27
9.88
8.78
8.32
8.56
9.27
10.16
10.93
11.43
11.70
11.82
11.90
11.92
11.78
11.27
10.24
8.63
6.56
4.24
1.91
-0.27
-2.32
-4.33
-6.47
-8.86
-11.58
-14.62
-17.90
-21.23
-24.28
-26.56
-27.48
-26.54
-23.51
-18.58
-12.34
-5.63
0.66
5.91
9.79
12.34
13.81
14.47
14.57
14.25
13.63
12.88
12.19
11.74
11.65
11.88
12.29
12.68
12.95
13.07
13.05
12.90
12.51
11.71
10.35
8.37
5.89
3.11
0.31
-2.27
-4.44
-6.14
-7.47
-8.68
-10.21
-12.45
-15.68
-19.81
-24.35
-28.54
-31.51
-32.58
-31.44
-28.24
-23.45
-17.78
-11.91
-6.34
-1.33
3.09
7.00
10.43
13.28
15.37
16.54
16.81
16.39
15.72
15.23
15.21
15.70
16.52
17.36
17.95
18.17
18.02
17.58
16.94
16.13
15.10
13.76
12.07
9.99
7.62
5.06
2.49
-0.00
-2.39
-4.69
-6.99
-9.39
-11.97
-14.84
-18.09
-21.78
-25.79
-29.78
-33.14
-35.11
-35.05
-32.68
-28.20
-22.29
-15.79
-9.43
-3.67
1.35
5.65
9.26
12.18
14.38
15.94
17.04
17.95
18.84
19.72
20.44
20.84
20.86
20.58
20.24
20.02
19.99
20.07
20.09
19.94
19.51
18.79
17.77
16.40
14.72
12.81
10.79
8.80
6.89
5.00
3.02
0.87
-1.45
-3.88
-6.36
-8.84
-11.32
-13.80
-16.33
-19.00
-21.90
-25.15
-28.71
-32.31
-35.39
-37.23
-37.11
-34.69
-30.06
-23.79
-16.75
-9.82
-3.65
1.41
5.40
8.55
11.11
13.29
15.13
16.60
17.72
18.55
19.26
19.98
20.74
21.45
21.98
22.26
22.31
22.28
22.27
22.26
22.07
21.50
20.38
18.73
16.70
14.51
12.37
10.43
8.80
7.48
6.39
5.33
4.05
2.32
0.03
-2.74
-5.81
-8.91
-11.86
-14.53
-16.98
-19.41
-22.12
-25.40
-29.40
-33.91
-38.36
-41.87
-43.55
-42.78
-39.43
-33.88
-26.88
-19.30
-11.88
-5.15
0.65
5.44
9.28
12.23
14.37
15.84
16.82
17.54
18.24
19.02
19.87
20.63
21.06
21.02
20.54
19.78
18.99
18.33
17.81
17.26
16.46
15.28
13.73
11.99
10.31
8.88
7.75
6.83
5.95
4.94
3.72
2.29
0.77
-0.80
-2.39
-4.05
-5.85
-7.89
-10.29
-13.16
-16.61
-20.69
-25.25
-29.94
-34.09
-36.91
-37.61
-35.75
-31.37
-25.05
-17.68
-10.21
-3.36
2.48
7.18
10.80
13.40
15.08
15.99
16.31
16.33
16.29
16.32
16.40
16.49
16.55
16.70
17.07
17.76
18.75
19.85
20.79
21.26
21.08
20.16
18.54
16.37
13.84
11.17
8.51
5.93
3.42
0.93
-1.57
-4.06
-6.51
-8.88
-11.20
-13.58
-16.15
-19.05
-22.30
-25.75
-29.10
-31.80
-33.29
-33.00
-30.65
-26.29
-20.38
-13.62
-6.78
-0.51
4.80
9.01
12.22
14.59
16.28
17.38
17.98
18.13
17.99
17.73
17.52
17.46
17.57
17.77
18.00
18.24
18.48
18.67
18.72
18.42
17.61
16.23
14.37
12.32
10.31
8.54
6.96
5.45
3.81
1.90
-0.34
-2.89
-5.63
-8.50
-11.36
-14.09
-16.58
-18.82
-20.93
-23.14
-25.70
-28.72
-32.06
-35.22
-37.43
-37.91
-36.12
-31.96
-25.81
-18.44
-10.76
-3.58
2.54
7.36
10.92
13.38
14.98
15.95
16.48
16.73
16.88
17.06
17.37
17.80
18.27
18.60
18.64
18.37
17.91
17.53
17.43
17.65
18.01
18.12
17.67
16.49
14.68
12.55
10.44
8.55
6.87
5.20
3.32
1.11
-1.40
-4.01
-6.49
-8.69
-10.63
-12.46
-14.42
-16.75
-19.63
-23.09
-27.05
-31.24
-35.22
-38.33
-39.83
-39.09
-35.81
-30.16
-22.77
-14.61
-6.71
0.14
5.48
9.28
11.77
13.31
14.20
14.64
14.74
14.59
14.36
14.26
14.51
15.17
16.11
17.07
17.78
18.14
18.22
18.24
18.37
18.58
18.68
18.37
17.39
15.68
13.39
10.86
8.38
6.16
4.15
2.18
0.03
-2.41
-5.06
-7.71
-10.15
-12.29
-14.23
-16.19
-18.42
-21.08
-24.23
-27.77
-31.43
-34.82
-37.36
-38.40
-37.34
-33.92
-28.31
-21.17
-13.50
-6.27
-0.23
4.33
7.47
9.49
10.69
11.30
11.46
11.31
10.99
10.71
10.63
10.85
11.41
12.23
13.22
14.27
15.25
16.08
16.72
17.12
17.23
16.98
16.29
14.99
13.03
10.49
7.58
4.62
1.87
-0.55
-2.68
-4.61
-6.46
-8.29
-10.20
-12.30
-14.77
-17.79
-21.35
-25.23
-28.89
-31.60
-32.62
-31.47
-28.05
-22.73
-16.20
-9.31
-2.83
2.71
7.12
10.50
12.99
14.74
15.87
16.39
16.40
16.06
15.66
15.43
15.47
15.72
15.98
16.04
15.75
15.16
14.42
13.71
13.09
12.46
11.62
10.36
8.54
6.27
3.78
1.36
-0.78
-2.62
-4.27
-5.95
-7.81
-9.96
-12.44
-15.29
-18.64
-22.53
-26.79
-30.99
-34.37
-36.08
-35.48
-32.38
-27.11
-20.40
-13.16
-6.19
-0.05
5.02
8.97
11.91
13.95
15.20
15.72
15.61
15.06
14.32
13.68
13.37
13.49
13.95
14.48
14.79
14.74
14.34
13.80
13.35
13.06
12.78
12.24
11.19
9.60
7.58
5.37
3.11
0.81
-1.61
-4.22
-6.96
-9.71
-12.42
-15.23
-18.44
-22.37
-27.08
-32.17
-36.83
-40.08
-41.11
-39.48
-35.30
-29.09
-21.61
-13.70
-6.09
0.74
6.48
11.04
14.45
16.75
18.07
18.54
18.36
17.86
17.37
17.16
17.31
17.73
18.17
18.39
18.27
17.84
17.20
16.51
15.85
15.18
14.42
13.44
12.08
10.27
8.00
5.39
2.65
-0.02
-2.43
-4.58
-6.63
-8.79
-11.32
-14.34
-17.91
-21.96
-26.31
-30.65
-34.52
-37.27
-38.18
-36.66
-32.58
-26.32
-18.78
-11.03
-3.95
2.01
6.84
10.78
14.05
16.68
18.53
19.46
19.52
19.02
18.42
18.12
18.36
19.08
20.03
20.88
21.39
21.42
20.97
20.09
18.84
17.26
15.32
13.05
10.49
7.78
5.07
2.56
0.32
-1.68
-3.57
-5.55
-7.74
-10.17
-12.78
-15.46
-18.15
-20.93
-23.95
-27.32
-31.03
-34.71
-37.77
-39.46
-39.11
-36.41
-31.47
-24.87
-17.41
-9.97
-3.19
2.52
7.04
10.34
12.48
13.52
13.63
13.09
12.32
11.80
11.86
12.58
13.75
15.07
16.22
17.03
17.47
17.61
17.50
17.14
16.48
15.51
14.26
12.85
11.31
9.67
7.86
5.85
3.69
1.48
-0.70
-2.80
-4.97
-7.42
-10.38
-14.00
-18.20
-22.65
-26.72
-29.66
-30.75
-29.47
-25.85
-20.33
-13.77
-7.06
-0.90
4.39
8.81
12.47
15.46
17.67
18.96
19.26
18.75
17.84
17.02
16.65
16.85
17.47
18.19
18.66
18.71
18.34
17.76
17.18
16.67
16.09
15.14
13.51
11.09
8.01
4.58
1.21
-1.87
-4.64
-7.24
-9.85
-12.59
-15.52
-18.68
-22.10
-25.75
-29.47
-32.87
-35.36
-36.27
-35.08
-31.59
-26.02
-19.01
-11.38
-3.97
2.61
8.03
12.26
15.46
17.82
19.47
20.39
20.57
20.06
19.05
17.89
16.92
16.41
16.37
16.66
16.99
17.10
16.86
16.28
15.43
14.38
13.12
11.58
9.66
7.31
4.59
1.67
-1.26
-4.00
-6.47
-8.75
-11.02
-13.52
-16.48
-20.02
-24.10
-28.54
-32.91
-36.58
-38.77
-38.73
-36.02
-30.74
-23.54
-15.47
-7.61
-0.68
5.06
9.77
13.73
17.08
19.71
21.37
21.93
21.51
20.50
19.41
18.63
18.31
18.31
18.33
18.15
17.63
16.80
15.80
14.76
13.71
12.58
11.30
9.71
7.81
5.61
3.21
0.72
-1.72
-3.97
-5.93
-7.58
-9.07
-10.67
-12.76
-15.69
-19.54
-24.10
-28.76
-32.64
-34.82
-34.66
-31.93
-26.94
-20.38
-13.13
-6.03
0.36
5.78
10.15
13.49
15.79
17.02
17.27
16.79
16.00
15.33
15.10
15.38
15.99
16.62
16.99
16.99
16.71
16.31
15.97
15.68
15.31
14.60
13.30
11.25
8.47
5.18
1.74
-1.50
-4.31
-6.59
-8.50
-10.32
-12.38
-14.95
-18.10
-21.66
-25.17
-27.96
-29.30
-28.58
-25.53
-20.35
-13.66
-6.34
0.74
6.92
11.84
15.44
17.85
19.19
19.63
19.34
18.53
17.50
16.56
15.97
15.80
15.93
16.14
16.18
15.90
15.36
14.73
14.16
13.73
13.31
12.69
11.63
9.98
7.80
5.33
2.87
0.66
-1.23
-2.93
-4.71
-6.85
-9.58
-12.94
-16.90
-21.25
-25.70
-29.85
-33.22
-35.28
-35.55
-33.70
-29.70
-23.86
-16.80
-9.33
-2.23
3.91
8.83
12.58
15.38
17.48
18.97
19.81
19.92
19.36
18.34
17.20
16.29
15.82
15.78
16.02
16.30
16.40
16.16
15.54
14.63
13.49
12.26
10.96
9.59
8.07
6.35
4.39
2.24
-0.01
-2.26
-4.46
-6.59
-8.73
-11.00
-13.65
-16.96
-21.09
-25.92
-30.97
-35.42
-38.31
-38.84
-36.68
-32.03
-25.52
-18.03
-10.35
-3.11
3.27
8.56
12.62
15.42
17.05
17.70
17.73
17.49
17.30
17.34
17.64
18.11
18.62
19.06
19.38
19.56
19.57
19.39
18.98
18.33
17.47
16.47
15.36
14.07
12.47
10.40
7.79
4.73
1.43
-1.77
-4.65
-7.12
-9.29
-11.38
-13.70
-16.49
-19.88
-23.86
-28.24
-32.65
-36.52
-39.14
-39.84
-38.16
-34.00
-27.73
-20.11
-12.09
-4.59
1.76
6.69
10.28
12.74
14.37
15.35
15.84
15.93
15.81
15.72
15.85
16.31
17.03
17.81
18.39
18.56
18.27
17.61
16.81
16.02
15.32
14.62
13.73
12.50
10.87
8.88
6.68
4.41
2.12
-0.25
-2.83
-5.71
-8.86
-12.08
-15.10
-17.71
-19.94
-22.03
-24.40
-27.38
-31.02
-34.84
-37.99
-39.47
-38.54
-35.01
-29.33
-22.38
-15.16
-8.49
-2.78
1.92
5.71
8.74
11.02
12.44
12.97
12.72
12.02
11.34
11.10
11.49
12.42
13.56
14.50
15.03
15.11
14.99
14.91
15.05
15.32
15.41
14.96
13.72
11.65
8.95
5.96
3.00
0.27
-2.19
-4.43
-6.60
-8.81
-11.15
-13.70
-16.49
-19.50
-22.63
-25.69
-28.35
-30.18
-30.68
-29.49
-26.43
-21.66
-15.65
-9.08
-2.63
3.18
8.04
11.87
14.68
16.51
17.40
17.43
16.83
15.89
15.05
14.68
14.95
15.78
16.92
17.99
18.66
18.76
18.29
17.38
16.24
15.03
13.78
12.44
10.85
8.90
6.55
3.87
1.03
-1.80
-4.48
-6.96
-9.29
-11.58
-14.01
-16.83
-20.19
-24.13
-28.39
-32.42
-35.46
-36.77
-35.85
-32.64
-27.52
-21.19
-14.45
-7.93
-2.07
2.96
7.14
10.48
13.02
14.75
15.67
15.86
15.50
14.85
14.24
13.90
13.91
14.23
14.66
14.98
15.04
14.78
14.31
13.73
13.14
12.49
11.66
10.40
8.53
5.97
2.86
-0.53
-3.88
-6.94
-9.63
-12.03
-14.36
-16.85
-19.67
-22.86
-26.35
-29.94
-33.21
-35.64
-36.57
-35.47
-32.07
-26.57
-19.60
-12.01
-4.64
1.90
7.32
11.58
14.72
16.81
17.85
17.93
17.27
16.18
15.06
14.23
13.88
13.99
14.45
15.00
15.39
15.47
15.22
14.73
14.11
13.45
12.69
11.71
10.35
8.58
6.44
4.02
1.46
-1.12
-3.58
-5.84
-7.82
-9.63
-11.48
-13.73
-16.69
-20.42
-24.66
-28.81
-32.09
-33.78
-33.37
-30.72
-26.06
-19.90
-12.97
-6.02
0.30
5.61
9.73
12.73
14.71
15.74
15.92
15.39
14.38
13.23
12.32
11.86
11.88
12.26
12.80
13.32
13.74
14.05
14.22
14.16
13.78
12.99
11.74
10.05
7.97
5.55
2.83
-0.08
-3.00
-5.76
-8.18
-10.19
-11.86
-13.42
-15.19
-17.46
-20.43
-24.02
-27.89
-31.41
-33.78
-34.32
-32.61
-28.68
-23.00
-16.29
-9.38
-2.91
2.74
7.42
11.13
13.84
15.49
16.03
15.52
14.25
12.70
11.47
11.07
11.67
13.08
14.83
16.33
17.22
17.43
17.13
16.56
15.81
14.77
13.25
11.12
8.46
5.58
2.83
0.49
-1.37
-2.85
-4.13
-5.41
-6.90
-8.78
-11.26
-14.43
-18.19
-22.11
-25.52
-27.67
-27.91
-25.97
-21.98
-16.42
-9.98
-3.37
2.80
8.08
12.23
15.15
16.90
17.70
17.79
17.47
16.96
16.42
15.93
15.54
15.27
15.12
15.07
15.05
14.94
14.64
14.08
13.27
12.27
11.09
9.71
8.04
5.98
3.51
0.72
-2.17
-4.93
-7.43
-9.67
-11.80
-14.06
-16.67
-19.76
-23.30
-27.05
-30.54
-33.10
-34.05
-32.86
-29.38
-23.98
-17.37
-10.46
-3.99
1.64
6.36
10.24
13.34
15.62
17.00
17.44
17.09
16.23
15.24
14.45
14.00
13.88
13.90
13.84
13.53
12.95
12.20
11.51
11.03
10.81
10.67
10.29
9.35
7.61
5.12
2.11
-1.03
-3.91
-6.27
-8.05
-9.41
-10.65
-12.18
-14.33
-17.24
-20.75
-24.31
-27.09
-28.16
-26.79
-22.70
-16.32
-8.56
-0.59
6.57
12.34
16.71
20.13
23.20
26.45
30.14
34.15
37.87
40.26
40.04
36.19
28.40
17.44
5.07
-6.54
-15.50
-20.80
-22.45
-21.15
-17.92
-13.69
-9.25
-5.25
-2.29
-0.77
-0.77
-1.95
-3.69
-5.34
-6.53
-7.27
-7.84
-8.63
-9.95
-11.97
-14.74
-18.23
-22.38
-26.91
-31.37
-35.06
-37.25
-37.31
-35.05
-30.74
-25.02
-18.74
-12.60
-7.05
-2.21
2.03
5.75
8.91
11.36
12.93
13.59
13.54
13.18
12.93
13.06
13.59
14.26
14.76
14.90
14.65
14.19
13.71
13.25
12.76
12.06
10.99
9.55
7.83
6.01
4.26
2.67
1.24
-0.08
-1.39
-2.73
-4.14
-5.65
-7.34
-9.31
-11.73
-14.68
-18.12
-21.77
-25.12
-27.46
-28.10
-26.59
-22.87
-17.31
-10.68
-3.83
2.44
7.66
11.69
14.55
16.42
17.44
17.75
17.52
17.04
16.59
16.46
16.78
17.52
18.53
19.62
20.60
21.37
21.88
22.10
21.99
21.54
20.71
19.52
18.01
16.28
14.42
12.50
10.54
8.51
6.39
4.16
1.89
-0.33
-2.44
-4.41
-6.31
-8.22
-10.29
-12.66
-15.49
-18.93
-23.04
-27.66
-32.36
-36.40
-38.96
-39.35
-37.23
-32.78
-26.57
-19.38
-11.99
-4.97
1.38
6.92
11.58
15.30
18.03
19.74
20.55
20.68
20.45
20.17
20.11
20.38
20.93
21.51
21.82
21.58
20.68
19.32
17.84
16.63
15.85
15.38
14.83
13.79
12.13
10.04
7.98
6.42
5.57
5.33
5.31
5.05
4.19
2.64
0.47
-2.07
-4.73
-7.30
-9.68
-11.86
-14.02
-16.39
-19.19
-22.57
-26.47
-30.52
-34.07
-36.33
-36.64
-34.74
-30.79
-25.32
-19.08
-12.72
-6.68
-1.26
3.36
7.00
9.57
11.14
11.95
12.35
12.74
13.30
14.09
14.96
15.76
16.38
16.83
17.16
17.47
17.84
18.26
18.68
18.97
18.95
18.45
17.38
15.76
13.74
11.54
9.35
7.29
5.38
3.53
1.62
-0.41
-2.61
-4.92
-7.27
-9.52
-11.57
-13.42
-15.15
-16.97
-19.15
-21.89
-25.26
-29.07
-32.88
-35.97
-37.54
-36.93
-33.83
-28.45
-21.45
-13.79
-6.41
0.06
5.32
9.42
12.53
14.81
16.32
17.12
17.29
17.00
16.50
15.98
15.55
15.28
15.21
15.41
15.95
16.83
17.93
18.96
19.59
19.58
18.86
17.60
16.00
14.26
12.46
10.52
8.34
5.88
3.20
0.52
-1.98
-4.16
-6.07
-7.90
-9.94
-12.45
-15.61
-19.43
-23.68
-27.90
-31.44
-33.60
-33.82
-31.82
-27.71
-21.92
-15.10
-7.95
-1.12
4.89
9.69
13.14
15.25
16.27
16.59
16.62
16.66
16.80
16.94
16.94
16.70
16.29
15.90
15.75
15.95
16.43
16.92
17.14
16.88
16.11
14.92
13.49
11.89
10.11
8.13
5.97
3.79
1.76
0.01
-1.50
-2.96
-4.60
-6.52
-8.69
-10.91
-13.09
-15.30
-17.78
-20.81
-24.45
-28.43
-32.15
-34.87
-35.91
-34.88
-31.76
-26.89
-20.83
-14.24
-7.69
-1.64
3.62
7.94
11.27
13.66
15.18
15.97
16.18
16.05
15.79
15.61
15.60
15.76
15.97
16.12
16.13
15.99
15.73
15.37
14.96
14.49
13.98
13.49
13.03
12.59
12.09
11.34
10.22
8.70
6.85
4.84
2.80
0.78
-1.24
-3.33
-5.53
-7.82
-10.11
-12.30
-14.34
-16.35
-18.59
-21.37
-24.90
-29.10
-33.49
-37.29
-39.61
-39.81
-37.69
-33.57
-28.03
-21.79
-15.42
-9.29
-3.70
1.16
5.13
8.18
10.40
11.99
13.14
14.00
14.59
14.94
15.08
15.11
15.16
15.28
15.47
15.68
15.79
15.69
15.32
14.62
13.61
12.36
10.96
9.52
8.04
6.45
4.62
2.50
0.13
-2.31
-4.66
-6.73
-8.46
-9.90
-11.15
-12.38
-13.78
-15.56
-17.88
-20.77
-24.01
-27.13
-29.47
-30.37
-29.36
-26.32
-21.53
-15.59
-9.22
-3.09
2.27
6.61
9.83
12.00
13.29
13.87
13.97
13.78
13.48
13.23
13.12
13.19
13.46
13.83
14.24
14.55
14.69
14.60
14.31
13.84
13.19
12.27
10.93
9.06
6.62
3.82
0.96
-1.60
-3.64
-5.15
-6.31
-7.44
-8.85
-10.82
-13.54
-17.03
-21.10
-25.25
-28.74
-30.77
-30.74
-28.43
-24.13
-18.52
-12.37
-6.33
-0.78
4.19
8.58
12.39
15.47
17.63
18.74
18.88
18.34
17.62
17.15
17.19
17.69
18.39
19.00
19.35
19.45
19.42
19.39
19.48
19.83
20.63
22.04
23.91
25.58
25.78
23.07
16.42
5.93
-7.10
-20.53
-32.22
-40.82
-46.12
-48.94
-50.48
-51.73
-53.15
-54.72
-56.04
-56.68
-56.27
-54.45
-50.98
-45.74
-38.83
-30.57
-21.54
-12.47
-4.07
3.03
8.50
12.26
14.53
15.69
16.18
16.36
16.49
16.73
17.15
17.74
18.42
19.04
19.54
19.83
19.95
19.94
19.79
19.40
18.61
17.32
15.57
13.54
11.47
9.54
7.75
6.01
4.14
2.06
-0.24
-2.73
-5.37
-8.13
-11.02
-14.10
-17.38
-20.89
-24.55
-28.13
-31.22
-33.23
-33.59
-31.90
-28.18
-22.83
-16.50
-9.89
-3.59
2.02
6.75
10.51
13.27
15.09
16.09
16.49
16.56
16.53
16.53
16.66
16.94
17.39
18.02
18.79
19.54
20.09
20.20
19.74
18.69
17.18
15.39
13.45
11.43
9.29
6.97
4.43
1.73
-1.01
-3.67
-6.18
-8.50
-10.65
-12.69
-14.74
-16.94
-19.45
-22.36
-25.65
-29.10
-32.32
-34.73
-35.73
-34.82
-31.77
-26.73
-20.23
-13.05
-6.01
0.21
5.25
9.00
11.60
13.27
14.24
14.70
14.80
14.72
14.64
14.73
15.11
15.81
16.75
17.74
18.61
19.22
19.55
19.66
19.63
19.47
19.09
18.33
16.98
14.93
12.18
8.91
5.42
2.07
-0.90
-3.37
-5.48
-7.51
-9.78
-12.61
-16.05
-19.96
-23.89
-27.22
-29.33
-29.73
-28.20
-24.86
-20.12
-14.50
-8.55
-2.69
2.77
7.59
11.58
14.58
16.58
17.63
18.03
18.05
17.94
17.83
17.76
17.71
17.75
17.93
18.25
18.61
18.84
18.73
18.24
17.49
16.79
16.34
16.15
15.91
15.18
13.60
11.05
7.76
4.13
0.59
-2.63
-5.52
-8.24
-11.01
-14.02
-17.39
-21.15
-25.27
-29.61
-33.90
-37.60
-40.04
-40.53
-38.59
-34.14
-27.64
-19.92
-12.02
-4.82
1.19
5.92
9.54
12.32
14.43
16.01
17.13
17.92
18.56
19.16
19.69
20.07
20.16
19.95
19.57
19.23
19.15
19.40
19.85
20.24
20.26
19.70
18.48
16.67
14.43
11.89
9.19
6.43
3.65
0.95
-1.65
-4.16
-6.70
-9.44
-12.53
-16.06
-20.02
-24.24
-28.53
-32.59
-36.01
-38.28
-38.85
-37.25
-33.35
-27.48
-20.34
-12.89
-6.01
-0.24
4.27
7.71
10.42
12.71
14.71
16.41
17.72
18.54
18.84
18.71
18.32
17.89
17.63
17.65
18.02
18.64
19.32
19.84
19.95
19.51
18.50
17.01
15.21
13.21
11.08
8.77
6.27
3.56
0.72
-2.10
-4.77
-7.22
-9.54
-11.90
-14.52
-17.55
-21.03
-24.82
-28.63
-32.04
-34.56
-35.69
-35.03
-32.37
-27.79
-21.71
-14.78
-7.79
-1.47
3.71
7.63
10.42
12.38
13.79
14.81
15.53
15.95
16.12
16.19
16.32
16.67
17.24
17.86
18.29
18.32
17.89
17.13
16.30
15.58
14.98
14.28
13.18
11.47
9.22
6.73
4.37
2.40
0.81
-0.59
-2.09
-3.80
-5.71
-7.67
-9.57
-11.47
-13.61
-16.28
-19.59
-23.31
-26.84
-29.36
-30.08
-28.52
-24.73
-19.17
-12.63
-5.93
0.28
5.61
9.89
13.12
15.34
16.57
16.89
16.45
15.55
14.55
13.86
13.73
14.24
15.29
16.69
18.20
19.66
20.90
21.80
22.17
21.85
20.71
18.82
16.39
13.77
11.28
9.11
7.25
5.52
3.67
1.52
-0.95
-3.62
-6.29
-8.83
-11.21
-13.55
-16.05
-18.89
-22.14
-25.72
-29.39
-32.73
-35.20
-36.21
-35.29
-32.26
-27.34
-21.08
-14.28
-7.68
-1.85
2.93
6.64
9.39
11.34
12.64
13.47
14.00
14.43
14.85
15.26
15.56
15.69
15.72
15.79
16.07
16.62
17.32
17.94
18.18
17.89
17.15
16.15
15.07
13.96
12.72
11.20
9.27
6.89
4.17
1.26
-1.71
-4.63
-7.42
-10.10
-12.72
-15.40
-18.28
-21.50
-25.06
-28.79
-32.28
-34.90
-36.02
-35.08
-31.84
-26.51
-19.74
-12.42
-5.48
0.46
5.17
8.77
11.54
13.68
15.24
16.18
16.47
16.25
15.82
15.47
15.46
15.80
16.34
16.81
17.02
16.85
16.38
15.74
15.11
14.55
14.01
13.32
12.32
10.95
9.32
7.63
6.06
4.69
3.39
1.95
0.16
-2.10
-4.76
-7.62
-10.47
-13.18
-15.75
-18.38
-21.28
-24.67
-28.43
-32.13
-35.05
-36.34
-35.35
-31.89
-26.34
-19.50
-12.40
-5.93
-0.59
3.49
6.54
8.87
10.73
12.20
13.23
13.77
13.79
13.49
13.09
12.87
12.96
13.39
14.05
14.78
15.45
15.96
16.24
16.26
15.96
15.29
14.27
12.93
11.34
9.59
7.73
5.78
3.73
1.53
-0.80
-3.20
-5.53
-7.59
-9.25
-10.45
-11.37
-12.37
-13.85
-16.17
-19.38
-23.22
-27.12
-30.35
-32.21
-32.21
-30.12
-26.05
-20.44
-13.95
-7.31
-1.16
4.07
8.22
11.35
13.60
15.12
16.01
16.35
16.23
15.84
15.44
15.26
15.42
15.91
16.54
17.07
17.30
17.10
16.52
15.65
14.59
13.41
12.08
10.56
8.86
6.99
5.03
3.06
1.15
-0.70
-2.50
-4.27
-6.01
-7.74
-9.51
-11.43
-13.76
-16.68
-20.31
-24.50
-28.78
-32.40
-34.56
-34.57
-32.11
-27.35
-20.90
-13.62
-6.39
0.12
5.56
9.86
13.09
15.32
16.59
16.93
16.51
15.66
14.83
14.42
14.62
15.36
16.32
17.16
17.67
17.81
17.69
17.43
17.11
16.74
16.27
15.64
14.75
13.48
11.70
9.32
6.41
3.22
0.14
-2.43
-4.28
-5.47
-6.33
-7.36
-9.00
-11.47
-14.72
-18.48
-22.27
-25.57
-27.85
-28.64
-27.58
-24.53
-19.61
-13.17
-5.78
1.96
9.56
16.65
22.99
28.19
31.63
32.54
30.26
24.67
16.45
6.98
-2.09
-9.35
-14.13
-16.50
-17.06
-16.55
-15.49
-14.12
-12.50
-10.65
-8.68
-6.77
-5.11
-3.87
-3.16
-3.00
-3.35
-4.11
-5.16
-6.38
-7.67
-9.00
-10.40
-11.99
-13.90
-16.30
-19.28
-22.80
-26.63
-30.36
-33.47
-35.39
-35.66
-34.00
-30.39
-25.08
-18.54
-11.39
-4.24
2.38
8.12
12.75
16.25
18.67
20.14
20.86
21.01
20.75
20.25
19.69
19.24
18.99
18.96
19.02
18.98
18.64
17.89
16.75
15.33
13.82
12.31
10.82
9.33
7.79
6.17
4.52
2.89
1.33
-0.19
-1.73
-3.38
-5.23
-7.30
-9.63
-12.29
-15.43
-19.18
-23.57
-28.31
-32.76
-36.07
-37.38
-36.24
-32.65
-27.16
-20.56
-13.74
-7.31
-1.64
3.16
7.15
10.35
12.75
14.24
14.79
14.51
13.80
13.17
13.11
13.89
15.35
17.05
18.40
18.99
18.78
18.01
17.07
16.22
15.50
14.66
13.41
11.53
9.09
6.37
3.75
1.50
-0.30
-1.84
-3.40
-5.26
-7.62
-10.58
-14.10
-18.07
-22.20
-26.02
-28.85
-30.04
-29.10
-25.99
-21.12
-15.20
-9.02
-3.19
2.02
6.54
10.42
13.63
16.05
17.54
18.08
17.88
17.32
16.85
16.74
17.02
17.49
17.84
17.85
17.49
16.87
16.14
15.42
14.62
13.57
12.11
10.17
7.80
5.24
2.68
0.28
-1.88
-3.88
-5.79
-7.71
-9.75
-11.99
-14.54
-17.47
-20.82
-24.48
-28.17
-31.35
-33.33
-33.49
-31.44
-27.23
-21.38
-14.71
-8.03
-1.97
3.20
7.49
11.02
13.87
16.00
17.33
17.86
17.79
17.43
17.13
17.14
17.48
18.01
18.50
18.76
18.67
18.33
17.84
17.30
16.71
15.97
14.95
13.57
11.91
10.09
8.29
6.57
4.85
2.99
0.86
-1.52
-4.00
-6.45
-8.80
-11.22
-13.96
-17.25
-21.17
-25.54
-30.03
-34.12
-37.21
-38.70
-38.09
-35.12
-29.90
-22.95
-15.12
-7.35
-0.43
5.20
9.50
12.67
14.96
16.57
17.59
18.07
18.06
17.70
17.17
16.70
16.50
16.73
17.33
18.14
18.88
19.29
19.20
18.66
17.80
16.82
15.83
14.79
13.61
12.24
10.67
9.01
7.33
5.63
3.79
1.71
-0.61
-3.03
-5.36
-7.51
-9.59
-11.87
-14.67
-18.23
-22.48
-27.08
-31.40
-34.74
-36.37
-35.82
-32.97
-28.09
-21.77
-14.78
-7.82
-1.38
4.25
8.90
12.43
14.75
15.87
16.03
15.64
15.14
14.89
14.99
15.34
15.75
16.07
16.28
16.45
16.65
16.89
17.14
17.28
17.26
17.02
16.55
15.83
14.86
13.63
12.10
10.31
8.31
6.23
4.23
2.46
1.01
-0.25
-1.53
-3.13
-5.32
-8.15
-11.48
-14.96
-18.26
-21.13
-23.39
-24.94
-25.56
-24.93
-22.69
-18.65
-12.88
-5.74
2.22
10.42
18.41
25.71
31.68
35.43
36.07
33.04
26.58
17.80
8.44
0.27
-5.54
-8.65
-9.54
-9.07
-7.99
-6.69
-5.23
-3.53
-1.63
0.25
1.78
2.60
2.62
1.97
1.02
0.10
-0.61
-1.24
-2.09
-3.49
-5.56
-8.14
-10.82
-13.19
-15.08
-16.61
-18.18
-20.25
-23.10
-26.70
-30.62
-34.12
-36.35
-36.58
-34.43
-30.00
-23.78
-16.59
-9.27
-2.46
3.43
8.32
12.29
15.39
17.66
19.10
19.73
19.70
19.23
18.60
18.05
17.68
17.53
17.53
17.64
17.80
18.00
18.18
18.23
18.04
17.44
16.44
15.07
13.46
11.77
10.10
8.46
6.74
4.84
2.65
0.15
-2.52
-5.21
-7.69
-9.87
-11.76
-13.49
-15.26
-17.36
-19.96
-23.11
-26.55
-29.77
-32.05
-32.64
-31.06
-27.27
-21.72
-15.23
-8.68
-2.73
2.27
6.25
9.32
11.57
13.07
13.92
14.23
14.24
14.20
14.36
14.82
15.55
16.42
17.25
17.92
18.36
18.52
18.40
17.97
17.21
16.12
14.75
13.19
11.58
9.98
8.36
6.59
4.51
2.08
-0.65
-3.49
-6.23
-8.74
-11.02
-13.21
-15.49
-17.98
-20.73
-23.71
-26.79
-29.77
-32.28
-33.85
-33.99
-32.33
-28.74
-23.47
-17.06
-10.26
-3.77
1.85
6.34
9.70
12.06
13.58
14.44
14.72
14.55
14.10
13.60
13.25
13.20
13.42
13.76
14.04
14.12
14.00
13.74
13.41
12.98
12.39
11.51
10.22
8.53
6.50
4.32
2.15
0.13
-1.69
-3.43
-5.26
-7.34
-9.76
-12.47
-15.31
-18.16
-20.98
-23.85
-26.81
-29.68
-31.98
-33.03
-32.16
-29.08
-24.00
-17.57
-10.67
-4.12
1.60
6.26
9.81
12.28
13.66
14.01
13.54
12.60
11.63
11.02
11.00
11.57
12.56
13.70
14.72
15.39
15.63
15.42
14.88
14.18
13.46
12.75
11.96
10.89
9.38
7.36
4.93
2.32
-0.18
-2.38
-4.21
-5.75
-7.24
-8.93
-11.06
-13.76
-17.02
-20.64
-24.28
-27.47
-29.65
-30.30
-29.00
-25.65
-20.51
-14.20
-7.56
-1.35
3.89
7.98
10.98
13.10
14.49
15.24
15.39
15.01
14.29
13.49
12.90
12.69
12.89
13.36
13.90
14.29
14.39
14.22
13.85
13.42
12.93
12.26
11.19
9.48
7.07
4.09
0.82
-2.35
-5.14
-7.44
-9.34
-11.14
-13.16
-15.69
-18.86
-22.59
-26.56
-30.19
-32.76
-33.60
-32.27
-28.74
-23.39
-16.92
-10.11
-3.65
2.03
6.72
10.36
12.97
14.60
15.35
15.42
15.13
14.78
14.63
14.81
15.25
15.80
16.27
16.50
16.46
16.18
15.76
15.28
14.79
14.24
13.51
12.48
11.04
9.18
6.96
4.54
2.05
-0.40
-2.81
-5.21
-7.72
-10.46
-13.56
-17.05
-20.92
-24.98
-28.94
-32.31
-34.53
-35.12
-33.72
-30.27
-25.04
-18.56
-11.52
-4.62
1.51
6.52
10.35
13.20
15.37
17.07
18.36
19.10
19.16
18.51
17.38
16.19
15.33
15.03
15.23
15.65
15.95
15.95
15.61
15.00
14.24
13.34
12.28
10.96
9.33
7.36
5.09
2.59
0.01
-2.51
-4.81
-6.80
-8.49
-9.99
-11.47
-13.16
-15.29
-18.07
-21.57
-25.68
-30.02
-33.91
-36.56
-37.19
-35.39
-31.18
-25.06
-17.78
-10.18
-2.93
3.49
8.85
13.06
16.11
18.07
19.07
19.31
19.03
18.48
17.85
17.27
16.81
16.49
16.37
16.44
16.69
17.02
17.29
17.31
16.93
16.11
14.95
13.62
12.25
10.90
9.47
7.84
5.96
3.84
1.61
-0.61
-2.78
-4.94
-7.14
-9.45
-11.87
-14.40
-17.15
-20.33
-24.13
-28.55
-33.22
-37.37
-40.03
-40.41
-38.17
-33.57
-27.31
-20.28
-13.27
-6.79
-1.10
3.72
7.67
10.71
12.82
14.01
14.40
14.20
13.75
13.37
13.28
13.57
14.14
14.82
15.44
15.88
16.15
16.26
16.23
16.01
15.51
14.68
13.48
11.97
10.21
8.29
6.26
4.15
1.97
-0.30
-2.63
-4.98
-7.34
-9.72
-12.22
-15.03
-18.29
-21.94
-25.67
-28.85
-30.72
-30.62
-28.19
-23.53
-17.21
-10.08
-3.05
3.16
8.22
12.07
14.90
16.92
18.26
18.95
19.04
18.67
18.06
17.52
17.28
17.39
17.76
18.16
18.44
18.51
18.39
18.10
17.65
16.99
16.01
14.66
12.93
10.87
8.60
6.24
3.86
1.48
-0.91
-3.35
-5.88
-8.57
-11.46
-14.64
-18.17
-22.11
-26.39
-30.77
-34.85
-38.06
-39.77
-39.49
-37.01
-32.52
-26.52
-19.68
-12.66
-5.95
0.11
5.38
9.75
13.18
15.64
17.18
17.92
18.11
17.98
17.81
17.76
17.94
18.33
18.85
19.37
19.74
19.86
19.70
19.25
18.48
17.39
15.93
14.14
12.06
9.80
7.40
4.91
2.29
-0.45
-3.29
-6.12
-8.77
-11.10
-13.10
-14.87
-16.72
-19.01
-22.02
-25.77
-29.95
-33.87
-36.61
-37.37
-35.70
-31.74
-26.04
-19.42
-12.64
-6.21
-0.39
4.73
9.08
12.57
15.09
16.61
17.20
17.08
16.57
15.95
15.50
15.36
15.56
15.99
16.48
16.84
16.94
16.73
16.27
15.61
14.77
13.80
12.65
11.26
9.58
7.57
5.21
2.51
-0.43
-3.45
-6.33
-8.90
-11.04
-12.81
-14.43
-16.21
-18.49
-21.46
-25.12
-29.15
-33.04
-36.10
-37.64
-37.23
-34.67
-30.20
-24.29
-17.62
-10.80
-4.37
1.29
5.92
9.35
11.58
12.72
13.08
13.04
12.98
13.16
13.66
14.43
15.33
16.23
17.01
17.55
17.77
17.61
17.09
16.33
15.50
14.72
14.03
13.30
12.32
10.83
8.74
6.12
3.27
0.53
-1.82
-3.68
-5.23
-6.79
-8.73
-11.34
-14.73
-18.80
-23.22
-27.50
-31.01
-33.12
-33.32
-31.35
-27.34
-21.74
-15.29
-8.72
-2.64
2.61
6.95
10.44
13.22
15.37
16.96
18.10
18.96
19.69
20.45
21.26
22.02
22.58
22.79
22.59
22.01
21.14
20.03
18.73
17.17
15.30
13.10
10.61
7.94
5.22
2.56
0.02
-2.40
-4.73
-7.02
-9.31
-11.68
-14.23
-17.14
-20.55
-24.46
-28.55
-32.23
-34.66
-35.05
-32.97
-28.48
-22.16
-14.94
-7.74
-1.28
4.12
8.38
11.59
13.83
15.20
15.82
15.89
15.72
15.65
15.93
16.62
17.69
18.92
20.12
21.11
21.79
22.13
22.10
21.77
21.12
20.16
18.85
17.11
14.86
12.12
9.00
5.71
2.48
-0.49
-3.10
-5.36
-7.40
-9.38
-11.45
-13.81
-16.65
-20.12
-24.28
-28.89
-33.43
-37.14
-39.21
-39.03
-36.38
-31.57
-25.22
-18.16
-11.17
-4.79
0.70
5.28
8.95
11.81
13.92
15.35
16.25
16.82
17.30
17.87
18.62
19.48
20.34
21.04
21.54
21.82
21.93
21.92
21.77
21.45
20.84
19.88
18.57
16.95
15.17
13.35
11.58
9.87
8.18
6.43
4.51
2.33
-0.13
-2.80
-5.53
-8.17
-10.61
-12.98
-15.57
-18.75
-22.78
-27.55
-32.52
-36.84
-39.62
-40.17
-38.24
-34.04
-28.11
-21.20
-14.05
-7.23
-1.14
4.04
8.25
11.54
13.96
15.58
16.57
17.12
17.47
17.83
18.32
18.93
19.58
20.13
20.52
20.78
20.95
21.09
21.16
21.03
20.52
19.53
18.01
16.07
13.93
11.82
9.89
8.23
6.74
5.31
3.79
2.03
-0.01
-2.30
-4.73
-7.10
-9.28
-11.24
-13.10
-15.16
-17.73
-21.04
-25.09
-29.64
-34.19
-38.09
-40.65
-41.27
-39.59
-35.59
-29.64
-22.49
-15.00
-7.94
-1.82
3.19
7.13
10.16
12.41
13.96
14.91
15.37
15.54
15.62
15.75
15.96
16.17
16.28
16.26
16.18
16.18
16.34
16.64
16.93
17.06
16.90
16.47
15.86
15.15
14.30
13.20
11.69
9.70
7.30
4.68
2.10
-0.29
-2.42
-4.37
-6.29
-8.38
-10.82
-13.75
-17.25
-21.30
-25.63
-29.84
-33.34
-35.48
-35.68
-33.65
-29.41
-23.40
-16.30
-8.91
-1.95
4.08
8.97
12.67
15.29
16.96
17.87
18.21
18.17
17.98
17.84
17.83
17.99
18.23
18.47
18.66
18.82
18.97
19.13
19.19
19.03
18.47
17.46
16.05
14.40
12.64
10.84
9.00
7.04
4.96
2.77
0.58
-1.58
-3.74
-5.99
-8.41
-11.06
-13.93
-17.02
-20.40
-24.20
-28.46
-32.97
-37.16
-40.22
-41.29
-39.90
-36.07
-30.38
-23.64
-16.64
-9.93
-3.77
1.75
6.56
10.48
13.35
15.08
15.76
15.74
15.42
15.22
15.38
15.95
16.80
17.71
18.49
19.05
19.38
19.52
19.48
19.15
18.40
17.13
15.37
13.32
11.23
9.30
7.53
5.76
3.72
1.25
-1.57
-4.49
-7.16
-9.36
-11.10
-12.62
-14.27
-16.36
-19.06
-22.31
-25.90
-29.55
-32.91
-35.56
-37.04
-36.84
-34.60
-30.18
-23.87
-16.32
-8.44
-1.15
4.88
9.39
12.48
14.51
15.91
16.96
17.77
18.28
18.40
18.08
17.37
16.46
15.58
14.87
14.39
14.09
13.86
13.62
13.31
12.95
12.51
11.91
11.01
9.72
8.05
6.10
4.03
1.97
-0.02
-2.01
-4.09
-6.29
-8.57
-10.80
-12.83
-14.60
-16.23
-17.98
-20.16
-22.92
-26.18
-29.48
-32.11
-33.30
-32.46
-29.39
-24.33
-17.91
-10.92
-4.16
1.83
6.76
10.57
13.36
15.21
16.23
16.49
16.12
15.36
14.50
13.82
13.51
13.58
13.91
14.34
14.70
14.94
15.03
14.94
14.66
14.11
13.25
12.07
10.59
8.85
6.92
4.89
2.89
1.03
-0.58
-1.93
-3.13
-4.39
-5.93
-7.94
-10.53
-13.74
-17.47
-21.56
-25.71
-29.44
-32.19
-33.35
-32.51
-29.57
-24.78
-18.71
-12.07
-5.53
0.43
5.54
9.71
12.87
15.09
16.37
16.84
16.69
16.18
15.59
15.15
14.96
15.01
15.22
15.50
15.78
16.03
16.20
16.18
15.83
15.07
13.90
12.42
10.82
9.24
7.77
6.37
4.87
3.09
0.86
-1.82
-4.74
-7.54
-9.88
-11.61
-12.92
-14.23
-16.07
-18.79
-22.42
-26.69
-31.12
-35.15
-38.20
-39.68
-39.07
-36.07
-30.73
-23.60
-15.60
-7.77
-0.95
4.49
8.52
11.34
13.21
14.33
14.92
15.18
15.34
15.54
15.84
16.13
16.29
16.30
16.25
16.27
16.42
16.66
16.85
16.84
16.53
15.86
14.85
13.50
11.85
9.99
8.08
6.23
4.48
2.76
0.96
-1.02
-3.13
-5.30
-7.40
-9.38
-11.35
-13.47
-15.95
-18.94
-22.52
-26.58
-30.86
-34.89
-38.08
-39.82
-39.64
-37.35
-33.15
-27.52
-21.14
-14.66
-8.55
-3.07
1.73
5.87
9.36
12.13
14.09
15.21
15.57
15.38
14.97
14.64
14.62
14.96
15.56
16.28
16.97
17.56
17.97
18.17
18.04
17.43
16.18
14.28
11.92
9.40
7.07
5.09
3.45
1.91
0.17
-1.94
-4.41
-7.09
-9.73
-12.19
-14.50
-16.81
-19.37
-22.37
-25.82
-29.51
-32.99
-35.70
-37.06
-36.63
-34.24
-30.03
-24.39
-17.89
-11.18
-4.84
0.69
5.18
8.56
10.87
12.25
12.88
12.99
12.79
12.52
12.37
12.50
12.96
13.72
14.60
15.37
15.82
15.79
15.31
14.46
13.38
12.17
10.84
9.31
7.51
5.39
3.01
0.49
-2.00
-4.34
-6.47
-8.46
-10.43
-12.59
-15.07
-17.96
-21.21
-24.62
-27.78
-30.18
-31.23
-30.44
-27.63
-23.00
-17.09
-10.69
-4.52
0.92
5.42
9.00
11.77
13.79
15.06
15.61
15.54
15.12
14.61
14.30
14.27
14.47
14.72
14.85
14.73
14.35
13.84
13.30
12.80
12.26
11.53
10.41
8.75
6.56
4.03
1.45
-0.92
-2.92
-4.60
-6.12
-7.76
-9.74
-12.22
-15.25
-18.83
-22.90
-27.29
-31.65
-35.44
-37.97
-38.62
-37.08
-33.43
-28.19
-22.06
-15.68
-9.48
-3.65
1.72
6.55
10.70
13.99
16.37
17.90
18.84
19.43
19.94
20.48
21.10
21.73
