1703071465.00
64.000000
-0.00
-0.00
-0.00
-0.00
-0.00
-0.00
-0.00
-0.00
-0.00
-0.00
0.00
0.01
0.01
-0.00
-0.03
-0.05
-0.05
0.00
0.13
0.36
0.66
1.01
1.37
1.72
2.06
2.40
2.79
3.24
3.80
4.42
5.06
5.66
6.20
6.68
7.15
7.68
8.31
9.14
10.09
11.04
11.88
12.56
13.14
13.76
14.65
15.96
17.91
20.32
22.90
25.38
27.58
29.57
31.68
34.32
37.81
42.54
48.15
54.10
59.83
64.97
69.58
74.14
79.34
85.71
93.76
103.00
112.62
121.73
129.77
136.75
143.30
150.75
157.77
166.64
177.95
191.79
206.97
220.57
228.25
225.36
208.53
176.87
132.76
80.05
23.07
-34.94
-92.44
-149.16
-205.23
-260.37
-313.74
-363.87
-409.83
-450.91
-486.50
-515.74
-537.23
-549.22
-549.96
-538.37
-514.21
-478.67
-433.88
-382.45
-327.02
-269.84
-212.63
-156.66
-102.95
-52.37
-5.90
35.58
71.43
101.35
125.50
144.38
158.69
169.15
176.37
180.75
182.57
182.07
179.51
175.23
169.65
163.18
156.15
148.81
141.30
133.69
126.02
118.33
110.69
103.16
95.80
88.68
81.83
75.25
68.95
62.95
57.25
51.86
46.78
42.03
37.59
33.45
29.61
26.07
22.81
19.83
17.11
14.67
12.48
10.54
8.83
7.35
6.07
4.97
4.05
3.27
2.62
2.09
1.65
1.30
1.01
0.79
0.61
0.48
0.37
0.29
0.24
0.20
0.18
0.17
0.18
0.19
0.21
0.24
0.27
0.31
0.35
0.39
0.43
0.48
0.53
0.57
0.62
0.68
0.73
0.79
0.86
0.93
1.02
1.10
1.21
1.32
1.44
1.59
1.75
1.92
2.12
2.33
2.58
2.84
3.13
3.45
3.81
4.19
4.60
5.05
5.53
6.05
6.61
7.21
7.84
8.52
9.24
10.01
10.82
11.67
12.56
13.51
14.52
15.59
16.72
17.90
19.12
20.33
21.48
22.50
23.29
23.72
23.68
23.05
21.75
19.75
17.01
13.63
9.65
5.27
0.68
-3.92
-8.31
-12.29
-15.69
-18.40
-20.37
-21.58
-22.07
-21.95
-21.32
-20.32
-19.05
-17.64
-16.18
-14.72
-13.33
-12.01
-10.79
-9.64
-8.53
-7.38
-6.14
-4.77
-3.25
-1.57
0.34
2.39
4.61
7.02
9.72
12.75
16.15
19.89
23.95
28.35
32.85
37.34
41.81
46.27
50.72
55.08
59.23
63.05
66.55
69.45
71.78
73.77
75.76
77.98
80.45
83.06
85.53
87.75
89.16
89.71
89.59
89.02
87.96
85.83
81.37
72.55
61.08
47.21
31.41
14.38
-3.11
-20.49
-37.60
-54.62
-71.97
-90.14
-110.23
-133.01
-158.62
-186.07
-212.96
-235.73
-250.56
-254.65
-247.29
-230.60
-208.22
-184.11
-161.26
-141.06
-123.54
-108.08
-94.15
-81.51
-70.47
-61.11
-53.15
-46.06
-39.39
-33.01
-27.11
-22.04
-17.97
-14.69
-11.44
-7.12
-0.77
8.07
19.04
31.13
42.91
53.06
60.71
65.65
68.20
69.00
68.62
67.40
65.38
62.44
58.51
53.72
48.42
43.13
38.32
34.37
31.46
29.61
28.71
28.53
28.72
28.90
28.70
27.98
26.73
25.07
23.08
20.72
17.82
14.21
9.83
4.84
-0.38
-5.34
-9.51
-12.40
-13.60
-12.89
-10.32
-6.21
-1.18
4.02
8.72
12.46
15.05
16.41
16.59
15.62
13.62
10.85
7.78
4.91
2.71
1.42
0.94
1.01
1.25
1.41
1.37
1.16
0.83
0.40
-0.19
-1.04
-2.20
-3.61
-5.11
-6.51
-7.69
-8.74
-9.89
-11.46
-13.60
-16.14
-18.59
-20.14
-20.08
-17.93
-13.65
-7.69
-0.77
6.31
12.88
18.49
22.91
26.12
28.21
29.33
29.62
29.22
28.22
26.77
25.01
23.17
21.48
20.14
19.20
18.59
18.05
17.24
15.91
13.97
11.53
8.86
6.20
3.64
1.07
-1.66
-4.73
-8.13
-11.72
-15.23
-18.37
-20.86
-22.42
-22.78
-21.70
-19.12
-15.19
-10.39
-5.35
-0.72
3.01
5.64
7.17
7.80
7.68
6.96
5.78
4.27
2.69
1.28
0.28
-0.19
-0.19
0.05
0.27
0.29
0.08
-0.23
-0.48
-0.60
-0.74
-1.15
-2.09
-3.66
-5.73
-8.02
-10.30
-12.46
-14.60
-16.85
-19.16
-21.23
-22.47
-22.25
-20.20
-16.30
-11.06
-5.21
0.42
5.25
9.01
11.71
13.56
14.77
15.43
15.53
14.98
13.77
12.01
9.96
7.96
6.31
5.16
4.48
4.11
3.86
3.59
3.25
2.82
2.32
1.71
0.96
0.04
-1.05
-2.34
-3.86
-5.72
-8.01
-10.71
-13.63
-16.37
-18.32
-18.87
-17.59
-14.40
-9.63
-3.94
1.87
7.13
11.42
14.62
16.75
17.89
18.02
17.14
15.35
12.94
10.36
8.10
6.49
5.61
5.26
5.07
4.72
3.97
2.78
1.26
-0.40
-1.99
-3.42
-4.68
-5.94
-7.45
-9.51
-12.29
-15.79
-19.79
-23.87
-27.45
-29.89
-30.59
-29.16
-25.56
-20.16
-13.68
-7.05
-1.13
3.44
6.41
7.86
8.12
7.57
6.58
5.44
4.30
3.31
2.57
2.26
2.50
3.40
4.92
6.84
8.79
10.34
11.15
11.06
10.06
8.28
5.86
2.85
-0.70
-4.73
-9.06
-13.43
-17.53
-21.08
-23.90
-25.79
-26.51
-25.74
-23.14
-18.65
-12.50
-5.36
1.87
8.33
13.44
16.99
19.10
20.05
20.09
19.37
17.96
15.90
13.27
10.27
7.18
4.41
2.33
1.24
1.24
2.13
3.54
4.97
5.98
6.35
6.09
5.36
4.35
3.13
1.65
-0.22
-2.53
-5.25
-8.24
-11.38
-14.62
-17.86
-20.91
-23.33
-24.50
-23.78
-20.75
-15.46
-8.47
-0.68
6.99
13.81
19.39
23.61
26.53
28.18
28.58
27.76
25.84
23.10
19.92
16.76
13.94
11.64
9.82
8.40
7.31
6.56
6.22
6.25
6.44
6.45
5.94
4.69
2.73
0.25
-2.51
-5.43
-8.50
-11.84
-15.51
-19.52
-23.75
-28.02
-32.00
-35.26
-37.26
-37.42
-35.33
-30.96
-24.72
-17.39
-9.84
-2.76
3.51
8.89
13.43
17.11
19.78
21.27
21.56
20.87
19.61
18.25
17.11
16.27
15.58
14.83
13.86
12.75
11.67
10.87
10.48
10.42
10.43
10.19
9.43
8.08
6.23
4.11
1.91
-0.23
-2.34
-4.47
-6.77
-9.30
-12.13
-15.25
-18.55
-21.79
-24.62
-26.58
-27.26
-26.36
-23.82
-19.85
-14.81
-9.21
-3.51
1.84
6.51
10.28
12.99
14.62
15.25
15.08
14.37
13.38
12.36
11.47
10.81
10.40
10.26
10.32
10.52
10.73
10.91
11.05
11.13
11.13
11.00
10.58
9.78
8.57
7.01
5.29
3.55
1.88
0.27
-1.37
-3.11
-4.91
-6.77
-8.60
-10.27
-11.66
-12.83
-13.91
-15.21
-16.83
-18.56
-19.87
-20.06
-18.49
-14.84
-9.38
-2.80
3.95
10.13
15.39
19.61
22.89
25.50
27.79
29.93
32.08
34.11
35.94
37.64
38.76
38.97
38.44
37.86
37.92
39.31
41.74
44.63
47.46
48.41
46.01
40.15
32.13
23.69
16.76
11.58
8.02
6.02
3.44
-1.70
-9.71
-19.24
-28.76
-36.63
-43.83
-51.63
-60.81
-74.28
-94.43
-121.19
-152.23
-185.06
-217.16
-249.26
-282.17
-298.24
-284.95
-243.14
-186.32
-129.50
-89.84
-63.33
-46.21
-36.90
-35.54
-42.26
-58.40
-82.04
-107.55
-127.96
-136.40
-131.24
-113.96
-88.23
-60.74
-37.72
-21.64
-10.74
-0.88
13.17
33.48
60.11
91.30
122.52
148.68
166.71
176.46
179.80
180.01
178.93
177.61
176.34
174.35
170.76
165.66
160.08
155.10
151.56
148.92
146.27
142.82
138.07
132.04
125.38
119.13
114.07
110.59
108.24
106.29
103.95
100.83
96.94
92.75
88.95
85.94
83.62
81.21
77.54
71.51
62.69
51.62
39.71
28.70
19.82
13.40
8.65
4.25
-1.07
-7.87
-15.92
-24.45
-32.66
-40.08
-46.66
-52.66
-58.26
-63.53
-68.40
-72.74
-76.44
-79.36
-81.30
-82.01
-81.37
-79.53
-77.01
-74.64
-73.17
-72.95
-73.65
-74.28
-73.40
-69.68
-62.11
-50.43
-35.16
-17.41
1.31
19.31
34.97
47.11
55.19
59.75
62.05
63.45
64.83
65.91
65.23
60.53
49.85
32.24
8.58
-18.99
-47.89
-75.51
-99.96
-120.27
-136.32
-148.00
-154.83
-155.18
-147.32
-130.59
-105.85
-76.31
-47.05
-23.60
-7.43
0.31
0.63
-3.83
-9.73
-13.13
-11.33
-1.19
19.06
48.91
85.06
123.03
156.11
174.13
170.87
148.51
115.91
82.42
53.03
27.68
4.46
-17.83
-38.26
-55.21
-66.32
-71.09
-71.27
-69.66
-68.53
-68.49
-68.86
-68.49
-66.23
-59.98
-50.56
-40.27
-31.51
-25.64
-22.64
-21.64
-21.51
-21.15
-19.84
-18.04
-16.68
-16.59
-18.13
-21.02
-24.62
-28.11
-30.57
-31.11
-29.48
-25.74
-20.26
-13.50
-5.99
1.70
9.03
15.60
21.17
25.44
28.24
29.58
29.62
28.57
26.72
24.30
21.55
18.77
16.27
14.26
12.83
11.80
10.85
9.58
7.74
5.36
2.67
-0.01
-2.46
-4.67
-6.84
-9.30
-12.42
-16.48
-21.56
-27.53
-33.90
-39.86
-44.38
-46.49
-45.59
-41.66
-35.38
-27.76
-19.87
-12.46
-5.76
0.34
6.04
11.38
16.20
20.27
23.52
26.15
28.66
31.60
35.26
39.54
43.93
47.71
50.26
51.24
50.63
48.67
45.59
41.57
36.67
30.81
23.75
15.06
4.07
-9.87
-26.98
-46.49
-66.35
-83.37
-94.10
-95.80
-87.48
-70.15
-46.52
-20.07
5.81
28.55
46.64
59.63
67.82
71.99
73.07
71.76
68.36
62.33
52.33
36.66
14.28
-14.02
-45.02
-73.34
-92.74
-97.94
-86.71
-60.84
-25.61
12.13
46.10
72.31
89.39
97.90
99.50
95.42
85.62
68.86
43.53
8.80
-34.41
-83.06
-132.29
-175.07
-204.78
-217.08
-210.78
-187.41
-150.19
-103.35
-51.71
-0.46
47.86
91.25
127.65
154.96
172.09
179.54
178.88
171.62
158.41
143.23
129.34
117.68
106.87
95.41
83.85
75.24
73.78
82.77
108.62
153.96
215.63
285.50
354.82
418.03
473.29
520.46
530.10
483.11
381.07
248.83
117.41
6.96
-76.33
-135.15
-172.95
-198.51
-211.79
-211.35
-198.82
-180.41
-164.07
-155.50
-156.13
-164.07
-175.97
-184.22
-183.59
-173.61
-158.33
-143.20
-131.88
-125.40
-123.04
-123.71
-123.58
-119.70
-111.02
-98.63
-84.39
-69.49
-54.27
-38.66
-22.82
-5.76
12.92
32.54
51.31
67.12
78.53
85.21
87.77
87.30
85.28
82.17
76.89
67.27
51.26
28.32
-0.10
-30.90
-60.63
-86.58
-107.55
-123.74
-136.03
-145.21
-151.56
-155.11
-155.90
-154.40
-151.38
-147.59
-143.38
-138.42
-131.91
-122.96
-111.17
-96.89
-81.19
-65.50
-51.13
-38.86
-28.77
-20.46
-13.29
-6.78
-0.76
4.69
9.29
12.87
15.42
17.18
18.45
19.56
20.76
22.17
23.86
25.86
28.12
30.45
32.54
33.97
34.37
33.57
31.68
29.04
26.09
23.26
20.76
18.65
16.79
14.98
13.08
11.01
8.81
6.56
4.35
2.21
0.07
-2.19
-4.68
-7.38
-10.19
-12.86
-15.16
-16.83
-17.62
-17.30
-15.60
-12.40
-7.73
-1.98
4.31
10.44
15.87
20.26
23.53
25.79
27.17
27.81
27.82
27.32
26.47
25.42
24.35
23.35
22.55
21.99
21.72
21.71
21.85
21.98
21.96
21.68
21.10
20.23
19.07
17.65
16.03
14.28
12.52
10.85
9.28
7.75
6.19
4.55
2.88
1.31
-0.01
-0.96
-1.53
-1.85
-2.14
-2.65
-3.66
-5.34
-7.68
-10.44
-13.19
-15.40
-16.59
-16.46
-14.95
-12.24
-8.68
-4.71
-0.73
2.96
6.17
8.88
11.09
12.83
14.12
14.96
15.35
15.38
15.20
15.00
14.93
15.08
15.36
15.65
15.77
15.60
15.18
14.63
14.06
13.55
13.04
12.39
11.52
10.44
9.32
8.40
7.79
7.40
6.99
6.23
4.93
3.17
1.26
-0.41
-1.58
-2.24
-2.71
-3.46
-4.92
-7.27
-10.26
-13.29
-15.65
-16.81
-16.73
-15.93
-15.27
-15.56
-17.03
-19.16
-20.80
-20.68
-18.00
-12.98
-6.92
-1.86
0.33
-1.35
-6.45
-13.18
-19.16
-22.38
-21.99
-18.53
-13.64
-9.63
-9.02
-14.37
-27.89
-50.57
-80.89
-114.15
-143.12
-160.56
-162.16
-148.53
-124.63
-96.90
-69.78
-43.69
-15.85
16.53
53.12
89.12
117.17
130.90
128.25
112.33
89.78
67.52
50.02
38.38
31.19
26.47
23.18
21.62
22.64
26.49
32.22
37.98
41.93
43.23
42.47
41.35
41.79
44.87
50.43
57.27
63.82
68.73
71.11
70.99
69.18
67.07
65.67
65.49
66.38
67.68
68.44
67.20
63.12
56.13
47.23
37.17
26.62
16.09
6.10
-2.94
-11.70
-20.85
-31.00
-42.04
-54.52
-68.66
-84.19
-99.92
-113.99
-125.28
-132.11
-132.56
-124.44
-108.09
-85.81
-61.50
-39.28
-15.65
9.52
34.44
51.49
61.13
64.18
62.97
58.19
50.80
42.52
34.30
27.35
22.61
21.05
21.82
23.59
25.03
25.66
25.70
24.89
23.45
21.82
21.00
20.79
20.65
19.82
18.06
15.57
12.36
8.72
5.11
2.24
0.01
-1.86
-3.75
-5.74
-7.66
-9.47
-11.09
-12.39
-13.19
-13.60
-13.80
-13.83
-13.55
-12.75
-11.54
-10.41
-10.09
-11.27
-14.33
-19.03
-24.62
-29.90
-33.84
-35.68
-35.13
-32.16
-27.05
-20.24
-12.37
-4.19
3.60
10.63
16.89
22.65
28.22
33.69
38.87
43.44
47.13
49.81
51.44
51.85
50.64
47.32
41.50
33.24
23.14
12.09
1.04
-9.31
-18.55
-26.57
-33.31
-38.72
-42.85
-45.79
-47.82
-49.29
-50.48
-51.58
-52.63
-53.58
-54.36
-54.92
-55.16
-54.94
-54.11
-52.60
-50.46
-47.82
-44.91
-41.91
-39.02
-36.35
-34.00
-32.00
-30.28
-28.64
-26.76
-24.32
-21.08
-17.00
-12.17
-6.79
-0.98
5.31
12.18
19.85
28.42
37.92
48.14
58.61
68.68
77.52
84.39
88.72
90.31
89.37
86.38
82.04
77.02
71.86
66.96
62.62
59.05
56.39
54.72
54.01
54.12
54.91
56.22
57.82
59.21
59.45
57.35
51.66
41.57
27.14
9.22
-10.82
-31.67
-52.65
-73.84
-95.85
-119.27
-144.12
-169.54
-193.76
-214.59
-229.87
-238.11
-238.76
-232.19
-219.37
-201.60
-180.21
-156.63
-132.36
-108.87
-87.34
-68.36
-51.85
-37.10
-23.27
-9.66
4.05
17.91
31.85
45.74
59.46
72.76
85.15
96.01
104.68
110.61
113.45
113.13
109.90
104.34
97.25
89.43
81.42
73.44
65.47
57.51
49.79
42.78
37.02
32.74
29.75
27.45
25.23
22.75
20.25
18.42
17.97
19.24
21.88
24.98
27.37
28.16
27.00
24.18
20.42
16.47
12.87
9.70
6.83
4.06
1.42
-0.80
-2.25
-2.71
-2.35
-1.70
-1.42
-2.02
-3.51
-5.44
-7.09
-7.91
-7.75
-7.01
-6.34
-6.33
-7.17
-8.57
-9.98
-10.81
-10.90
-10.48
-10.12
-10.39
-11.56
-13.48
-15.63
-17.35
-18.04
-17.37
-15.27
-12.01
-8.05
-4.03
-0.51
2.12
3.80
4.73
5.23
5.55
5.77
5.71
5.20
4.17
2.76
1.20
-0.27
-1.51
-2.51
-3.25
-3.70
-3.76
-3.41
-2.66
-1.64
-0.57
0.27
0.69
0.54
-0.23
-1.50
-3.10
-4.78
-6.33
-7.63
-8.76
-9.87
-11.19
-12.90
-15.03
-17.47
-19.87
-21.66
-22.22
-21.08
-18.07
-13.53
-8.22
-3.09
1.08
3.92
5.54
6.37
6.85
7.21
7.43
7.24
6.45
5.06
3.39
1.87
0.94
0.78
1.24
1.93
2.40
2.40
1.96
1.38
0.97
0.91
1.09
1.22
0.91
-0.05
-1.64
-3.58
-5.47
-6.99
-7.99
-8.65
-9.25
-10.08
-11.24
-12.61
-13.99
-15.22
-16.29
-17.24
-18.06
-18.48
-18.00
-16.09
-12.51
-7.49
-1.72
3.88
8.54
11.82
13.76
14.60
14.66
14.13
13.03
11.33
9.07
6.53
4.11
2.31
1.44
1.56
2.35
3.32
3.98
4.08
3.74
3.31
3.18
3.55
4.29
5.06
5.44
5.15
4.14
2.56
0.66
-1.39
-3.52
-5.74
-7.97
-10.08
-11.90
-13.39
-14.68
-16.11
-18.00
-20.49
-23.28
-25.71
-26.95
-26.26
-23.35
-18.42
-12.21
-5.59
0.54
5.53
9.10
11.25
12.24
12.40
12.07
11.47
10.72
9.84
8.85
7.76
6.66
5.69
4.95
4.51
4.23
3.96
3.51
2.85
2.17
1.76
1.84
2.41
3.18
3.69
3.59
2.77
1.49
0.10
-1.09
-2.07
-3.07
-4.40
-6.23
-8.49
-10.97
-13.49
-16.08
-18.97
-22.32
-26.00
-29.45
-31.66
-31.67
-28.94
-23.64
-16.63
-9.14
-2.32
3.17
7.27
10.31
12.73
14.84
16.67
18.07
18.90
19.12
18.80
18.10
17.17
16.06
14.80
13.43
12.06
10.87
10.06
9.76
9.89
10.20
10.33
10.02
9.18
7.91
6.43
4.84
3.14
1.19
-1.13
-3.76
-6.49
-9.02
-11.16
-12.93
-14.51
-16.22
-18.35
-21.14
-24.62
-28.54
-32.35
-35.23
-36.29
-34.90
-30.93
-24.81
-17.44
-9.85
-2.90
2.89
7.35
10.59
12.80
14.22
15.04
15.44
15.60
15.68
15.79
16.08
16.54
17.09
17.56
17.87
18.00
18.16
18.57
19.35
20.38
21.28
21.56
20.89
19.17
16.56
13.35
9.77
6.02
2.23
-1.47
-4.93
-8.05
-10.86
-13.57
-16.48
-19.92
-24.05
-28.78
-33.68
-38.08
-41.13
-42.09
-40.45
-36.21
-29.83
-22.12
-14.00
-6.25
0.65
6.48
11.16
14.66
16.97
18.16
18.43
18.11
17.57
17.13
16.91
16.83
16.72
16.38
15.73
14.79
13.71
12.68
11.80
11.08
10.41
9.56
8.26
6.30
3.62
0.40
-3.03
-6.28
-9.04
-11.23
-12.96
-14.59
-16.52
-19.14
-22.69
-27.16
-32.24
-37.22
-41.14
-42.96
-41.89
-37.70
-30.84
-22.35
-13.47
-5.27
1.70
7.40
12.09
16.01
19.17
21.36
22.31
21.98
20.67
18.90
17.22
16.02
15.33
14.96
14.60
14.05
13.27
12.35
11.46
10.71
10.14
9.58
8.80
7.43
5.24
2.14
-1.70
-5.89
-9.91
-13.39
-16.26
-18.79
-21.47
-24.88
-29.36
-34.87
-40.97
-46.82
-51.40
-53.77
-53.18
-49.36
-42.51
-33.29
-22.71
-11.82
-1.59
7.37
14.75
20.52
24.75
27.59
29.18
29.67
29.30
28.36
27.15
25.91
24.78
23.73
22.67
21.57
20.46
19.56
19.16
19.45
20.37
21.55
22.29
21.90
19.87
16.14
11.16
5.68
0.41
-4.18
-8.09
-11.65
-15.37
-19.72
-25.00
-31.28
-38.39
-45.81
-52.67
-57.83
-60.08
-58.42
-52.44
-42.48
-29.64
-15.47
-1.57
10.73
20.70
28.15
33.40
36.94
39.29
40.84
41.75
42.13
41.95
41.30
40.25
38.91
37.42
35.89
34.44
33.23
32.34
31.71
31.09
30.08
28.31
25.57
21.91
17.61
12.98
8.21
3.40
-1.42
-6.19
-10.69
-14.75
-18.34
-21.69
-25.25
-29.55
-34.89
-41.23
-48.14
-54.95
-60.77
-64.67
-65.70
-63.12
-56.56
-46.27
-33.18
-18.72
-4.37
8.78
20.24
30.05
38.37
45.16
50.05
52.67
52.92
51.33
48.87
46.61
45.30
45.00
45.31
45.57
45.33
44.49
43.15
41.58
39.93
38.27
36.60
34.99
33.50
32.14
30.78
29.07
26.67
23.27
18.81
13.51
7.86
2.41
-2.42
-6.37
-9.46
-11.89
-14.00
-16.10
-18.49
-21.37
-24.80
-28.51
-31.90
-34.02
-33.86
-30.62
-23.87
-13.68
-0.14
16.88
37.85
63.13
92.12
122.63
150.91
172.62
184.25
184.34
173.80
155.30
132.22
107.72
84.34
63.85
47.44
35.52
27.58
22.08
16.88
9.90
0.01
-12.67
-27.02
-41.59
-55.22
-67.30
-77.63
-85.97
-91.77
-94.39
-93.42
-89.28
-83.38
-77.65
-73.87
-72.80
-73.94
-75.78
-76.70
-75.76
-73.16
-69.92
-67.29
-66.03
-66.07
-66.63
-66.80
-66.00
-64.35
-62.41
-60.73
-59.38
-57.72
-54.67
-49.31
-41.48
-32.02
-22.50
-14.48
-8.81
-5.20
-2.52
0.54
4.81
10.28
16.25
21.85
26.46
29.93
32.46
34.33
35.65
36.30
36.03
34.61
31.94
28.13
23.45
18.37
13.46
9.26
6.18
4.38
3.65
3.52
3.47
3.12
2.32
1.08
-0.55
-2.70
-5.52
-9.11
-13.25
-17.41
-20.97
-23.56
-25.35
-26.98
-29.33
-32.88
-37.42
-41.95
-45.01
-45.18
-41.62
-34.29
-23.90
-11.67
1.06
13.14
23.83
32.85
40.20
45.97
50.15
52.62
53.24
52.06
49.31
45.53
41.38
37.53
34.55
32.77
32.25
32.83
34.20
35.92
37.56
38.69
38.98
38.23
36.44
33.84
30.77
27.65
24.71
21.96
19.12
15.79
11.67
6.74
1.25
-4.38
-9.74
-14.57
-18.78
-22.45
-25.68
-28.61
-31.44
-34.42
-37.83
-41.82
-46.16
-50.19
-52.82
-52.93
-49.70
-43.03
-33.57
-22.56
-11.35
-1.14
7.45
14.26
19.54
23.62
26.80
29.22
30.91
31.83
32.01
31.60
30.80
29.88
29.08
28.50
28.17
28.00
27.86
27.67
27.37
26.93
26.37
25.68
24.87
23.93
22.84
21.50
19.76
17.52
14.76
11.65
8.44
5.38
2.59
-0.05
-2.73
-5.60
-8.69
-11.83
-14.94
-18.10
-21.69
-26.11
-31.59
-37.77
-43.73
-48.16
-49.86
-48.15
-43.16
-35.74
-27.12
-18.46
-10.50
-3.44
2.89
8.74
14.13
18.75
22.11
23.74
23.50
21.72
19.01
16.08
13.55
11.73
10.67
10.27
10.27
10.37
10.21
9.47
7.94
5.55
2.45
-1.16
-5.14
-9.49
-14.39
-20.02
-26.38
-33.13
-39.60
-44.92
-48.37
-49.61
-48.95
-47.22
-45.62
-45.15
-46.12
-47.96
-49.28
-48.42
-43.96
-35.27
-22.68
-7.21
9.80
27.10
43.72
59.02
72.60
84.18
93.69
101.16
106.77
110.53
112.14
110.98
106.34
97.86
85.98
71.94
57.50
44.37
33.65
25.56
19.64
15.08
11.17
7.51
3.96
0.51
-2.81
-5.94
-8.74
-10.97
-12.43
-13.22
-13.76
-14.74
-16.93
-20.79
-26.24
-32.71
-39.26
-45.00
-49.34
-52.14
-53.63
-54.23
-54.44
-54.68
-55.19
-55.88
-56.21
-55.36
-52.39
-46.67
-38.26
-27.94
-16.97
-6.62
2.29
9.53
15.33
20.01
23.73
26.40
27.83
27.92
26.75
24.60
21.78
18.58
15.29
12.20
9.60
7.69
6.51
5.85
5.32
4.51
3.17
1.31
-0.85
-3.04
-5.11
-7.15
-9.47
-12.39
-16.06
-20.24
-24.38
-27.85
-30.18
-31.37
-31.93
-32.61
-34.06
-36.33
-38.63
-39.28
-36.16
-27.25
-11.33
11.52
39.63
70.19
99.79
125.27
144.69
158.02
167.45
176.85
190.29
210.21
236.13
264.27
288.83
303.99
305.89
293.53
268.28
232.83
190.13
142.86
93.63
45.15
-0.03
-40.13
-74.59
-103.99
-129.24
-150.87
-168.84
-182.86
-193.00
-200.01
-205.00
-208.80
-211.53
-212.67
-211.59
-208.22
-203.22
-197.61
-192.22
-187.30
-182.45
-177.03
-170.61
-163.14
-154.90
-146.22
-137.18
-127.59
-117.02
-105.13
-91.83
-77.41
-62.50
-47.86
-34.27
-22.29
-12.30
-4.48
1.15
4.77
6.77
7.71
8.33
9.22
10.81
13.19
16.20
19.53
22.85
25.93
28.56
30.55
31.70
31.88
31.08
29.50
27.35
24.86
22.08
18.92
15.20
10.86
6.04
1.13
-3.37
-7.05
-9.82
-11.86
-13.64
-15.71
-18.55
-22.38
-27.03
-31.90
-36.03
-38.35
-37.97
-34.52
-28.27
-20.11
-11.22
-2.64
4.93
11.31
16.61
20.99
24.46
26.93
28.26
28.53
28.01
27.15
26.36
25.88
25.62
25.32
24.65
23.42
21.71
19.78
18.04
16.77
16.01
15.53
14.89
13.63
11.45
8.41
4.80
1.08
-2.38
-5.42
-8.18
-10.85
-13.73
-16.97
-20.67
-24.80
-29.23
-33.60
-37.31
-39.53
-39.47
-36.57
-30.90
-23.03
-13.97
-4.79
3.74
11.17
17.42
22.56
26.57
29.38
30.89
31.12
30.34
29.04
27.71
26.70
26.03
25.45
24.66
23.48
22.06
20.78
20.06
20.05
20.51
20.88
20.47
18.82
15.84
11.85
7.38
2.97
-1.07
-4.74
-8.22
-11.81
-15.82
-20.48
-25.78
-31.52
-37.10
-41.64
-44.15
-43.86
-40.47
-34.35
-26.35
-17.47
-8.52
0.07
8.16
15.64
22.26
27.53
30.97
32.40
32.12
30.88
29.55
28.77
28.73
29.08
29.19
28.53
26.85
24.50
22.19
20.73
20.63
21.81
23.50
24.51
23.77
20.74
15.69
9.67
4.05
0.04
-1.63
-0.83
1.82
4.84
5.83
1.86
-9.27
-27.64
-50.20
-71.25
-84.43
-85.45
-74.04
-54.08
-31.68
-12.38
1.08
9.11
14.01
18.15
22.70
27.49
31.94
35.76
39.24
42.79
46.40
49.39
50.74
49.65
46.09
40.90
35.41
30.93
28.18
27.15
27.26
27.62
27.44
26.30
24.17
21.33
18.18
15.12
12.49
10.58
9.54
9.52
10.55
12.62
15.62
19.38
23.61
27.88
31.63
34.31
35.67
36.02
36.37
38.18
42.93
51.55
64.00
79.17
95.13
109.60
120.56
126.82
128.49
127.00
124.70
124.09
126.69
132.37
139.22
144.29
144.73
138.93
126.90
110.01
90.14
68.82
46.78
24.10
0.67
-23.24
-46.86
-69.04
-88.64
-105.04
-118.30
-129.05
-138.05
-145.75
-152.14
-156.72
-158.98
-158.72
-156.33
-152.61
-148.44
-144.45
-140.73
-137.00
-132.82
-127.91
-122.32
-116.42
-110.67
-105.52
-101.20
-97.76
-95.11
-93.09
-91.57
-90.41
-89.32
-87.82
-85.21
-80.62
-73.34
-62.98
-49.78
-34.62
-18.85
-3.90
9.09
19.53
27.44
33.24
37.41
40.33
42.15
42.89
42.72
41.91
40.93
40.16
39.82
39.75
39.60
38.93
37.55
35.60
33.56
32.00
31.31
31.43
31.87
31.85
30.66
28.03
24.29
20.31
17.13
15.49
15.42
16.22
16.70
15.84
13.17
9.01
4.39
0.54
-1.53
-1.28
1.33
5.71
10.57
13.77
12.74
5.25
-9.47
-29.84
-52.13
-71.66
-84.53
-89.14
-86.43
-79.07
-69.87
-60.53
-51.27
-41.37
-30.16
-17.81
-5.35
5.82
14.68
20.93
25.03
27.87
30.36
32.86
35.26
37.08
37.82
37.28
35.73
33.81
32.20
31.39
31.28
31.41
30.99
29.39
26.34
22.08
17.23
12.48
8.31
4.75
1.47
-2.03
-6.22
-11.33
-17.26
-23.67
-30.11
-36.08
-41.10
-44.66
-46.24
-45.25
-41.31
-34.36
-24.89
-13.91
-2.77
7.22
15.05
20.26
22.95
23.59
22.76
21.10
19.07
17.05
15.30
13.97
13.13
12.74
12.70
12.82
12.91
12.78
12.37
11.75
11.08
10.53
10.24
10.07
9.78
8.97
7.32
4.70
1.23
-2.71
-6.57
-9.85
-12.28
-13.96
-15.34
-17.09
-19.70
-23.23
-27.13
-30.38
-31.87
-30.80
-26.97
-20.86
-13.38
-5.56
1.75
8.05
13.13
16.97
19.69
21.43
22.38
22.79
22.98
23.23
23.75
24.55
25.44
26.04
25.90
24.69
22.28
18.87
14.89
10.96
7.62
5.15
3.54
2.39
1.12
-0.85
-3.89
-7.95
-12.55
-17.02
-20.71
-23.36
-25.22
-26.98
-29.44
-33.19
-38.30
-44.27
-50.12
-54.73
-57.11
-56.73
-53.50
-47.75
-39.89
-30.32
-19.24
-6.73
7.05
21.67
36.38
50.20
62.17
71.63
78.35
82.46
84.37
84.54
83.41
81.37
78.73
75.79
72.87
70.35
68.65
68.15
68.98
70.87
73.20
75.11
75.87
75.04
72.79
69.80
67.21
66.19
67.66
71.83
78.26
85.88
93.43
99.75
104.05
105.94
105.22
101.78
95.58
86.79
75.74
62.87
48.43
32.50
15.25
-2.62
-19.86
-35.16
-48.14
-59.97
-73.02
-89.63
-110.41
-133.49
-155.07
-171.07
-178.98
-178.81
-172.57
-162.90
-151.78
-139.82
-126.84
-112.64
-97.71
-83.21
-70.46
-60.31
-52.78
-47.18
-42.52
-37.93
-33.12
-28.36
-24.25
-21.43
-20.20
-20.41
-21.51
-22.75
-23.50
-23.39
-22.43
-20.95
-19.47
-18.49
-18.30
-18.91
-20.12
-21.68
-23.50
-25.67
-28.39
-31.67
-35.13
-37.94
-39.06
-37.62
-33.28
-26.46
-18.13
-9.48
-1.51
5.19
10.52
14.61
17.76
20.16
21.89
22.96
23.35
23.09
22.33
21.33
20.43
19.91
19.88
20.22
20.67
20.94
20.80
20.23
19.37
18.39
17.42
16.47
15.49
14.39
13.14
11.67
9.92
7.85
5.37
2.49
-0.72
-4.07
-7.34
-10.40
-13.24
-15.98
-18.82
-21.87
-25.10
-28.35
-31.30
-33.54
-34.61
-34.13
-31.81
-27.61
-21.78
-14.86
-7.54
-0.51
5.71
10.82
14.70
17.36
18.86
19.31
18.90
17.94
16.77
15.65
14.67
13.74
12.65
11.26
9.58
7.83
6.35
5.46
5.27
5.70
6.41
6.99
7.04
6.32
4.78
2.58
-0.02
-2.72
-5.25
-7.42
-9.11
-10.32
-11.14
-11.72
-12.19
-12.56
-12.67
-12.23
-10.92
-8.52
-5.04
-0.72
4.04
8.91
13.57
17.78
21.33
24.00
25.59
26.01
25.33
23.84
21.90
19.83
17.84
15.95
14.11
12.21
10.25
8.35
6.72
5.60
5.07
5.03
5.16
4.98
4.05
2.13
-0.71
-4.14
-7.70
-11.03
-14.00
-16.78
-19.73
-23.14
-27.19
-31.78
-36.59
-41.13
-44.84
-47.07
-47.21
-44.79
-39.67
-32.12
-22.86
-12.85
-3.06
5.72
13.04
18.70
22.69
25.09
26.09
26.03
25.36
24.59
24.10
24.01
24.12
24.16
23.85
23.19
22.35
21.63
21.25
21.20
21.23
20.93
19.83
17.67
14.45
10.44
6.07
1.73
-2.35
-6.20
-10.06
-14.23
-18.96
-24.29
-30.03
-35.75
-40.79
-44.41
-45.85
-44.58
-40.40
-33.58
-24.83
-15.08
-5.26
3.91
11.99
18.79
24.23
28.33
31.10
32.62
33.13
33.03
32.69
32.37
32.11
31.69
30.83
29.41
27.57
25.65
24.02
22.81
21.81
20.54
18.50
15.49
11.70
7.67
4.04
1.19
-0.82
-2.40
-4.12
-6.55
-10.04
-14.58
-19.98
-25.83
-31.61
-36.64
-40.16
-41.42
-39.91
-35.52
-28.68
-20.21
-11.01
-1.94
6.37
13.51
19.16
23.01
24.88
24.80
23.09
20.38
17.39
14.69
12.47
10.62
8.75
6.58
4.02
1.32
-1.11
-2.88
-3.97
-4.83
-6.19
-8.91
-13.44
-19.58
-26.53
-33.16
-38.58
-42.48
-45.29
-47.92
-51.32
-56.01
-61.94
-68.29
-73.50
-75.34
-71.28
-59.02
-37.34
-6.70
30.58
70.76
109.74
144.27
172.84
195.67
214.06
229.17
241.07
248.39
248.77
239.94
220.73
191.69
155.05
114.06
72.10
31.89
-4.89
-37.53
-66.08
-90.95
-112.82
-132.46
-150.70
-168.33
-185.97
-203.85
-221.70
-238.88
-254.59
-268.27
-279.52
-288.04
-293.36
-294.68
-291.07
-281.87
-266.98
-246.89
-222.38
-194.30
-163.59
-131.38
-99.03
-67.60
-37.09
-6.02
28.06
66.99
110.41
154.79
194.35
223.19
237.78
238.29
228.14
212.22
194.81
178.31
163.35
149.69
137.16
126.08
116.92
109.58
103.16
96.06
86.68
74.12
58.66
41.52
24.32
8.42
-5.62
-18.13
-30.04
-42.42
-55.94
-70.52
-85.18
-98.21
-107.60
-111.61
-109.19
-100.37
-86.06
-67.73
-47.00
-25.32
-3.91
16.10
33.54
47.29
56.44
60.74
60.70
57.57
52.95
48.28
44.43
41.56
39.34
37.33
35.30
33.45
32.16
31.76
32.14
32.79
32.88
31.72
29.00
24.97
20.25
15.43
10.87
6.54
2.09
-2.85
-8.57
-15.22
-22.66
-30.52
-38.01
-43.91
-46.80
-45.33
-38.82
-27.59
-12.92
3.23
18.93
32.70
43.86
52.36
58.50
62.62
64.88
65.32
64.02
61.14
57.05
52.16
46.86
41.38
35.79
30.10
24.35
18.70
13.40
8.70
4.72
1.38
-1.52
-4.25
-7.04
-10.03
-13.27
-16.77
-20.59
-24.85
-29.62
-34.84
-40.10
-44.52
-46.96
-46.29
-41.84
-33.72
-22.89
-10.76
1.24
12.10
21.34
28.93
34.96
39.46
42.37
43.63
43.32
41.75
39.32
36.55
33.83
31.39
29.30
27.42
25.50
23.25
20.46
17.13
13.42
9.63
6.00
2.63
-0.58
-3.89
-7.66
-12.27
-17.97
-24.75
-32.21
-39.42
-45.11
-47.96
-47.03
-42.12
-33.94
-23.82
-13.35
-3.79
4.17
10.44
15.26
18.92
21.47
22.82
22.83
21.56
19.32
16.66
14.15
12.24
11.07
10.52
10.29
10.05
9.58
8.83
7.85
6.80
5.78
4.85
3.87
2.58
0.58
-2.54
-7.07
-13.04
-20.06
-27.39
-33.99
-38.76
-40.67
-39.04
-33.72
-25.14
-14.28
-2.44
9.06
19.23
27.51
33.74
37.98
40.33
40.86
39.69
37.15
33.75
30.21
27.08
24.70
22.97
21.59
20.25
18.77
17.19
15.62
14.12
12.58
10.76
8.35
5.11
0.97
-4.04
-9.71
-15.72
-21.54
-26.44
-29.52
-29.92
-27.10
-21.06
-12.42
-2.16
8.59
18.98
28.41
36.61
43.35
48.36
51.37
52.15
50.83
47.81
43.78
39.43
35.30
31.55
28.04
24.41
20.29
15.50
10.16
4.65
-0.43
-4.58
-7.55
-9.55
-11.16
-13.17
-16.21
-20.61
-26.13
-32.09
-37.37
-40.72
-41.07
-37.78
-30.90
-21.17
-9.85
1.61
11.96
20.44
26.83
31.35
34.41
36.28
37.11
36.90
35.66
33.54
30.90
28.22
26.00
24.51
23.68
23.09
22.14
20.28
17.21
13.05
8.22
3.24
-1.47
-5.79
-9.88
-14.16
-19.03
-24.80
-31.47
-38.68
-45.70
-51.47
-54.82
-54.86
-51.18
-44.13
-34.69
-24.12
-13.67
-4.27
3.62
9.81
14.29
17.08
18.24
17.94
16.49
14.42
12.32
10.73
9.96
10.05
10.77
11.68
12.34
12.44
11.91
10.92
9.76
8.63
7.60
6.50
5.07
3.06
0.33
-3.11
-7.19
-11.84
-16.97
-22.32
-27.32
-31.10
-32.62
-31.08
-26.27
-18.76
-9.73
-0.61
7.47
13.86
18.50
21.65
23.59
24.43
24.14
22.74
20.43
17.64
14.87
12.56
10.87
9.74
8.94
8.22
7.42
6.46
5.36
4.10
2.64
0.89
-1.24
-3.79
-6.78
-10.18
-13.96
-18.11
-22.66
-27.52
-32.41
-36.76
-39.77
-40.64
-38.86
-34.39
-27.73
-19.74
-11.39
-3.59
3.04
8.10
11.38
12.75
12.27
10.21
7.11
3.72
0.86
-0.83
-1.10
-0.16
1.36
2.67
3.18
2.73
1.78
1.12
1.55
3.47
6.65
10.36
13.59
15.58
16.02
15.06
13.17
10.91
8.73
7.03
6.13
6.26
7.49
9.59
12.05
14.21
15.52
15.75
15.01
13.64
12.00
10.26
8.33
5.99
3.03
-0.52
-4.39
-8.14
-11.32
-13.67
-15.15
-15.95
-16.35
-16.62
-16.97
-17.48
-18.21
-19.17
-20.41
-21.89
-23.48
-24.99
-26.23
-27.11
-27.72
-28.28
-28.87
-29.30
-29.03
-27.35
-23.72
-18.09
-11.01
-3.57
3.03
7.81
10.32
10.75
9.72
8.01
6.19
4.51
2.91
1.20
-0.68
-2.56
-4.07
-4.86
-4.84
-4.29
-3.70
-3.57
-4.17
-5.51
-7.35
-9.42
-11.45
-13.30
-14.97
-16.56
-18.34
-20.61
-23.60
-27.32
-31.51
-35.60
-38.92
-40.81
-40.76
-38.48
-33.91
-27.24
-18.90
-9.60
-0.20
8.43
15.64
21.07
24.70
26.73
27.35
26.81
25.44
23.67
21.93
20.55
19.67
19.22
18.99
18.57
17.74
16.61
15.54
14.96
15.15
15.98
17.03
17.71
17.27
15.51
12.91
10.51
9.32
9.87
11.87
14.43
16.54
16.85
15.28
13.12
12.45
14.93
21.10
29.93
39.72
48.64
53.53
52.27
44.35
30.63
12.80
-6.43
-24.21
-37.31
-43.57
-45.74
-48.25
-55.46
-70.30
-93.78
-124.23
-158.83
-193.70
-225.45
-255.50
-285.00
-312.51
-333.71
-343.62
-338.25
-318.02
-286.64
-230.93
-151.72
-63.01
16.70
77.34
115.76
142.49
163.95
182.45
198.24
207.55
208.44
202.38
193.06
183.71
176.49
171.14
167.35
165.10
161.94
155.92
145.97
131.09
109.62
80.44
43.22
0.70
-41.92
-80.39
-111.16
-132.15
-142.99
-144.97
-139.70
-129.01
-113.90
-95.14
-74.90
-55.84
-40.46
-30.42
-26.29
-27.46
-32.70
-40.14
-47.62
-53.18
-54.82
-50.66
-39.52
-21.69
0.85
24.57
45.53
60.36
67.02
65.08
55.49
40.15
21.43
1.87
-16.20
-31.01
-41.76
-48.77
-53.01
-55.31
-55.40
-51.65
-41.70
-23.87
1.28
30.37
57.86
78.09
87.46
85.80
76.26
63.74
52.82
46.21
44.48
46.69
51.64
58.53
67.07
76.84
86.76
94.93
99.16
97.94
91.15
80.38
68.29
57.68
50.27
46.25
44.32
42.53
39.29
34.09
27.64
21.58
18.03
19.11
26.27
39.72
57.79
76.96
92.69
100.92
99.64
89.74
74.55
58.34
44.63
35.00
29.16
25.75
23.43
21.40
19.42
17.37
14.99
11.96
8.10
3.67
-0.84
-4.82
-7.96
-10.41
-12.75
-15.75
-19.99
-25.66
-32.48
-39.88
-47.15
-53.77
-59.48
-64.19
-67.95
-70.78
-72.70
-73.71
-73.87
-73.26
-71.99
-70.05
-67.38
-63.85
-59.39
-54.13
-48.34
-42.46
-36.88
-31.87
-27.47
-23.63
-20.26
-17.47
-15.52
-14.74
-15.37
-17.30
-20.08
-22.95
-25.10
-26.03
-25.68
-24.47
-23.00
-21.72
-20.73
-19.74
-18.25
-15.87
-12.60
-8.75
-4.89
-1.48
1.20
3.09
4.25
4.81
4.92
4.80
4.71
4.86
5.36
6.06
6.50
6.09
4.48
1.75
-1.55
-4.65
-6.88
-7.88
-7.80
-7.27
-7.14
-7.87
-9.31
-10.84
-11.61
-11.09
-9.09
-5.96
-2.65
-0.21
0.76
0.41
-0.49
-0.82
0.56
4.88
13.24
25.89
42.26
60.92
79.86
96.77
109.76
117.05
118.34
116.40
115.36
117.86
123.64
130.67
136.81
140.76
142.25
142.26
140.92
137.46
131.08
121.60
109.71
96.58
83.20
69.61
54.41
38.56
21.07
0.54
-23.68
-50.50
-76.85
-98.37
-110.73
-111.19
-99.94
-80.75
-59.36
-41.25
-29.80
-25.43
-26.22
-29.47
-33.26
-37.22
-42.59
-50.77
-62.24
-76.30
-91.51
-106.41
-119.58
-129.08
-132.01
-125.27
-106.87
-77.83
-43.18
-10.89
10.71
16.45
6.40
-14.48
-38.94
-60.37
-74.79
-81.23
-80.68
-75.01
-65.88
-54.63
-42.71
-32.09
-24.90
-22.68
-25.49
-31.65
-38.47
-42.72
-41.76
-34.59
-22.44
-8.16
5.08
15.16
21.75
24.69
25.08
24.86
25.92
28.94
33.25
37.73
41.62
44.71
44.56
39.66
30.79
20.29
10.09
0.89
-7.32
-14.70
-21.31
-31.40
-47.51
-68.06
-88.38
-104.30
-114.25
-118.93
-120.46
-121.67
-131.17
-155.02
-192.89
-239.18
-287.35
-332.75
-372.84
-406.85
-399.32
-335.12
-229.68
-117.12
-23.27
44.04
87.79
113.87
127.70
133.78
130.21
116.66
97.18
78.14
64.07
55.86
52.48
52.54
55.60
57.44
54.22
47.86
42.14
39.94
41.49
45.06
48.21
48.84
43.05
29.29
9.72
-11.52
-30.63
-45.95
-57.51
-65.92
-71.47
-75.24
-77.41
-76.77
-73.52
-68.08
-61.60
-55.38
-50.18
-46.04
-43.03
-40.89
-38.80
-36.20
-32.69
-28.41
-23.85
-19.54
-15.81
-12.75
-10.39
-8.77
-8.15
-8.60
-10.06
-12.31
-15.06
-18.07
-21.28
-24.76
-28.56
-32.63
-36.56
-39.79
-41.70
-41.65
-39.20
-34.12
-26.61
-17.36
-7.42
2.17
10.78
18.45
25.89
34.09
43.87
55.47
68.61
82.68
97.19
112.01
127.28
143.33
160.47
179.13
199.78
222.74
247.66
273.04
296.11
313.47
322.13
320.73
310.00
292.45
271.34
249.51
228.69
209.55
192.12
176.32
162.10
149.31
137.51
125.95
113.91
101.02
87.49
74.00
61.45
50.54
41.51
34.18
28.04
22.52
17.20
11.90
6.74
2.09
-1.62
-4.18
-5.73
-6.84
-8.32
-10.88
-14.81
-19.90
-25.62
-31.51
-37.41
-43.51
-50.03
-56.83
-63.12
-67.65
-69.05
-66.46
-59.92
-50.42
-39.50
-28.79
-19.51
-12.27
-7.12
-3.85
-2.25
-2.17
-3.50
-5.92
-8.85
-11.54
-13.33
-13.88
-13.30
-11.98
-10.41
-8.90
-7.44
-5.79
-3.65
-0.94
2.12
4.99
7.05
7.78
6.97
4.79
1.60
-2.13
-5.96
-9.62
-12.96
-15.94
-18.63
-21.21
-23.94
-27.05
-30.59
-34.22
-37.26
-38.82
-38.17
-35.07
-29.95
-23.78
-17.78
-13.05
-10.22
-9.39
-10.23
-12.22
-14.88
-17.91
-21.19
-24.72
-28.51
-32.46
-36.40
-40.00
-42.89
-44.63
-44.85
-43.29
-39.91
-35.01
-29.15
-23.10
-17.64
-13.32
-10.41
-8.76
-7.97
-7.59
-7.32
-7.13
-7.27
-8.12
-10.00
-12.90
-16.33
-19.30
-20.56
-19.10
-14.61
-7.69
0.16
7.04
11.25
11.83
8.91
3.58
-2.51
-7.64
-10.61
-10.95
-9.00
-5.52
-1.44
2.58
6.22
9.50
12.56
15.45
18.11
20.38
22.13
23.35
24.09
24.42
24.26
23.42
21.61
18.60
14.33
9.01
3.02
-3.21
-9.34
-15.03
-19.92
-23.49
-25.07
-24.12
-20.44
-14.45
-7.06
0.57
7.42
12.95
17.06
19.97
21.87
22.84
22.77
21.54
19.12
15.69
11.62
7.35
3.26
-0.39
-3.51
-6.13
-8.30
-10.11
-11.62
-12.91
-14.16
-15.59
-17.40
-19.67
-22.26
-24.89
-27.24
-29.18
-30.79
-32.39
-34.22
-36.16
-37.59
-37.57
-35.24
-30.23
-22.93
-14.36
-5.80
1.72
7.67
12.08
15.22
17.37
18.61
18.86
17.99
16.01
13.17
9.93
6.82
4.33
2.69
1.89
1.65
1.55
1.28
0.71
-0.10
-0.97
-1.76
-2.47
-3.22
-4.20
-5.52
-7.18
-9.13
-11.34
-13.82
-16.54
-19.28
-21.51
-22.45
-21.30
-17.65
-11.71
-4.30
3.38
10.24
15.55
19.14
21.29
22.43
22.98
23.17
23.05
22.56
21.61
20.20
18.43
16.48
14.62
13.04
11.80
10.78
9.68
8.11
5.69
2.12
-2.76
-8.93
-16.19
-24.20
-32.47
-40.49
-47.74
-53.85
-58.64
-62.16
-64.57
-65.98
-66.22
-64.75
-60.86
-53.98
-44.09
-31.92
-18.82
-6.32
4.36
12.63
18.55
22.63
25.40
27.19
28.04
27.94
26.99
25.49
23.90
22.64
21.88
21.56
21.40
21.14
20.64
19.96
19.29
18.73
18.17
17.30
15.73
13.20
9.74
5.68
1.50
-2.45
-6.04
-9.43
-12.95
-16.90
-21.46
-26.56
-31.87
-36.78
-40.38
-41.67
-39.83
-34.58
-26.46
-16.69
-6.84
1.74
8.34
12.95
16.02
18.04
19.26
19.61
18.96
17.35
15.07
12.67
10.67
9.41
8.91
8.92
9.10
9.15
8.96
8.56
8.01
7.32
6.31
4.71
2.26
-1.07
-5.03
-9.10
-12.73
-15.54
-17.51
-18.99
-20.55
-22.74
-25.90
-29.98
-34.53
-38.71
-41.49
-41.90
-39.32
-33.74
-25.81
-16.58
-7.26
1.17
8.09
13.34
17.00
19.21
20.16
20.00
18.96
17.39
15.75
14.43
13.62
13.32
13.22
13.03
12.46
11.51
10.33
9.23
8.41
7.88
7.43
6.67
5.27
3.07
0.18
-3.09
-6.33
-9.16
-11.47
-13.35
-15.18
-17.44
-20.61
-24.95
-30.25
-35.77
-40.35
-42.70
-41.86
-37.56
-30.32
-21.27
-11.75
-2.86
4.70
10.67
15.03
17.84
19.17
19.13
18.03
16.34
14.59
13.21
12.40
12.05
11.95
11.85
11.66
11.47
11.47
11.86
12.58
13.37
13.80
13.43
12.04
9.69
6.72
3.58
0.66
-1.85
-4.00
-6.09
-8.54
-11.81
-16.19
-21.61
-27.54
-32.96
-36.58
-37.16
-34.03
-27.32
-17.97
-7.42
2.89
11.93
19.25
24.87
29.08
32.09
34.08
35.15
35.51
35.49
35.51
35.94
36.98
38.65
40.81
43.24
45.70
47.90
49.49
50.14
49.62
47.88
45.18
42.02
38.91
36.25
34.12
32.28
30.30
27.69
24.06
19.12
12.71
4.84
-4.08
-13.20
-21.25
-26.78
-28.72
-26.82
-21.88
-15.46
-9.34
-4.82
-2.36
-1.61
-1.80
-2.23
-2.62
-3.00
-3.59
-4.46
-5.42
-6.18
-6.43
-6.06
-5.20
-4.06
-2.83
-1.57
-0.29
1.00
2.17
2.97
3.16
2.53
1.09
-1.05
-3.67
-6.51
-9.41
-12.26
-15.14
-18.24
-21.96
-26.79
-33.09
-40.84
-49.38
-57.45
-63.43
-65.85
-63.89
-57.65
-48.14
-36.81
-25.12
-14.09
-4.19
4.54
12.20
18.79
24.15
27.97
30.09
30.53
29.58
27.69
25.34
22.87
20.38
17.83
15.12
12.28
9.47
7.03
5.31
4.50
4.53
5.02
5.45
5.33
4.42
2.77
0.65
-1.59
-3.72
-5.76
-7.98
-10.84
-14.85
-20.41
-27.63
-36.13
-44.93
-52.53
-57.18
-57.46
-52.79
-43.69
-31.64
-18.57
-6.19
4.45
13.11
20.09
25.73
30.16
33.14
34.29
33.33
30.41
26.03
20.99
16.11
12.03
9.11
7.43
6.85
7.11
7.95
9.22
10.76
12.40
13.86
14.85
15.04
14.16
12.05
8.78
4.69
0.24
-4.15
-8.34
-12.39
-16.56
-21.22
-26.66
-33.09
-40.34
-48.19
-56.30
-64.17
-70.99
-75.68
-77.27
-75.09
-69.24
-59.95
-48.30
-35.98
-24.83
-16.13
-10.32
-7.11
-5.55
-4.69
-2.52
2.08
9.08
17.67
27.18
37.66
49.45
63.48
80.12
101.02
126.26
153.98
181.21
205.17
224.35
237.94
246.34
249.85
251.11
251.54
250.80
247.47
240.30
229.19
214.45
197.78
163.96
107.84
35.69
-38.08
-100.62
-146.92
-174.62
-190.93
-200.92
-207.22
-208.03
-201.78
-189.80
-174.57
-158.98
-144.92
-133.55
-124.06
-115.33
-104.54
-90.42
-74.01
-57.87
-44.52
-35.05
-29.42
-26.00
-23.26
-19.09
-12.66
-4.44
4.48
13.14
21.14
28.10
33.83
37.68
39.39
38.66
35.26
29.18
20.66
10.27
-1.39
-13.45
-25.26
-36.21
-46.12
-55.20
-63.73
-71.73
-78.65
-83.50
-85.12
-82.74
-76.34
-66.74
-55.26
-43.31
-31.98
-21.92
-13.37
-6.27
-0.56
3.81
6.81
8.41
8.68
7.82
6.21
4.36
2.80
1.89
1.79
2.34
3.20
3.94
4.17
3.70
2.48
0.59
-1.87
-4.72
-7.81
-10.96
-14.08
-17.16
-20.36
-23.95
-28.22
-33.33
-39.11
-45.06
-50.23
-53.51
-53.82
-50.49
-43.48
-33.45
-21.56
-9.22
2.31
12.17
19.91
25.43
28.81
30.26
30.09
28.81
26.99
25.25
24.06
23.58
23.67
24.03
24.34
24.46
24.38
24.15
23.81
23.23
22.16
20.37
17.73
14.35
10.47
6.39
2.34
-1.68
-5.86
-10.59
-16.23
-23.06
-31.02
-39.67
-48.15
-55.25
-59.75
-60.69
-57.76
-51.42
-42.78
-33.25
-24.06
-15.97
-9.20
-3.67
0.77
4.07
5.97
6.24
4.84
2.07
-1.56
-5.46
-9.06
-11.91
-13.60
-13.85
-12.57
-9.97
-6.52
-2.71
1.16
5.16
9.64
14.89
20.87
27.14
32.95
37.66
40.88
42.58
42.90
41.92
39.64
36.00
31.04
24.97
18.27
11.65
6.06
2.59
2.28
5.77
13.02
23.15
34.64
45.75
54.93
61.13
63.90
63.30
59.78
54.10
47.25
40.27
34.11
29.34
26.14
24.30
23.46
23.25
23.46
23.98
24.83
25.96
27.32
28.79
30.15
31.08
31.11
29.69
26.36
20.99
13.90
5.88
-1.97
-8.60
-13.34
-16.04
-17.13
-17.29
-17.28
-17.69
-18.90
-21.15
-24.57
-29.12
-34.44
-39.73
-43.95
-46.09
-45.58
-42.55
-37.69
-31.89
-25.79
-19.64
-13.32
-6.68
0.17
6.79
12.56
17.03
20.08
21.97
23.12
23.90
24.50
24.92
25.01
24.52
23.28
21.25
18.62
15.79
13.23
11.18
9.58
8.05
6.07
3.33
-0.08
-3.76
-7.19
-10.04
-12.28
-14.15
-15.96
-17.94
-20.14
-22.58
-25.29
-28.40
-32.05
-36.25
-40.75
-44.97
-48.11
-49.30
-47.90
-43.75
-37.23
-29.18
-20.64
-12.55
-5.51
0.24
4.73
8.08
10.43
11.93
12.75
13.09
13.22
13.33
13.57
14.04
14.79
15.86
17.24
18.85
20.55
22.21
23.73
25.12
26.42
27.72
29.01
30.23
31.20
31.79
31.91
31.63
31.11
30.54
30.04
29.56
28.91
27.77
25.82
22.77
18.55
13.28
7.37
1.54
-3.33
-6.41
-7.20
-5.70
-2.49
1.59
5.64
9.06
11.59
13.27
14.24
14.57
14.23
13.17
11.43
9.21
6.82
4.63
2.91
1.80
1.25
1.07
1.04
0.97
0.77
0.44
0.04
-0.37
-0.87
-1.60
-2.83
-4.74
-7.42
-10.72
-14.41
-18.21
-21.93
-25.48
-28.91
-32.26
-35.57
-38.78
-41.67
-43.87
-44.82
-43.96
-40.86
-35.44
-28.10
-19.64
-11.00
-3.00
3.83
9.28
13.27
15.75
16.63
15.88
13.62
10.23
6.28
2.46
-0.68
-2.74
-3.62
-3.46
-2.53
-1.21
0.12
1.18
1.77
1.78
1.24
0.21
-1.25
-3.05
-5.12
-7.36
-9.73
-12.22
-14.97
-18.21
-22.11
-26.61
-31.25
-35.18
-37.36
-36.91
-33.47
-27.35
-19.47
-11.05
-3.23
3.24
8.06
11.34
13.39
14.54
14.98
14.82
14.12
12.98
11.55
10.02
8.58
7.40
6.57
6.09
5.83
5.62
5.19
4.35
2.98
1.13
-1.05
-3.35
-5.59
-7.75
-9.92
-12.35
-15.35
-19.13
-23.70
-28.70
-33.42
-36.93
-38.32
-36.99
-32.87
-26.42
-18.45
-9.89
-1.52
6.06
12.46
17.46
20.93
22.90
23.53
23.12
22.03
20.59
19.02
17.46
15.97
14.59
13.31
12.09
10.82
9.40
7.73
5.79
3.61
1.27
-1.16
-3.67
-6.24
-8.90
-11.69
-14.68
-18.01
-21.87
-26.44
-31.69
-37.24
-42.30
-45.76
-46.53
-43.88
-37.79
-29.01
-18.86
-8.74
0.26
7.60
13.28
17.59
20.82
23.10
24.39
24.62
23.86
22.34
20.44
18.50
16.76
15.29
14.02
12.84
11.66
10.41
9.04
7.49
5.69
3.59
1.20
-1.45
-4.31
-7.37
-10.67
-14.31
-18.36
-22.91
-27.91
-33.13
-38.10
-42.02
-44.01
-43.23
-39.26
-32.28
-23.09
-12.89
-2.90
5.97
13.23
18.74
22.59
24.95
26.01
26.06
25.45
24.55
23.64
22.78
21.84
20.69
19.24
17.61
15.99
14.59
13.46
12.46
11.35
9.87
7.85
5.26
2.23
-1.02
-4.27
-7.36
-10.32
-13.36
-16.90
-21.32
-26.86
-33.30
-39.91
-45.53
-48.87
-48.87
-45.06
-37.76
-27.86
-16.68
-5.51
4.62
13.16
19.94
25.02
28.56
30.67
31.48
31.19
30.13
28.68
27.26
26.08
25.14
24.26
23.22
21.96
20.59
19.44
18.72
18.43
18.23
17.55
15.87
12.95
8.95
4.39
-0.14
-4.15
-7.48
-10.29
-13.02
-16.13
-20.10
-25.19
-31.37
-38.18
-44.64
-49.48
-51.37
-49.43
-43.54
-34.42
-23.41
-12.01
-1.45
7.60
14.93
20.63
24.82
27.53
28.77
28.68
27.62
26.12
24.72
23.74
23.16
22.75
22.20
21.37
20.37
19.48
18.96
18.86
18.98
18.84
17.99
16.07
13.04
9.14
4.84
0.63
-3.11
-6.36
-9.40
-12.77
-16.95
-22.17
-28.21
-34.36
-39.58
-42.76
-43.00
-39.82
-33.34
-24.18
-13.43
-2.32
8.01
16.70
23.37
28.04
31.03
32.70
33.40
33.34
32.68
31.55
30.08
28.46
26.81
25.24
23.81
22.54
21.51
20.74
20.18
19.66
18.88
17.52
15.37
12.37
8.70
4.65
0.54
-3.38
-7.00
-10.35
-13.61
-17.12
-21.29
-26.46
-32.68
-39.49
-45.88
-50.48
-51.98
-49.55
-43.22
-33.79
-22.60
-11.02
-0.11
9.57
17.79
24.49
29.64
33.19
35.13
35.65
35.12
34.02
32.79
31.76
31.04
30.62
30.38
30.16
29.85
29.38
28.76
28.02
27.11
25.95
24.31
22.02
18.97
15.24
11.08
6.78
2.59
-1.39
-5.17
-8.86
-12.57
-16.40
-20.46
-24.86
-29.75
-35.09
-40.58
-45.49
-48.81
-49.48
-46.79
-40.65
-31.63
-20.83
-9.50
1.23
10.60
18.21
24.01
28.08
30.61
31.87
32.15
31.80
31.12
30.38
29.73
29.21
28.84
28.55
28.31
28.05
27.72
27.23
26.53
25.57
24.36
22.91
21.28
19.46
17.41
15.08
12.41
9.38
6.08
2.63
-0.80
-4.07
-7.13
-10.02
-12.84
-15.73
-18.84
-22.32
-26.32
-30.88
-35.90
-40.95
-45.25
-47.85
-47.83
-44.67
-38.47
-29.89
-20.01
-9.95
-0.63
7.41
13.90
18.81
22.22
24.31
25.33
25.61
25.49
25.22
24.96
24.74
24.57
24.41
24.25
24.09
23.98
23.94
23.95
23.93
23.68
22.99
21.69
19.76
17.37
14.85
12.48
10.40
8.49
6.52
4.23
1.54
-1.43
-4.42
-7.23
-9.78
-12.14
-14.52
-17.08
-19.98
-23.28
-27.07
-31.33
-35.92
-40.42
-44.12
-46.18
-45.83
-42.71
-36.95
-29.19
-20.34
-11.33
-2.91
4.45
10.48
15.07
18.21
19.98
20.58
20.31
19.53
18.62
17.84
17.33
17.11
17.05
17.01
16.92
16.75
16.59
16.50
16.52
16.52
16.30
15.63
14.40
12.69
10.70
8.71
6.89
5.23
3.50
1.46
-1.06
-4.03
-7.23
-10.38
-13.29
-15.94
-18.42
-20.91
-23.55
-26.37
-29.39
-32.53
-35.63
-38.29
-39.96
-39.96
-37.73
-33.08
-26.33
-18.25
-9.88
-2.15
4.33
9.35
12.98
15.41
16.77
17.19
16.82
15.90
14.74
13.63
12.73
12.05
11.46
10.87
10.26
9.73
9.38
9.25
9.25
9.17
8.82
8.09
7.00
5.62
4.01
2.14
-0.04
-2.58
-5.45
-8.45
-11.33
-13.89
-16.03
-17.86
-19.65
-21.75
-24.36
-27.47
-30.79
-33.71
-35.52
-35.56
-33.42
-29.06
-22.90
-15.63
-8.09
-0.99
5.19
10.20
13.99
16.56
17.98
18.29
17.67
16.41
14.87
13.40
12.26
11.50
11.02
10.64
10.22
9.71
9.12
8.54
8.03
7.61
7.22
6.75
6.04
4.95
3.38
1.31
-1.16
-3.86
-6.56
-9.10
-11.43
-13.63
-15.93
-18.59
-21.76
-25.37
-29.09
-32.34
-34.43
-34.75
-32.93
-28.98
-23.30
-16.52
-9.41
-2.65
3.26
8.08
11.73
14.29
15.85
16.48
16.28
15.41
14.13
12.78
11.70
11.08
10.92
11.04
11.16
11.09
10.78
10.30
9.82
9.39
8.93
8.25
7.13
5.48
3.37
0.99
-1.40
-3.66
-5.73
-7.72
-9.78
-12.03
-14.57
-17.46
-20.70
-24.16
-27.58
-30.43
-32.07
-31.87
-29.47
-24.97
-18.88
-12.02
-5.24
0.86
5.93
9.88
12.71
14.45
15.10
14.78
13.70
12.24
10.77
9.56
8.68
8.01
7.41
6.76
6.09
5.53
5.21
5.21
5.40
5.55
5.32
4.38
2.54
-0.13
-3.33
-6.62
-9.60
-12.06
-14.11
-16.04
-18.23
-20.93
-24.22
-27.98
-32.01
-36.00
-39.53
-42.10
-43.17
-42.30
-39.40
-34.77
-29.13
-23.38
-18.29
-14.31
-11.44
-9.34
-7.52
-5.58
-3.34
-0.91
1.50
3.61
5.32
6.71
7.98
9.33
10.79
12.27
13.55
14.39
14.60
14.12
12.89
10.97
8.38
5.21
1.49
-2.67
-7.18
-11.92
-16.75
-21.59
-26.39
-31.22
-36.16
-41.16
-45.90
-49.72
-51.76
-51.22
-47.65
-41.12
-32.17
-21.49
-9.72
2.71
15.49
28.25
40.39
51.12
59.70
65.65
68.90
69.79
68.82
66.53
63.28
59.37
55.09
50.75
46.67
43.04
39.84
36.78
33.46
29.53
24.86
19.60
14.15
8.94
4.34
0.43
-2.95
-6.15
-9.64
-13.78
-18.67
-24.03
-29.19
-33.20
-35.11
-34.30
-30.68
-24.73
-17.37
-9.63
-2.35
3.95
9.13
13.25
16.40
18.62
19.90
20.22
19.67
18.46
16.88
15.17
13.53
12.01
10.65
9.48
8.60
8.10
7.93
7.86
7.52
6.50
4.54
1.64
-1.95
-5.84
-9.64
-13.10
-16.15
-18.88
-21.59
-24.65
-28.39
-32.91
-37.93
-42.71
-46.27
-47.65
-46.24
-41.97
-35.35
-27.24
-18.63
-10.45
-3.32
2.42
6.77
9.93
12.17
13.74
14.79
15.35
15.45
15.21
14.77
14.30
13.92
13.62
13.33
12.99
12.63
12.37
12.33
12.51
12.72
12.60
11.77
10.03
7.41
4.24
0.95
-2.12
-4.87
-7.49
-10.32
-13.71
-17.85
-22.69
-27.89
-32.92
-37.01
-39.35
-39.26
-36.39
-30.95
-23.66
-15.52
-7.54
-0.44
5.48
10.22
13.87
16.48
17.97
18.24
17.35
15.55
13.28
11.03
9.15
7.85
7.14
6.89
6.90
7.06
7.29
7.55
7.80
7.92
7.71
6.90
5.31
2.91
-0.07
-3.24
-6.16
-8.54
-10.33
-11.75
-13.21
-15.14
-17.97
-22.00
-27.32
-33.74
-40.63
-47.06
-51.80
-53.72
-52.03
-46.49
-37.54
-26.16
-13.72
-1.58
9.15
17.93
24.68
29.70
33.26
35.37
35.78
34.19
30.76
26.18
21.68
18.46
17.19
17.77
19.47
21.39
22.90
23.81
24.19
24.08
23.18
21.02
17.27
12.13
6.39
1.25
-2.23
-3.59
-3.16
-1.88
-0.83
-0.80
-2.05
-4.34
-7.14
-9.86
-11.88
-12.63
-11.53
-8.11
-2.22
5.86
15.40
25.43
34.99
43.39
50.30
55.64
59.46
61.79
62.72
62.46
61.34
59.76
57.92
55.68
52.51
47.79
41.20
33.07
24.36
16.33
10.00
5.67
2.92
0.92
-1.08
-3.47
-6.38
-9.95
-14.57
-20.66
-28.44
-37.49
-46.89
-55.65
-63.20
-69.61
-75.21
-80.06
-83.46
-84.09
-80.61
-72.45
-60.33
-46.05
-31.87
-19.72
-10.78
-5.32
-3.02
-3.20
-5.06
-7.71
-10.10
-11.21
-10.17
-6.58
-0.65
6.80
14.61
21.74
27.59
32.19
35.94
39.24
42.01
43.57
42.92
39.34
32.85
24.36
15.40
7.45
1.42
-2.60
-5.22
-7.26
-9.47
-12.31
-15.98
-20.57
-26.03
-32.05
-37.95
-42.64
-44.84
-43.51
-38.27
-29.73
-19.36
-9.07
-0.56
5.27
8.58
10.38
11.95
14.21
17.32
20.72
23.51
24.99
25.09
24.36
23.65
23.72
24.87
26.90
29.29
31.41
32.79
33.20
32.61
31.12
28.91
26.13
22.96
19.57
16.12
12.72
9.46
6.33
3.27
0.25
-2.72
-5.53
-8.00
-10.02
-11.63
-13.09
-14.85
-17.38
-20.92
-25.34
-30.02
-33.94
-36.03
-35.48
-32.03
-26.13
-18.72
-10.94
-3.74
2.37
7.26
11.05
13.78
15.33
15.51
14.27
11.92
9.11
6.67
5.26
5.11
6.03
7.46
8.79
9.59
9.77
9.53
9.30
9.54
10.61
12.65
15.42
18.29
20.28
20.32
17.62
12.10
4.47
-3.93
-11.66
-17.76
-22.06
-25.14
-27.97
-31.33
-35.53
-40.34
-45.17
-49.35
-52.31
-53.58
-52.72
-49.34
-43.21
-34.36
-23.31
-10.95
1.62
13.42
23.79
32.51
39.49
44.59
47.36
47.29
44.10
38.22
30.85
23.74
18.55
16.26
16.80
19.19
22.03
24.07
24.57
23.46
21.05
17.83
14.23
10.53
7.01
3.91
1.47
-0.29
-1.79
-3.93
-7.85
-14.49
-24.06
-35.78
-48.06
-59.12
-67.65
-73.16
-76.01
-76.93
-76.43
-74.57
-71.02
-65.38
-57.58
-48.05
-37.44
-26.47
-15.68
-5.56
3.21
9.66
12.60
11.24
5.74
-2.37
-10.48
-15.76
-16.25
-11.67
-3.55
5.57
13.17
17.77
19.27
18.69
17.40
16.55
16.75
18.12
20.53
23.62
26.78
29.02
29.07
25.76
18.60
8.17
-3.95
-15.62
-24.97
-31.00
-33.68
-33.74
-32.12
-29.49
-26.11
-21.89
-16.63
-10.18
-2.51
6.38
16.44
27.46
38.88
49.69
58.45
63.68
64.40
60.60
53.38
44.74
36.85
31.30
28.61
28.14
28.64
28.91
28.43
27.51
26.98
27.54
29.26
31.43
32.84
32.34
29.30
23.87
16.74
8.78
0.67
-7.29
-15.04
-22.62
-29.88
-36.49
-41.93
-45.70
-47.34
-46.50
-43.03
-36.89
-28.27
-17.61
-5.57
7.00
19.26
30.50
40.27
48.29
54.37
58.27
59.65
58.27
54.20
48.09
40.95
34.02
28.23
23.94
20.88
18.45
16.08
13.62
11.36
9.72
9.03
9.15
9.60
9.67
8.86
7.08
4.68
2.21
0.01
-2.05
-4.67
-8.73
-14.93
-23.35
-33.42
-44.04
-53.92
-61.89
-66.96
-68.49
-66.05
-59.68
-49.90
-37.80
-24.77
-12.19
-1.03
8.37
16.09
22.40
27.40
30.88
32.44
31.77
28.99
24.65
19.66
14.90
11.00
8.18
6.44
5.72
6.03
7.43
9.86
12.93
15.91
17.83
17.87
15.59
11.15
5.19
-1.44
-8.01
-14.17
-19.90
-25.40
-30.84
-36.11
-40.83
-44.34
-45.87
-44.71
-40.49
-33.34
-24.00
-13.75
-4.09
3.71
9.06
12.08
13.47
14.04
14.25
14.14
13.50
12.25
10.73
9.60
9.54
10.92
13.48
16.46
18.88
20.05
19.79
18.42
16.52
14.52
12.48
10.08
6.92
2.79
-2.13
-7.26
-11.95
-15.74
-18.56
-20.68
-22.55
-24.58
-26.89
-29.37
-31.63
-33.20
-33.63
-32.68
-30.35
-26.90
-22.63
-17.82
-12.61
-7.00
-1.10
4.87
10.51
15.47
19.56
22.83
25.37
27.12
27.79
27.03
24.72
21.23
17.41
14.25
12.54
12.56
14.11
16.74
20.10
24.02
28.45
33.17
37.57
40.70
41.53
39.44
34.47
27.42
19.50
11.89
5.32
-0.12
-4.82
-9.29
-13.83
-18.46
-22.88
-26.70
-29.48
-30.66
-29.49
-25.03
-16.51
-3.81
12.09
29.06
44.35
55.49
61.13
61.48
58.02
52.84
47.66
43.37
39.92
36.76
33.36
29.52
25.46
21.49
17.76
14.04
9.82
4.51
-2.19
-10.08
-18.39
-25.99
-31.77
-35.00
-35.64
-34.47
-32.85
-32.50
-34.96
-41.34
-51.87
-65.85
-81.63
-97.11
-110.16
-119.32
-124.12
-125.08
-123.40
-120.38
-116.87
-112.98
-108.07
-101.10
-91.02
-77.26
-59.92
-39.74
-17.83
4.62
26.66
47.62
67.07
84.64
99.85
112.22
121.41
127.40
130.58
131.60
131.19
129.84
127.70
124.51
119.82
113.18
104.42
93.71
81.56
68.73
56.06
44.30
33.97
25.34
18.38
12.80
8.15
3.97
-0.13
-4.39
-8.86
-13.55
-18.42
-23.46
-28.62
-33.81
-38.93
-43.90
-48.65
-53.11
-57.04
-59.95
-61.22
-60.26
-56.80
-51.07
-43.75
-35.76
-27.94
-20.86
-14.78
-9.79
-5.95
-3.32
-1.89
-1.48
-1.73
-2.19
-2.54
-2.62
-2.48
-2.26
-2.04
-1.80
-1.39
-0.73
0.14
1.04
1.64
1.71
1.14
0.00
-1.46
-3.01
-4.51
-6.00
-7.70
-9.93
-12.96
-16.88
-21.56
-26.60
-31.33
-34.98
-36.79
-36.25
-33.24
-28.16
-21.75
-14.93
-8.49
-2.93
1.55
4.99
7.43
8.91
9.42
9.01
7.84
6.20
4.40
2.69
1.17
-0.18
-1.44
-2.70
-3.98
-5.26
-6.49
-7.65
-8.77
-9.90
-11.08
-12.35
-13.71
-15.23
-16.98
-19.08
-21.66
-24.81
-28.43
-32.15
-35.35
-37.25
-37.06
-34.32
-29.00
-21.60
-13.02
-4.25
3.88
10.91
16.69
21.31
24.87
27.40
28.84
29.21
28.62
27.33
25.74
24.19
22.94
22.03
21.37
20.77
20.06
19.13
17.92
16.44
14.74
12.83
10.70
8.32
5.71
2.90
-0.06
-3.28
-6.92
-11.04
-15.44
-19.50
-22.26
-22.64
-19.88
-13.85
-5.31
4.43
13.96
22.02
27.73
30.50
30.09
26.67
20.97
13.94
7.18
2.49
1.20
3.64
8.99
15.77
22.45
28.02
31.41
32.48
31.73
29.78
26.83
22.70
17.26
10.87
4.50
-1.78
-7.68
-12.97
-18.13
-24.88
-35.96
-54.05
-80.70
-115.43
-156.71
-199.97
-238.20
-263.93
-271.76
-260.02
-230.91
-189.36
-133.13
-67.06
-1.28
53.02
89.58
109.14
116.93
119.31
121.31
125.60
130.92
135.04
136.00
132.96
125.95
115.39
102.06
87.05
71.60
55.96
40.34
25.53
12.44
1.11
-9.49
-20.88
-34.29
-50.14
-68.55
-88.14
-106.39
-119.90
-125.87
-123.29
-113.46
-99.50
-85.20
-73.91
-65.17
-57.92
-49.60
-37.63
-20.86
-0.10
22.46
44.71
65.89
87.25
110.94
138.80
170.43
202.51
229.65
246.55
250.19
241.06
222.75
200.06
177.22
156.28
136.99
117.87
97.61
76.09
54.32
33.71
15.16
-1.14
-15.56
-28.51
-40.04
-49.69
-56.70
-60.46
-60.81
-58.12
-53.03
-46.19
-38.06
-28.82
-18.53
-7.24
4.77
16.86
28.12
37.48
43.95
46.74
45.39
39.86
30.64
18.77
5.81
-6.43
-16.43
-23.27
-26.94
-28.13
-27.75
-26.55
-24.83
-22.68
-20.26
-18.12
-17.00
-17.67
-20.58
-25.87
-33.61
-43.98
-57.16
-72.96
-90.36
-107.30
-121.01
-128.67
-128.15
-118.58
-100.45
-75.52
-46.47
-16.51
11.10
33.71
49.87
59.67
64.59
66.85
68.51
70.77
73.71
76.50
78.01
77.23
73.66
67.23
58.13
46.69
33.27
18.35
2.62
-12.99
-27.42
-39.69
-49.10
-55.42
-58.87
-59.98
-59.38
-57.56
-54.79
-51.16
-46.80
-41.99
-37.20
-33.06
-30.12
-28.66
-28.64
-29.68
-31.30
-33.07
-34.73
-36.21
-37.58
-38.92
-40.26
-41.52
-42.53
-43.11
-43.13
-42.67
-41.95
-41.32
-41.07
-41.38
-42.12
-42.95
-43.36
-42.79
-40.83
-37.32
-32.41
-26.48
-20.09
-13.74
-7.85
-2.68
1.58
4.76
6.69
7.22
6.41
4.53
2.06
-0.44
-2.52
-3.96
-4.79
-5.25
-5.59
-5.98
-6.43
-6.88
-7.25
-7.55
-7.88
-8.42
-9.44
-11.11
-13.45
-16.34
-19.59
-22.92
-25.92
-28.16
-29.20
-28.89
-27.16
-24.06
-19.83
-14.98
-10.27
-6.42
-4.04
-3.45
-4.96
-8.26
-12.55
-16.94
-21.00
-24.78
-28.70
-33.17
-38.43
-44.86
-52.04
-58.96
-64.50
-68.23
-70.40
-71.71
-72.97
-74.85
-78.17
-82.37
-85.30
-83.82
-75.22
-58.01
-32.54
-1.13
36.58
75.84
109.24
130.74
139.29
138.34
133.33
128.76
127.10
128.59
131.09
132.15
129.92
124.80
116.74
106.27
94.52
82.88
72.40
63.09
54.87
47.90
42.41
38.20
34.92
32.18
29.83
28.17
27.48
28.23
30.87
35.47
41.22
46.96
51.45
53.98
54.65
54.35
54.72
57.52
63.71
72.57
81.89
88.71
90.44
85.84
75.29
60.57
43.98
27.50
12.23
-1.46
-13.72
-24.86
-35.06
-44.29
-52.27
-58.46
-62.19
-62.87
-60.16
-54.12
-45.24
-34.44
-23.02
-12.59
-4.97
-1.90
-4.77
-14.02
-28.79
-46.85
-64.84
-78.99
-86.01
-83.93
-72.63
-53.93
-30.93
-7.06
14.79
32.89
46.69
56.52
63.23
67.74
70.74
72.86
74.75
76.97
79.84
83.32
87.03
90.33
92.63
92.90
90.60
85.67
78.52
69.69
59.58
48.33
35.95
22.42
6.65
-12.00
-33.54
-57.32
-82.30
-107.40
-131.57
-153.75
-173.03
-190.57
-207.48
-224.42
-241.38
-257.83
-273.14
-286.63
-297.48
-304.74
-309.70
-312.78
-313.31
-309.65
-300.38
-285.58
-267.13
-248.13
-217.18
-169.19
-105.19
-32.62
39.10
102.69
153.78
190.09
211.22
219.20
216.44
207.88
198.73
193.02
192.50
196.38
202.26
207.65
211.14
208.56
198.21
180.10
155.50
126.22
94.49
63.10
35.31
13.25
-2.56
-12.07
-16.22
-16.17
-12.86
-6.80
1.84
12.79
25.60
38.89
51.45
61.29
66.71
67.09
63.31
57.83
52.39
48.21
46.21
47.71
53.87
65.23
81.07
98.84
114.65
124.25
124.79
115.76
98.89
77.07
53.28
29.75
7.66
-12.57
-30.79
-46.56
-59.18
-68.06
-73.23
-75.34
-75.42
-74.54
-73.43
-72.36
-71.09
-69.22
-66.50
-63.12
-59.51
-56.15
-53.36
-51.19
-49.49
-47.98
-46.44
-44.71
-42.71
-40.34
-37.50
-34.07
-30.03
-25.39
-20.27
-14.85
-9.39
-4.26
0.14
3.49
5.63
6.64
6.82
6.50
5.97
5.41
4.84
4.26
3.70
3.19
2.77
2.40
1.99
1.43
0.67
-0.27
-1.28
-2.26
-3.16
-4.06
-5.13
-6.50
-8.26
-10.37
-12.68
-14.91
-16.77
-18.02
-18.45
-18.00
-16.65
-14.52
-11.80
-8.71
-5.53
-2.54
-0.01
1.81
2.78
2.88
2.25
1.15
-0.13
-1.32
-2.26
-2.89
-3.22
-3.27
-3.11
-2.82
-2.49
-2.23
-2.09
-2.12
-2.34
-2.74
-3.31
-4.05
-4.93
-5.93
-7.03
-8.20
-9.41
-10.59
-11.57
-12.10
-11.91
-10.79
-8.64
-5.58
-1.89
2.04
5.84
9.22
12.01
14.15
15.66
16.57
16.90
16.74
16.16
15.31
14.35
13.42
12.65
12.05
11.62
11.26
10.86
10.35
9.67
8.85
7.92
6.95
6.01
5.10
4.24
3.34
2.34
1.12
-0.38
-2.19
-4.26
-6.39
-8.26
-9.50
-9.74
-8.80
-6.70
-3.66
-0.08
3.67
7.23
10.42
13.05
14.95
15.87
15.57
13.99
11.22
7.66
3.73
-0.17
-3.89
-7.43
-10.90
-14.35
-17.69
-20.67
-22.95
-24.20
-24.21
-22.97
-20.65
-17.58
-14.22
-10.98
-8.18
-5.98
-4.46
-3.65
-3.60
-4.31
-5.67
-7.38
-8.97
-9.90
-9.71
-8.24
-5.69
-2.51
0.73
3.61
5.88
7.56
8.79
9.69
10.28
10.48
10.20
9.45
8.35
7.13
6.04
5.26
4.84
4.71
4.78
4.95
5.13
5.27
5.29
5.11
4.67
4.01
3.20
2.39
1.65
0.96
0.17
-0.94
-2.56
-4.71
-7.24
-9.77
-11.86
-13.09
-13.18
-12.07
-9.89
-6.93
-3.54
-0.08
3.14
5.88
7.99
9.42
10.20
10.43
10.19
9.59
8.72
7.66
6.55
5.54
4.76
4.26
4.00
3.86
3.69
3.38
2.92
2.35
1.69
0.93
-0.01
-1.15
-2.46
-3.85
-5.21
-6.51
-7.86
-9.41
-11.33
-13.62
-16.04
-18.14
-19.38
-19.30
-17.70
-14.68
-10.67
-6.25
-1.96
1.84
5.02
7.62
9.68
11.21
12.08
12.18
11.47
10.08
8.26
6.35
4.64
3.33
2.50
2.15
2.19
2.48
2.85
3.08
3.02
2.55
1.62
0.33
-1.17
-2.68
-4.03
-5.19
-6.23
-7.33
-8.74
-10.54
-12.64
-14.69
-16.19
-16.60
-15.58
-13.07
-9.33
-4.80
-0.01
4.64
8.85
12.47
15.42
17.67
19.20
20.01
20.07
19.32
17.75
15.45
12.66
9.78
7.24
5.37
4.30
3.87
3.78
3.73
3.48
2.96
2.14
1.06
-0.23
-1.73
-3.37
-5.12
-6.96
-8.96
-11.16
-13.64
-16.38
-19.29
-22.11
-24.48
-25.99
-26.18
-24.74
-21.54
-16.71
-10.71
-4.15
2.26
7.92
12.44
15.61
17.44
18.06
17.68
16.59
15.10
13.50
11.98
10.64
9.44
8.39
7.52
6.95
6.78
7.05
7.61
8.19
8.44
8.13
7.13
5.51
3.45
1.13
-1.24
-3.57
-5.75
-7.78
-9.72
-11.73
-14.03
-16.78
-19.95
-23.21
-25.93
-27.36
-26.85
-24.13
-19.33
-13.05
-6.05
0.88
7.17
12.41
16.39
19.01
20.24
20.19
19.08
17.26
15.14
13.02
11.13
9.55
8.28
7.26
6.50
6.01
5.78
5.74
5.74
5.54
4.89
3.63
1.76
-0.56
-3.07
-5.52
-7.82
-10.01
-12.36
-15.13
-18.50
-22.38
-26.36
-29.78
-31.88
-32.00
-29.76
-25.16
-18.59
-10.62
-2.01
6.49
14.18
20.48
24.98
27.53
28.27
27.54
25.81
23.53
21.03
18.54
16.24
14.30
12.86
11.97
11.54
11.37
11.15
10.64
9.70
8.30
6.46
4.25
1.75
-0.98
-3.82
-6.76
-9.77
-13.00
-16.63
-20.79
-25.35
-29.77
-33.21
-34.69
-33.48
-29.33
-22.66
-14.33
-5.49
2.87
10.09
15.88
20.22
23.22
24.97
25.58
25.22
24.12
22.59
20.94
19.46
18.31
17.52
17.07
16.83
16.66
16.38
15.81
14.81
13.32
11.38
9.06
6.45
3.61
0.55
-2.76
-6.31
-10.07
-14.00
-18.13
-22.51
-27.12
-31.66
-35.50
-37.73
-37.41
-33.95
-27.37
-18.37
-8.12
2.09
11.22
18.65
24.18
27.86
29.90
30.54
30.06
28.80
27.17
25.53
24.12
23.05
22.21
21.42
20.55
19.58
18.63
17.87
17.35
16.96
16.36
15.13
12.98
9.82
5.89
1.62
-2.53
-6.23
-9.39
-12.21
-15.07
-18.45
-22.69
-27.78
-33.30
-38.42
-42.01
-43.05
-40.88
-35.44
-27.28
-17.39
-6.94
3.01
11.68
18.62
23.70
27.01
28.76
29.25
28.78
27.67
26.18
24.57
23.03
21.78
20.97
20.68
20.91
21.50
22.25
22.94
23.41
23.60
23.46
22.90
21.75
19.83
17.06
13.55
9.63
5.71
2.14
-0.94
-3.62
-6.20
-9.03
-12.45
-16.65
-21.59
-26.88
-31.76
-35.20
-36.22
-34.15
-28.96
-21.23
-12.01
-2.45
6.51
14.27
20.54
25.24
28.35
29.88
29.94
28.78
26.82
24.54
22.40
20.73
19.62
18.98
18.60
18.27
17.87
17.40
16.96
16.62
16.37
16.07
15.49
14.37
12.56
10.07
7.03
3.69
0.35
-2.72
-5.40
-7.67
-9.72
-11.86
-14.45
-17.68
-21.52
-25.53
-28.95
-30.88
-30.53
-27.52
-22.02
-14.68
-6.42
1.82
9.33
15.72
20.85
24.73
27.33
28.63
28.64
27.53
25.65
23.48
21.51
20.09
19.30
18.98
18.80
18.47
17.84
16.93
15.92
15.01
14.25
13.54
12.58
11.11
8.94
6.09
2.78
-0.64
-3.86
-6.71
-9.20
-11.50
-13.89
-16.65
-20.05
-24.15
-28.79
-33.47
-37.37
-39.50
-39.00
-35.48
-29.15
-20.83
-11.62
-2.63
5.40
12.10
17.38
21.28
23.79
24.91
24.74
23.62
22.03
20.49
19.40
18.85
18.70
18.64
18.45
17.95
17.21
16.36
15.60
15.01
14.57
14.10
13.34
12.04
10.06
7.43
4.29
0.91
-2.50
-5.80
-8.93
-11.85
-14.58
-17.16
-19.71
-22.47
-25.69
-29.53
-33.82
-37.97
-40.95
-41.60
-38.89
-32.38
-22.41
-10.12
2.83
14.70
24.15
30.53
33.89
34.84
34.19
32.68
30.79
28.74
26.59
24.36
22.11
19.98
18.10
16.54
15.31
14.37
13.61
12.94
12.27
11.55
10.73
9.76
8.58
7.13
5.32
3.16
0.69
-1.98
-4.74
-7.48
-10.14
-12.69
-15.13
-17.46
-19.72
-21.97
-24.35
-27.04
-30.16
-33.68
-37.27
-40.30
-41.94
-41.42
-38.31
-32.68
-25.12
-16.53
-7.87
0.15
7.12
12.88
17.46
20.84
23.05
24.09
24.11
23.37
22.23
21.03
20.05
19.37
18.95
18.70
18.49
18.28
18.10
18.00
17.96
17.90
17.64
17.00
15.84
14.14
12.00
9.59
7.08
4.59
2.17
-0.21
-2.59
-5.05
-7.60
-10.25
-12.93
-15.62
-18.31
-21.09
-24.13
-27.55
-31.29
-34.97
-37.97
-39.48
-38.83
-35.72
-30.30
-23.18
-15.21
-7.24
0.07
6.28
11.19
14.76
17.02
18.10
18.12
17.24
15.63
13.52
11.22
9.12
7.59
6.87
7.01
7.82
8.99
10.19
11.17
11.82
12.09
11.99
11.53
10.75
9.66
8.28
6.60
4.63
2.39
-0.04
-2.52
-4.89
-7.06
-9.07
-11.11
-13.37
-16.01
-19.02
-22.25
-25.46
-28.36
-30.62
-31.88
-31.74
-29.87
-26.15
-20.74
-14.14
-7.04
-0.13
6.05
11.14
14.95
17.44
18.69
18.90
18.37
17.45
16.50
15.78
15.26
14.71
13.79
12.33
10.50
8.75
7.68
7.93
9.64
12.25
14.47
14.68
11.53
4.56
-5.47
-16.54
-25.28
-28.53
-24.49
-13.54
2.07
19.15
34.76
46.95
55.04
60.62
65.57
71.02
76.75
81.59
84.31
84.16
80.96
74.96
68.88
65.62
67.19
73.95
84.65
97.31
109.86
120.56
128.34
135.81
146.21
161.87
182.94
207.63
233.69
259.27
283.23
288.20
262.59
204.43
124.26
39.12
-37.08
-98.03
-144.05
-178.74
-206.11
-226.36
-238.61
-242.59
-239.80
-234.03
-228.37
-224.14
-220.81
-216.97
-209.28
-195.71
-176.62
-154.84
-134.29
-117.87
-106.62
-99.89
-96.26
-93.02
-88.13
-80.90
-72.10
-63.23
-55.40
-48.94
-43.52
-38.58
-33.03
-26.20
-18.03
-9.24
-0.93
5.92
10.70
13.21
13.59
12.45
10.56
8.59
7.03
6.15
6.00
6.36
6.78
6.61
5.18
2.16
-2.21
-7.00
-10.82
-12.16
-10.02
-4.18
4.74
15.51
26.72
37.22
46.24
53.48
59.01
62.99
65.66
67.16
67.59
67.03
65.58
63.43
60.89
58.29
55.93
53.97
52.41
51.10
49.83
48.33
46.39
43.78
40.35
35.98
30.71
24.67
18.09
11.15
4.03
-3.23
-10.68
-18.41
-26.56
-35.24
-44.44
-53.88
-62.88
-70.48
-75.62
-77.52
-75.96
-71.44
-65.00
-57.89
-51.18
-45.49
-40.97
-37.51
-34.87
-32.91
-31.57
-30.82
-30.51
-30.36
-30.01
-29.11
-27.48
-25.16
-22.32
-19.25
-16.15
-13.20
-10.56
-8.47
-7.24
-7.20
-8.53
-11.16
-14.70
-18.47
-21.76
-23.91
-24.58
-23.78
-21.88
-19.50
-17.35
-16.06
-16.06
-17.40
-19.71
-22.22
-23.92
-23.89
-21.52
-16.82
-10.37
-3.14
3.76
9.48
13.48
15.59
15.92
14.76
12.52
9.66
6.65
3.86
1.56
-0.16
-1.35
-2.17
-2.90
-3.82
-5.16
-6.96
-9.09
-11.16
-12.80
-13.68
-13.68
-12.84
-11.26
-9.11
-6.56
-3.88
-1.39
0.53
1.50
1.22
-0.57
-4.11
-9.50
-16.55
-24.53
-32.18
-37.91
-40.38
-38.93
-33.92
-26.56
-18.36
-10.56
-3.75
2.15
7.56
12.79
17.78
22.16
25.42
27.34
28.03
27.92
27.50
27.12
26.88
26.73
26.57
26.43
26.38
26.45
26.56
26.45
25.81
24.36
22.05
19.05
15.66
12.23
8.96
5.85
2.75
-0.55
-4.16
-7.98
-11.71
-15.01
-17.67
-19.73
-21.51
-23.49
-26.16
-29.86
-34.56
-39.88
-44.96
-48.67
-49.84
-47.64
-41.90
-33.23
-22.82
-12.11
-2.31
5.94
12.54
17.75
21.93
25.30
27.93
29.78
30.87
31.31
31.29
31.00
30.60
30.17
29.74
29.34
29.00
28.75
28.63
28.65
28.73
28.75
28.57
28.05
27.07
25.58
23.55
21.05
18.24
15.35
12.61
10.23
8.28
6.73
5.49
4.33
3.07
1.53
-0.39
-2.68
-5.15
-7.58
-9.69
-11.37
-12.70
-13.94
-15.43
-17.45
-20.04
-22.99
-25.77
-27.64
-27.84
-25.81
-21.39
-14.98
-7.44
0.18
6.94
12.29
16.12
18.60
20.00
20.47
20.01
18.54
16.10
12.93
9.50
6.34
3.87
2.25
1.35
0.92
0.69
0.57
0.63
0.99
1.70
2.65
3.65
4.49
5.05
5.30
5.32
5.17
4.95
4.75
4.63
4.60
4.62
4.52
4.15
3.39
2.24
0.80
-0.79
-2.44
-4.12
-5.89
-7.81
-9.91
-12.11
-14.26
-16.23
-17.96
-19.56
-21.30
-23.45
-26.14
-29.16
-31.85
-33.31
-32.70
-29.59
-24.16
-17.18
-9.74
-2.82
2.96
7.45
10.89
13.57
15.76
17.56
19.01
20.17
21.14
21.98
22.73
23.29
23.50
23.27
22.62
21.73
20.80
19.99
19.33
18.75
18.14
17.43
16.62
15.70
14.63
13.35
11.81
10.02
8.15
6.37
4.85
3.62
2.55
1.42
-0.01
-1.82
-3.96
-6.27
-8.54
-10.58
-12.28
-13.65
-14.78
-15.79
-16.80
-17.85
-18.92
-19.96
-20.95
-21.84
-22.57
-22.98
-22.79
-21.69
-19.46
-16.11
-11.94
-7.43
-3.12
0.61
3.56
5.76
7.30
8.32
8.91
9.16
9.14
8.93
8.62
8.24
7.80
7.26
6.57
5.77
4.98
4.40
4.20
4.47
5.15
6.02
6.81
7.29
7.38
7.11
6.61
6.02
5.43
4.85
4.21
3.45
2.50
1.32
-0.09
-1.68
-3.37
-5.04
-6.58
-7.93
-9.05
-10.02
-10.90
-11.83
-12.93
-14.28
-15.88
-17.57
-19.07
-19.97
-19.89
-18.55
-15.92
-12.25
-7.98
-3.62
0.40
3.78
6.41
8.31
9.60
10.46
11.01
11.39
11.66
11.85
11.91
11.76
11.22
10.09
8.18
5.44
2.05
-1.62
-5.04
-7.77
-9.57
-10.48
-10.81
-10.92
-11.12
-11.51
-12.05
-12.57
-12.83
-12.67
-12.02
-10.91
-9.48
-7.95
-6.46
-5.09
-3.76
-2.31
-0.63
1.29
3.31
5.14
6.47
7.00
6.55
5.08
2.65
-0.47
-3.86
-7.02
-9.41
-10.65
-10.62
-9.46
-7.62
-5.59
-3.86
-2.68
-2.14
-2.12
-2.42
-2.81
-3.14
-3.36
-3.50
-3.66
-3.87
-4.10
-4.20
-4.00
-3.36
-2.30
-0.94
0.49
1.73
2.66
3.24
3.59
3.80
3.93
3.93
3.70
3.13
2.21
1.07
-0.07
-1.00
-1.61
-1.93
-2.14
-2.44
-2.97
-3.73
-4.61
-5.48
-6.20
-6.74
-7.15
-7.50
-7.92
-8.52
-9.38
-10.52
-11.90
-13.39
-14.74
-15.61
-15.65
-14.59
-12.37
-9.20
-5.54
-1.94
1.10
3.34
4.78
5.66
6.25
6.70
7.03
7.20
7.18
7.04
6.91
6.91
7.10
7.39
7.68
7.86
7.92
7.90
7.93
8.07
8.29
8.52
8.62
8.51
8.18
7.68
7.08
6.41
5.69
4.86
3.91
2.85
1.75
0.69
-0.32
-1.32
-2.47
-3.87
-5.60
-7.58
-9.61
-11.40
-12.75
-13.57
-14.10
-14.69
-15.72
-17.35
-19.33
-21.15
-22.17
-21.96
-20.48
-18.12
-15.49
-13.15
-11.41
-10.25
-9.41
-8.56
-7.48
-6.11
-4.55
-2.98
-1.65
-0.74
-0.34
-0.42
-0.83
-1.41
-2.03
-2.70
-3.44
-4.22
-4.85
-4.97
-4.23
-2.47
0.14
3.09
5.79
7.81
9.08
9.92
10.74
11.86
13.25
14.62
15.63
16.09
16.11
15.99
16.00
16.23
16.53
16.59
16.11
14.94
13.11
10.72
7.86
4.64
1.16
-2.32
-5.40
-7.60
-8.52
-8.06
-6.42
-4.14
-1.85
-0.06
0.95
1.24
1.06
0.75
0.58
0.69
1.03
1.49
1.93
2.31
2.67
3.08
3.61
4.25
4.88
5.34
5.49
5.33
4.98
4.59
4.27
4.03
3.73
3.23
2.46
1.47
0.43
-0.49
-1.16
-1.62
-2.00
-2.56
-3.50
-4.93
-6.72
-8.62
-10.30
-11.55
-12.37
-12.97
-13.71
-14.91
-16.76
-19.17
-21.83
-24.32
-26.18
-26.99
-26.43
-24.40
-21.03
-16.72
-12.08
-7.76
-4.25
-1.75
-0.14
0.94
1.86
2.91
4.12
5.35
6.43
7.22
7.69
7.96
8.14
8.29
8.42
8.50
8.53
8.56
8.69
8.97
9.36
9.74
9.92
9.78
9.27
8.43
7.39
6.27
5.17
4.09
2.97
1.68
0.12
-1.74
-3.76
-5.75
-7.49
-8.90
-10.04
-11.10
-12.32
-13.82
-15.65
-17.78
-20.15
-22.69
-25.23
-27.42
-28.74
-28.62
-26.67
-22.90
-17.79
-12.13
-6.78
-2.34
0.96
3.27
4.92
6.24
7.43
8.56
9.58
10.42
11.07
11.58
12.03
12.49
12.98
13.49
13.95
14.32
14.57
14.73
14.82
14.88
14.83
14.55
13.86
12.64
10.87
8.71
6.42
4.30
2.59
1.41
0.68
0.17
-0.44
-1.47
-3.09
-5.23
-7.65
-10.02
-12.03
-13.58
-14.72
-15.68
-16.79
-18.36
-20.60
-23.54
-26.84
-29.91
-31.92
-32.10
-30.01
-25.78
-20.06
-13.78
-7.87
-2.89
0.99
4.00
6.47
8.67
10.71
12.58
14.22
15.61
16.81
17.87
18.83
19.65
20.21
20.43
20.30
19.93
19.50
19.23
19.22
19.45
19.74
19.81
19.37
18.18
16.20
13.61
10.80
8.26
6.41
5.39
5.04
4.86
4.29
2.91
0.67
-2.16
-5.06
-7.55
-9.39
-10.66
-11.70
-12.95
-14.75
-17.26
-20.42
-23.96
-27.40
-30.12
-31.50
-30.98
-28.36
-23.79
-17.90
-11.48
-5.32
0.03
4.35
7.65
10.14
12.05
13.64
15.09
16.54
18.03
19.42
20.55
21.22
21.42
21.29
21.06
20.97
21.11
21.47
21.90
22.28
22.52
22.60
22.44
21.98
21.14
19.89
18.32
16.58
14.93
13.53
12.43
11.56
10.76
9.88
8.86
7.72
6.53
5.35
4.15
2.85
1.42
-0.11
-1.54
-2.66
-3.37
-3.74
-4.09
-4.84
-6.34
-8.78
-12.17
-16.44
-21.47
-27.11
-33.05
-38.71
-43.26
-45.78
-45.53
-42.26
-36.26
-28.31
-19.41
-10.61
-2.73
3.58
8.02
10.54
11.40
11.14
10.43
9.93
10.04
10.90
12.33
14.03
15.68
17.06
18.03
18.47
18.27
17.36
15.80
13.72
11.37
9.01
6.83
4.97
3.49
2.40
1.65
1.03
0.21
-1.13
-3.17
-5.78
-8.57
-11.13
-13.15
-14.68
-16.02
-17.55
-19.55
-22.06
-24.95
-27.97
-30.82
-33.11
-34.38
-34.09
-31.91
-27.76
-22.06
-15.55
-9.10
-3.43
1.12
4.59
7.28
9.53
11.60
13.57
15.44
17.13
18.53
19.59
20.24
20.51
20.45
20.10
19.52
18.73
17.76
16.65
15.45
14.22
12.96
11.60
10.08
8.31
6.38
4.46
2.81
1.66
1.12
1.12
1.45
1.81
1.93
1.62
0.88
-0.16
-1.23
-2.05
-2.40
-2.21
-1.56
-0.69
0.08
0.38
-0.20
-1.99
-5.07
-9.13
-13.43
-16.82
-18.14
-16.66
-12.35
-5.93
1.33
8.13
13.55
17.25
19.42
20.57
21.20
21.69
22.12
22.43
22.46
22.12
21.43
20.58
19.80
19.24
18.93
18.74
18.52
18.17
17.78
17.47
17.38
17.46
17.48
17.14
16.14
14.40
12.05
9.40
6.82
4.54
2.69
1.17
-0.26
-1.84
-3.76
-6.03
-8.52
-10.93
-13.05
-14.75
-16.11
-17.29
-18.49
-19.88
-21.55
-23.62
-26.19
-29.29
-32.77
-36.17
-38.78
-39.76
-38.46
-34.70
-28.88
-21.87
-14.72
-8.29
-3.07
0.88
3.86
6.25
8.38
10.44
12.45
14.31
15.90
17.13
17.96
18.48
18.76
18.94
19.12
19.35
19.63
19.95
20.31
20.65
20.93
21.03
20.86
20.33
19.40
18.11
16.54
14.80
13.02
11.27
9.65
8.20
6.95
5.87
4.85
3.70
2.19
0.15
-2.45
-5.46
-8.59
-11.52
-14.07
-16.23
-18.20
-20.29
-22.78
-25.86
-29.43
-33.09
-36.21
-38.01
-37.87
-35.46
-30.97
-24.97
-18.30
-11.77
-5.94
-1.00
3.13
6.60
9.54
11.94
13.74
14.92
15.58
15.94
16.20
16.53
16.94
17.38
17.73
18.01
18.28
18.67
19.24
19.96
20.70
21.22
21.32
20.80
19.62
17.85
15.66
13.32
11.05
9.01
7.20
5.50
3.72
1.71
-0.56
-3.01
-5.47
-7.75
-9.74
-11.44
-12.98
-14.56
-16.34
-18.47
-20.99
-23.94
-27.30
-30.94
-34.52
-37.48
-39.06
-38.58
-35.68
-30.50
-23.69
-16.19
-8.94
-2.63
2.47
6.41
9.43
11.82
13.79
15.46
16.83
17.85
18.40
18.43
18.01
17.32
16.61
16.16
16.10
16.38
16.86
17.34
17.70
17.88
17.83
17.53
16.92
15.93
14.52
12.73
10.69
8.58
6.59
4.89
3.53
2.45
1.45
0.25
-1.33
-3.36
-5.65
-7.96
-10.00
-11.66
-13.05
-14.39
-15.95
-17.96
-20.53
-23.68
-27.27
-31.01
-34.32
-36.48
-36.77
-34.78
-30.58
-24.76
-18.17
-11.69
-5.89
-0.99
3.06
6.43
9.18
11.30
12.78
13.66
14.11
14.36
14.62
14.97
15.34
15.57
15.53
15.15
14.54
13.93
13.56
13.58
13.88
14.18
14.11
13.39
12.02
10.23
8.43
6.95
5.93
5.24
4.57
3.58
1.99
-0.23
-2.94
-5.83
-8.57
-10.88
-12.64
-13.91
-14.91
-15.95
-17.34
-19.33
-22.06
-25.45
-29.15
-32.53
-34.73
-34.94
-32.63
-27.82
-21.06
-13.31
-5.58
1.36
7.03
11.35
14.46
16.58
17.96
18.81
19.35
19.70
19.95
20.14
20.24
20.22
20.06
19.75
19.33
18.87
18.49
18.31
18.35
18.52
18.64
18.45
17.72
16.32
14.31
11.88
9.32
6.87
4.63
2.53
0.36
-2.06
-4.77
-7.60
-10.28
-12.58
-14.42
-15.95
-17.37
-18.93
-20.75
-22.96
-25.66
-28.93
-32.63
-36.32
-39.17
-40.20
-38.62
-34.25
-27.60
-19.74
-11.88
-4.93
0.69
5.07
8.51
11.31
13.63
15.51
16.95
18.06
18.97
19.78
20.50
21.01
21.19
21.03
20.66
20.30
20.21
20.55
21.30
22.23
22.97
23.09
22.32
20.60
18.16
15.37
12.68
10.36
8.46
6.82
5.18
3.29
1.04
-1.58
-4.45
-7.44
-10.36
-13.06
-15.38
-17.23
-18.67
-20.02
-21.73
-24.26
-27.83
-32.14
-36.35
-39.28
-39.79
-37.25
-31.81
-24.34
-16.07
-8.14
-1.27
4.34
8.81
12.37
15.13
17.14
18.41
19.06
19.30
19.42
19.60
19.84
19.97
19.79
19.19
18.26
17.26
16.50
16.14
16.12
16.13
15.77
14.77
13.10
10.99
8.77
6.74
4.98
3.37
1.74
-0.08
-2.07
-4.12
-6.07
-7.83
-9.43
-10.97
-12.58
-14.36
-16.42
-18.87
-21.91
-25.60
-29.81
-34.03
-37.44
-39.08
-38.17
-34.44
-28.23
-20.41
-12.06
-4.19
2.53
7.90
12.09
15.42
18.19
20.53
22.36
23.55
24.03
23.89
23.34
22.66
22.05
21.59
21.21
20.83
20.42
20.02
19.66
19.32
18.85
18.08
16.78
14.87
12.42
9.63
6.83
4.28
2.14
0.33
-1.38
-3.28
-5.56
-8.25
-11.17
-14.07
-16.74
-19.15
-21.44
-23.90
-26.84
-30.35
-34.23
-37.87
-40.40
-40.88
-38.64
-33.57
-26.17
-17.41
-8.38
-0.02
7.09
12.79
17.14
20.32
22.49
23.82
24.47
24.61
24.40
24.04
23.66
23.31
23.01
22.69
22.31
21.80
21.23
20.64
20.12
19.62
19.02
18.14
16.85
15.18
13.29
11.34
9.44
7.51
5.33
2.74
-0.30
-3.63
-6.91
-9.90
-12.44
-14.63
-16.69
-18.91
-21.62
-24.99
-29.09
-33.70
-38.28
-41.98
-43.81
-42.94
-38.99
-32.19
-23.36
-13.68
-4.35
3.66
9.85
14.12
16.75
18.19
18.92
19.27
19.41
19.36
19.08
18.61
18.11
17.75
17.65
17.70
17.68
17.31
16.47
15.30
14.11
13.22
12.74
12.51
12.17
11.36
9.88
7.79
5.27
2.53
-0.28
-3.11
-5.91
-8.61
-11.11
-13.35
-15.44
-17.61
-20.23
-23.59
-27.75
-32.40
-36.81
-39.96
-40.86
-38.86
-33.93
-26.72
-18.31
-9.88
-2.26
4.23
9.66
14.23
18.07
21.09
23.09
23.98
23.86
23.03
21.93
20.93
20.23
19.84
19.61
19.31
18.75
17.86
16.75
15.63
14.69
14.00
13.42
12.68
11.45
9.57
7.04
4.04
0.84
-2.32
-5.30
-8.07
-10.67
-13.22
-15.81
-18.62
-21.79
-25.47
-29.64
-33.96
-37.73
-40.02
-39.88
-36.77
-30.82
-22.76
-13.77
-5.02
2.63
8.80
13.51
16.98
19.43
21.01
21.82
21.97
21.59
20.84
19.86
18.75
17.57
16.37
15.17
14.04
13.02
12.23
11.71
11.50
11.52
11.53
11.19
10.13
8.10
5.08
1.35
-2.66
-6.43
-9.62
-12.15
-14.24
-16.30
-18.80
-22.10
-26.30
-31.15
-36.02
-39.99
-42.12
-41.67
-38.38
-32.49
-24.73
-16.04
-7.33
0.77
7.87
13.81
18.56
22.07
24.37
25.56
25.86
25.59
25.08
24.54
24.00
23.35
22.41
21.11
19.50
17.81
16.31
15.20
14.51
14.08
13.63
12.85
11.49
9.45
6.84
3.87
0.87
-1.95
-4.51
-6.88
-9.35
-12.15
-15.49
-19.39
-23.65
-27.84
-31.33
-33.40
-33.36
-30.79
-25.66
-18.34
-9.54
-0.05
9.35
18.09
25.66
31.47
34.78
34.81
31.06
23.67
13.60
2.56
-7.47
-14.78
-18.47
-18.54
-15.78
-11.34
-6.33
-1.52
2.61
5.78
7.78
8.42
7.56
5.31
2.05
-1.67
-5.25
-8.29
-10.73
-12.86
-15.16
-18.10
-22.01
-26.96
-32.74
-38.84
-44.49
-48.72
-50.61
-49.51
-45.26
-38.27
-29.34
-19.43
-9.40
0.09
8.58
15.77
21.48
25.70
28.61
30.51
31.68
32.28
32.28
31.55
30.02
27.79
25.12
22.37
19.85
17.73
16.01
14.58
13.27
11.89
10.30
8.36
6.05
3.40
0.57
-2.26
-4.90
-7.28
-9.52
-11.95
-14.98
-18.95
-23.78
-28.86
-33.06
-35.10
-33.97
-29.41
-21.96
-12.79
-3.26
5.52
12.93
18.82
23.30
26.50
28.48
29.27
28.93
27.65
25.76
23.61
21.56
19.85
18.56
17.57
16.63
15.41
13.68
11.39
8.62
5.59
2.50
-0.56
-3.59
-6.64
-9.73
-12.86
-16.06
-19.46
-23.24
-27.58
-32.35
-37.07
-40.82
-42.52
-41.23
-36.59
-28.93
-19.24
-8.80
1.13
9.70
16.50
21.55
25.08
27.34
28.52
28.72
28.06
26.72
24.95
22.99
21.04
19.14
17.23
15.18
12.90
10.41
7.82
5.30
2.89
0.53
-1.93
-4.63
-7.61
-10.79
-14.09
-17.48
-21.10
-25.12
-29.65
-34.53
-39.20
-42.80
-44.30
-42.86
-38.12
-30.39
-20.57
-9.93
0.31
9.27
16.53
22.07
26.06
28.66
29.93
29.94
28.83
26.91
24.56
22.11
19.79
17.65
15.65
13.80
12.08
10.56
9.22
8.00
6.75
5.30
3.47
1.13
-1.76
-5.10
-8.77
-12.63
-16.64
-20.92
-25.63
-30.80
-36.12
-40.78
-43.64
-43.61
-40.04
-33.09
-23.71
-13.29
-3.22
5.58
12.78
18.50
23.07
26.70
29.39
31.01
31.45
30.81
29.38
27.58
25.70
23.92
22.22
20.56
18.85
17.12
15.40
13.69
11.92
9.96
7.68
5.03
2.02
-1.24
-4.65
-8.17
-11.82
-15.79
-20.32
-25.56
-31.39
-37.26
-42.19
-44.96
-44.59
-40.57
-33.19
-23.39
-12.46
-1.72
7.87
15.76
21.81
26.15
29.00
30.64
31.34
31.32
30.79
29.89
28.68
27.17
25.37
23.30
21.13
19.12
17.50
16.33
15.47
14.51
13.04
10.82
7.85
4.45
1.02
-2.14
-4.99
-7.76
-10.88
-14.78
-19.72
-25.58
-31.78
-37.33
-41.00
-41.69
-38.80
-32.44
-23.42
-12.99
-2.44
7.20
15.31
21.66
26.26
29.20
30.63
30.81
30.08
28.87
27.53
26.24
25.00
23.62
21.93
19.87
17.56
15.28
13.32
11.86
10.80
9.86
8.63
6.80
4.23
1.00
-2.65
-6.45
-10.25
-14.08
-18.15
-22.73
-27.92
-33.39
-38.37
-41.68
-42.17
-39.09
-32.44
-23.04
-12.25
-1.53
8.00
15.76
21.66
25.86
28.53
29.76
29.65
28.37
26.28
23.81
21.37
19.20
17.36
15.80
14.39
13.08
11.84
10.66
9.45
8.05
6.26
3.94
1.04
-2.34
-5.94
-9.57
-13.08
-16.55
-20.25
-24.45
-29.28
-34.50
-39.45
-43.15
-44.56
-42.92
-38.01
-30.24
-20.51
-10.03
0.09
8.95
16.04
21.20
24.55
26.39
27.10
27.07
26.63
25.99
25.21
24.21
22.87
21.08
18.95
16.72
14.73
13.25
12.32
11.68
10.92
9.64
7.61
4.92
1.82
-1.38
-4.50
-7.52
-10.55
-13.82
-17.49
-21.76
-26.61
-31.78
-36.65
-40.27
-41.62
-39.93
-34.97
-27.18
-17.50
-7.12
2.90
11.74
18.91
24.19
27.57
29.19
29.41
28.72
27.68
26.67
25.86
25.13
24.20
22.87
21.07
19.01
17.00
15.32
14.03
13.01
11.96
10.55
8.63
6.16
3.29
0.23
-2.84
-5.84
-8.74
-11.69
-14.90
-18.62
-23.03
-28.07
-33.30
-37.88
-40.73
-40.87
-37.74
-31.42
-22.68
-12.71
-2.82
5.99
13.17
18.60
22.45
24.96
26.34
26.74
26.31
25.25
23.88
22.49
21.28
20.29
19.41
18.45
17.29
15.94
14.60
13.56
12.97
12.78
12.65
12.08
10.57
7.88
4.11
-0.27
-4.64
-8.46
-11.52
-13.99
-16.34
-19.10
-22.65
-27.04
-31.97
-36.75
-40.51
-42.34
-41.51
-37.68
-31.05
-22.33
-12.62
-3.06
5.37
12.17
17.23
20.76
23.10
24.55
25.31
25.52
25.29
24.71
23.86
22.76
21.38
19.65
17.61
15.40
13.24
11.39
10.01
9.07
8.31
7.34
5.81
3.51
0.48
-2.99
-6.49
-9.64
-12.21
-14.25
-16.01
-17.91
-20.38
-23.72
-27.94
-32.76
-37.49
-41.23
-43.00
-42.04
-38.07
-31.40
-22.84
-13.54
-4.60
3.17
9.33
13.85
16.91
18.76
19.59
19.62
19.04
18.14
17.16
16.29
15.55
14.81
13.91
12.77
11.52
10.40
9.65
9.32
9.21
8.91
7.99
6.16
3.44
0.12
-3.36
-6.54
-9.15
-11.19
-12.90
-14.71
-17.07
-20.29
-24.36
-28.88
-33.10
-36.10
-37.02
-35.29
-30.87
-24.24
-16.29
-8.01
-0.36
6.08
11.04
14.59
16.97
18.45
19.24
19.44
19.07
18.09
16.51
14.45
12.13
9.85
7.87
6.37
5.38
4.72
4.12
3.30
2.02
0.20
-2.11
-4.73
-7.45
-10.09
-12.56
-14.85
-17.03
-19.29
-21.84
-24.89
-28.49
-32.34
-35.78
-37.85
-37.61
-34.46
-28.42
-20.17
-10.90
-1.87
5.94
11.99
16.31
19.23
21.21
22.64
23.76
24.65
25.35
25.86
26.19
26.33
26.22
25.78
24.94
23.77
22.42
21.09
19.90
18.76
17.40
15.50
12.84
9.42
5.47
1.40
-2.43
-5.86
-9.01
-12.21
-15.88
-20.27
-25.27
-30.35
-34.62
-37.09
-36.95
-33.84
-27.98
-20.10
-11.25
-2.48
5.36
11.75
16.57
19.96
22.23
23.70
24.59
25.02
25.03
24.62
23.83
22.70
21.31
19.73
18.05
16.42
15.06
14.12
13.67
13.52
13.12
11.70
8.43
2.78
-5.30
-15.23
-25.92
-36.05
-44.47
-50.45
-53.83
-54.96
-54.40
-52.71
-50.16
-46.76
-42.33
-36.72
-29.97
-22.38
-14.45
-6.74
0.24
6.15
10.81
14.20
16.39
17.49
17.77
17.47
16.91
16.29
15.77
15.36
15.00
14.63
14.19
13.65
13.07
12.51
11.95
11.37
10.72
9.84
8.61
6.92
4.75
2.16
-0.63
-3.35
-5.78
-7.87
-9.78
-11.84
-14.47
-17.96
-22.30
-27.07
-31.50
-34.59
-35.45
-33.48
-28.64
-21.42
-12.65
-3.40
5.36
12.84
18.58
22.44
24.60
25.46
25.50
25.18
24.79
24.36
23.72
22.68
21.12
19.05
16.70
14.34
12.26
10.65
9.60
9.02
8.74
8.43
7.76
6.47
4.41
1.65
-1.53
-4.83
-8.00
-11.03
-14.11
-17.61
-21.85
-26.78
-31.91
-36.28
-38.77
-38.48
-35.02
-28.73
-20.47
-11.38
-2.52
5.37
11.93
17.06
20.84
23.36
24.72
25.07
24.62
23.62
22.30
20.82
19.27
17.66
16.01
14.34
12.71
11.16
9.72
8.34
6.92
5.32
3.41
1.09
-1.60
-4.56
-7.58
-10.48
-13.21
-15.94
-19.01
-22.81
-27.48
-32.74
-37.76
-41.38
-42.43
-40.19
-34.66
-26.61
-17.24
-7.81
0.76
8.08
14.09
18.89
22.48
24.77
25.68
25.26
23.83
21.79
19.59
17.48
15.52
13.65
11.78
9.94
8.19
6.61
5.22
3.90
2.47
0.75
-1.37
-3.87
-6.61
-9.38
-12.05
-14.64
-17.30
-20.32
-23.94
-28.26
-33.09
-37.90
-41.84
-43.86
-43.08
-39.01
-31.86
-22.51
-12.27
-2.46
5.95
12.55
17.41
20.81
23.07
24.42
24.98
24.85
24.12
22.84
21.03
18.72
15.98
13.00
10.07
7.48
5.49
4.13
3.25
2.55
1.70
0.36
-1.64
-4.29
-7.43
-10.76
-14.01
-17.03
-19.84
-22.60
-25.56
-28.97
-32.92
-37.21
-41.31
-44.35
-45.33
-43.39
-38.07
-29.53
-18.47
-6.03
6.51
18.05
27.78
35.27
40.46
43.59
45.04
45.22
44.47
43.03
41.02
38.58
35.82
32.92
30.03
27.25
24.66
22.29
20.15
18.16
16.20
14.06
11.51
8.41
4.77
0.80
-3.23
-7.06
-10.56
-13.75
-16.79
-19.97
-23.57
-27.76
-32.43
-37.04
-40.66
-42.20
-40.76
-36.03
-28.44
-19.00
-8.95
0.71
9.36
16.83
23.09
28.14
31.87
34.16
34.99
34.56
33.16
31.12
28.70
26.04
23.25
20.49
18.01
16.04
14.73
14.06
13.78
13.48
12.68
10.99
8.23
4.61
0.53
-3.44
-6.88
-9.66
-12.01
-14.38
-17.24
-20.93
-25.53
-30.83
-36.32
-41.19
-44.48
-45.26
-42.92
-37.35
-29.12
-19.28
-9.05
0.47
8.54
14.86
19.39
22.35
24.01
24.67
24.57
23.92
22.78
21.18
19.17
16.85
14.43
12.17
10.26
8.78
7.66
6.66
5.50
3.92
1.78
-0.91
-4.00
-7.23
-10.36
-13.25
-15.99
-18.85
-22.24
-26.56
-31.93
-38.03
-44.00
-48.54
-50.29
-48.24
-42.14
-32.64
-21.14
-9.32
1.35
10.03
16.53
21.15
24.40
26.66
28.17
29.02
29.25
28.95
28.20
27.10
25.68
23.96
21.96
19.80
17.63
15.69
14.11
12.89
11.83
10.53
8.58
5.67
1.82
-2.64
-7.20
-11.39
-15.00
-18.16
-21.34
-25.09
-29.78
-35.37
-41.31
-46.56
-49.86
-50.03
-46.37
-38.89
-28.36
-16.08
-3.53
8.02
17.76
25.36
30.89
34.58
36.71
37.55
37.32
36.29
34.71
32.82
30.79
28.69
26.55
24.39
22.34
20.54
19.16
18.25
17.64
16.94
15.65
13.34
9.84
5.34
0.24
-4.91
-9.70
-13.93
-17.69
-21.34
-25.39
-30.36
-36.46
-43.42
-50.26
-55.51
-57.57
-55.30
-48.45
-37.85
-25.05
-11.88
0.18
10.24
18.09
23.88
27.88
30.34
31.46
31.43
30.51
29.02
27.27
25.46
23.68
21.90
20.07
18.24
16.52
15.05
13.97
13.22
12.57
11.63
10.02
7.47
3.98
-0.24
-4.80
-9.31
-13.59
-17.62
-21.60
-25.88
-30.82
-36.68
-43.42
-50.50
-56.82
-60.83
-61.02
-56.43
-47.10
-34.18
-19.58
-5.27
7.31
17.57
25.74
32.32
37.74
42.11
45.24
46.93
47.15
46.13
44.23
41.83
39.15
36.36
33.55
30.89
28.58
26.72
25.27
23.90
22.15
19.55
15.83
11.03
5.45
-0.44
-6.19
-11.50
-16.27
-20.68
-25.07
-29.95
-35.77
-42.68
-50.23
-57.36
-62.51
-64.12
-61.16
-53.57
-42.29
-28.98
-15.42
-3.03
7.42
15.76
22.18
26.96
30.35
32.49
33.45
33.33
32.25
30.37
27.90
25.15
22.42
20.02
18.16
16.91
16.15
15.60
14.87
13.57
11.41
8.36
4.61
0.59
-3.28
-6.72
-9.73
-12.62
-15.88
-20.00
-25.28
-31.69
-38.74
-45.49
-50.68
-52.96
-51.29
-45.24
-35.22
-22.41
-8.44
5.02
16.67
25.79
32.23
36.26
38.36
39.04
38.73
37.75
36.24
34.26
31.82
28.99
25.88
22.78
20.03
17.95
16.70
16.15
15.88
15.28
13.83
11.19
7.40
2.82
-2.11
-6.92
-11.41
-15.62
-19.84
-24.51
-30.07
-36.83
-44.67
-52.89
-60.18
-64.87
-65.34
-60.68
-50.96
-37.39
-21.84
-6.35
7.53
18.97
27.78
34.22
38.62
41.28
42.41
42.29
41.28
39.79
38.14
36.51
34.82
32.90
30.55
27.78
24.83
22.08
19.89
18.42
17.45
16.48
14.86
12.10
8.03
2.88
-2.79
-8.38
-13.44
-17.89
-22.02
-26.40
-31.60
-38.06
-45.83
-54.45
-62.90
-69.70
-73.21
-72.10
-65.77
-54.63
-40.05
-23.97
-8.28
5.63
17.13
26.20
33.14
38.19
41.46
43.01
42.97
41.75
39.86
37.85
36.06
34.52
33.09
31.52
29.70
27.69
25.72
24.06
22.89
22.14
21.44
20.20
17.79
13.85
8.43
2.08
-4.41
-10.27
-15.13
-19.14
-22.90
-27.18
-32.63
-39.57
-47.79
-56.58
-64.68
-70.45
-72.19
-68.72
-59.74
-46.16
-29.83
-13.00
2.44
15.39
25.65
33.56
39.54
43.79
46.29
47.01
46.17
44.26
41.92
39.69
37.86
36.41
35.14
33.88
32.53
31.17
29.92
28.91
28.09
27.25
26.04
24.04
20.93
16.63
11.38
5.64
-0.02
-5.19
-9.71
-13.83
-18.01
-22.79
-28.66
-35.88
-44.34
-53.42
-61.92
-68.23
-70.59
-67.69
-59.16
-45.83
-29.49
-12.35
3.62
17.15
27.79
35.69
41.19
44.59
46.12
45.98
44.49
42.06
39.14
36.08
33.07
30.23
27.62
25.31
23.42
21.98
20.94
20.07
19.05
17.51
15.08
11.57
6.93
1.34
-4.82
-11.11
-17.13
-22.72
-28.03
-33.56
-39.89
-47.43
-56.04
-64.76
-71.96
-75.67
-74.28
-67.11
-54.71
-38.68
-21.23
-4.47
10.12
21.83
30.62
36.84
40.93
43.28
44.17
43.77
42.25
39.79
36.59
32.94
29.19
25.70
22.80
20.65
19.22
18.25
17.32
15.94
13.66
10.20
5.57
-0.00
-6.06
-12.17
-18.01
-23.51
-28.92
-34.68
-41.36
-49.37
-58.70
-68.60
-77.56
-83.55
-84.57
-79.40
-68.04
-51.88
-33.18
-14.42
2.47
16.48
27.40
35.53
41.27
44.95
46.78
47.07
46.18
44.53
42.45
40.12
37.58
34.81
31.90
29.04
26.56
24.75
23.70
23.20
22.73
21.63
19.23
15.21
9.64
2.98
-4.04
-10.75
-16.78
-22.20
-27.49
-33.42
-40.67
-49.58
-59.69
-69.69
-77.55
-81.04
-78.45
-69.29
-54.45
-36.01
-16.57
1.57
16.93
29.03
38.12
44.74
49.39
52.32
53.67
53.56
52.25
50.13
47.64
45.17
42.93
40.97
39.19
37.47
35.75
34.09
32.62
31.46
30.56
29.68
28.36
26.03
22.31
17.08
10.66
3.66
-3.17
-9.28
-14.49
-19.01
-23.39
-28.32
-34.39
-41.99
-51.16
-61.31
-71.18
-78.90
-82.34
-79.83
-70.76
-55.96
-37.51
-18.05
0.01
15.13
26.85
35.44
41.45
45.32
47.23
47.31
45.79
43.14
39.97
36.91
34.36
32.42
30.90
29.53
28.10
26.60
25.23
24.13
23.25
22.22
20.40
17.17
12.28
5.96
-1.07
-7.93
-13.89
-18.65
-22.43
-25.86
-29.79
-35.05
-42.18
-51.14
-61.11
-70.42
-76.86
-78.19
-72.94
-60.98
-43.73
-23.76
-4.01
13.15
26.48
35.95
42.31
46.48
49.05
50.18
49.79
47.93
45.01
41.74
38.88
36.88
35.67
34.82
33.74
32.10
29.98
27.76
25.84
24.40
23.13
21.35
18.33
13.63
7.43
0.45
-6.36
-12.24
-16.95
-20.93
-25.07
-30.39
-37.67
-47.07
-57.97
-68.88
-77.68
-82.01
-80.07
-71.20
-56.22
-37.25
-17.02
1.96
18.12
30.99
40.90
48.42
53.93
57.50
59.05
58.71
56.96
54.64
52.63
51.53
51.39
51.74
51.80
50.89
48.72
45.51
41.92
38.64
36.02
33.85
31.39
27.65
21.74
13.25
2.32
-10.39
-23.87
-37.02
-48.77
-58.30
-65.24
-69.79
-72.71
-75.06
-77.72
-80.92
-83.93
-85.21
-83.00
-76.01
-64.00
-47.98
-29.83
-11.77
4.38
17.54
27.48
34.56
39.34
42.32
43.84
44.10
43.33
41.91
40.23
38.73
37.63
36.97
36.60
36.32
35.96
35.43
34.70
33.74
32.52
30.93
28.84
26.11
22.66
18.53
13.86
8.87
3.78
-1.26
-6.20
-11.00
-15.65
-20.08
-24.27
-28.36
-32.70
-37.85
-44.31
-52.25
-61.15
-69.69
-75.98
-78.01
-74.36
-64.68
-49.94
-32.13
-13.69
3.25
17.34
28.12
35.85
41.09
44.35
46.00
46.26
45.43
43.84
41.92
40.03
38.36
36.91
35.56
34.23
32.95
31.92
31.35
31.30
31.58
31.74
31.23
29.58
26.67
22.73
18.23
13.70
9.50
5.68
2.05
-1.73
-5.91
-10.52
-15.39
-20.17
-24.50
-28.24
-31.55
-34.95
-39.09
-44.54
-51.40
-59.05
-66.08
-70.60
-70.76
-65.43
-54.69
-39.84
-23.07
-6.69
7.54
18.80
27.12
33.09
37.25
39.93
41.18
41.00
39.57
37.31
34.75
32.39
30.50
29.11
28.13
27.42
26.90
26.50
26.10
25.50
24.43
22.66
20.13
16.97
13.45
9.86
6.36
2.93
-0.60
-4.43
-8.65
-13.18
-17.77
-22.15
-26.12
-29.63
-32.82
-35.91
-39.22
-43.03
-47.61
-53.02
-58.94
-64.51
-68.36
-68.91
-64.89
-55.92
-42.75
-27.12
-11.21
3.01
14.34
22.46
27.74
30.88
32.53
33.19
33.18
32.66
31.76
30.57
29.14
27.57
25.98
24.52
23.40
22.74
22.58
22.79
23.13
23.22
22.72
21.40
19.23
16.43
13.35
10.32
7.50
4.81
1.95
-1.36
-5.25
-9.64
-14.24
-18.72
-22.85
-26.58
-30.10
-33.70
-37.74
-42.54
-48.21
-54.52
-60.69
-65.48
-67.38
-65.14
-58.17
-46.90
-32.67
-17.40
-2.97
9.22
18.54
25.04
29.20
31.61
32.76
33.03
32.70
32.06
31.32
30.67
30.12
29.59
28.95
28.13
27.20
26.34
25.72
25.38
25.16
24.77
23.93
22.41
20.21
17.49
14.43
11.25
8.07
4.86
1.50
-2.19
-6.29
-10.77
-15.37
-19.81
-23.80
-27.29
-30.49
-33.82
-37.78
-42.75
-48.80
-55.47
-61.81
-66.46
-67.97
-65.29
-58.11
-47.06
-33.56
-19.37
-6.11
5.14
13.95
20.46
25.05
28.19
30.22
31.40
31.84
31.65
30.93
29.80
28.39
26.88
25.41
24.16
23.28
22.86
22.92
23.33
23.81
23.94
23.28
21.56
18.77
15.18
11.24
7.40
3.98
0.99
-1.77
-4.64
-7.92
-11.71
-15.87
-20.14
-24.20
-27.88
-31.19
-34.37
-37.77
-41.69
-46.26
-51.32
-56.31
-60.33
-62.27
-61.10
-56.20
-47.66
-36.25
-23.34
-10.40
1.31
11.03
18.47
23.73
27.07
28.85
29.48
29.38
28.96
28.46
27.93
27.26
26.27
24.91
23.28
21.66
20.29
19.29
18.65
18.18
17.67
16.93
15.80
14.19
12.05
9.44
6.48
3.31
0.05
-3.28
-6.69
-10.25
-13.93
-17.56
-20.92
-23.83
-26.26
-28.45
-30.87
-34.02
-38.23
-43.42
-48.98
-53.76
-56.33
-55.40
-50.24
-41.03
-28.85
-15.40
-2.47
8.55
16.96
22.77
26.39
28.38
29.14
28.96
28.05
26.60
24.90
23.20
21.67
20.37
19.19
18.00
16.69
15.28
13.90
12.71
11.85
11.29
10.87
10.32
9.36
7.81
5.60
2.85
-0.26
-3.53
-6.81
-10.02
-13.17
-16.34
-19.65
-23.27
-27.39
-32.15
-37.53
-43.26
-48.61
-52.51
-53.68
-51.10
-44.41
-34.11
-21.56
-8.50
3.41
13.11
20.29
25.25
28.50
30.53
31.57
31.71
30.99
29.58
27.76
25.87
24.14
22.66
21.34
20.04
18.69
17.34
16.10
15.09
14.31
13.57
12.59
11.01
8.52
5.01
0.60
-4.40
-9.52
-14.30
-18.43
-21.80
-24.65
-27.42
-30.69
-35.02
-40.68
-47.47
-54.56
-60.58
-63.90
-63.13
-57.62
-47.69
-34.65
-20.31
-6.46
5.61
15.33
22.72
28.13
31.96
34.50
35.95
36.45
36.20
35.43
34.39
33.29
32.23
31.19
30.04
28.59
26.80
24.78
22.85
21.36
20.48
20.09
19.74
18.80
16.77
13.43
8.99
3.97
-0.99
-5.38
-8.93
-11.72
-14.07
-16.43
-19.31
-23.12
-28.10
-34.16
-40.79
-46.95
-51.28
-52.32
-49.08
-41.39
-30.10
-16.81
-3.39
8.62
18.37
25.64
30.55
33.25
33.70
31.75
27.43
21.19
13.91
6.73
0.74
-3.26
-4.94
-4.42
-2.12
1.34
5.26
8.96
11.85
13.48
13.60
12.24
9.65
6.30
2.69
-0.78
-3.96
-6.97
-10.08
-13.57
-17.54
-21.86
-26.17
-30.10
-33.44
-36.20
-38.63
-41.17
-44.29
-48.39
-53.53
-59.22
-64.28
-67.03
-65.67
-59.00
-46.97
-30.85
-12.90
4.40
19.17
30.57
38.79
44.62
48.83
51.84
53.69
54.27
53.58
51.88
49.62
47.22
44.94
42.81
40.72
38.60
36.48
34.47
32.67
31.06
29.48
27.67
25.37
22.41
18.80
14.63
10.06
5.26
0.32
-4.65
-9.57
-14.30
-18.77
-22.99
-27.09
-31.37
-36.21
-41.99
-48.80
-56.25
-63.38
-68.75
-70.74
-68.12
-60.44
-48.29
-33.23
-17.27
-2.33
10.29
20.07
27.21
32.24
35.71
37.95
39.09
39.17
38.27
36.60
34.50
32.36
30.53
29.21
28.43
28.06
27.88
27.64
27.10
26.13
24.68
22.79
20.50
17.86
14.87
11.48
7.60
3.24
-1.54
-6.59
-11.67
-16.61
-21.30
-25.80
-30.30
-35.09
-40.47
-46.69
-53.76
-61.25
-68.21
-73.19
-74.61
-71.28
-62.84
-49.97
-34.20
-17.47
-1.56
12.31
23.51
31.91
37.65
41.05
42.54
42.60
41.82
40.70
39.58
38.60
37.74
36.89
35.99
35.01
34.01
33.04
32.13
31.23
30.20
28.88
27.16
25.03
22.60
20.04
17.50
14.95
12.19
8.90
4.78
-0.25
-5.99
-12.04
-17.88
-23.13
-27.71
-31.82
-35.92
-40.62
-46.43
-53.66
-62.04
-70.66
-77.92
-81.88
-80.85
-73.97
-61.69
-45.63
-28.13
-11.48
2.80
14.12
22.74
29.25
34.22
37.94
40.49
41.91
42.35
42.12
41.52
40.81
40.06
39.22
38.22
37.16
36.26
35.89
36.25
37.24
38.36
38.87
38.14
35.91
32.46
28.52
24.84
21.92
19.70
17.67
15.09
11.39
6.41
0.41
-6.03
-12.32
-18.03
-23.05
-27.53
-31.90
-36.68
-42.37
-49.20
-56.89
-64.40
-70.11
-72.14
-69.04
-60.38
-47.00
-30.80
-14.00
1.50
14.65
25.24
33.56
39.99
44.71
47.74
49.12
49.09
48.17
46.97
45.99
45.44
45.25
45.16
44.96
44.54
43.96
43.33
42.67
41.84
40.60
38.69
35.95
32.44
28.39
24.13
19.91
15.87
11.92
7.82
3.37
-1.55
-6.81
-12.19
-17.39
-22.25
-26.80
-31.32
-36.21
-41.91
-48.67
-56.33
-64.08
-70.47
-73.67
-72.08
-64.87
-52.51
-36.66
-19.69
-3.94
8.95
18.41
24.72
28.67
31.04
32.33
32.75
32.32
31.10
29.32
27.35
25.64
24.46
23.88
23.70
23.59
23.28
22.65
21.73
20.62
19.36
17.93
16.19
14.01
11.31
8.07
4.33
0.12
-4.51
-9.44
-14.48
-19.40
-24.04
-28.34
-32.48
-36.79
-41.73
-47.67
-54.70
-62.40
-69.76
-75.25
-77.21
-74.35
-66.25
-53.60
-38.02
-21.55
-6.11
7.08
17.50
25.27
30.81
34.55
36.83
37.90
38.04
37.49
36.52
35.33
34.05
32.75
31.51
30.43
29.60
29.08
28.77
28.47
27.87
26.69
24.74
22.00
18.62
14.80
10.79
6.73
2.69
-1.32
-5.30
-9.22
-12.95
-16.31
-19.12
-21.27
-22.84
-24.10
-25.54
-27.75
-31.21
-35.99
-41.54
-46.64
-49.63
-48.99
-43.87
-34.56
-22.33
-9.10
3.29
13.60
21.36
26.79
30.37
32.60
33.76
33.99
33.43
32.25
30.70
29.03
27.40
25.89
24.51
23.30
22.33
21.66
21.33
21.29
21.35
21.28
20.75
19.55
17.58
14.90
11.68
8.15
4.43
0.53
-3.62
-8.16
-13.10
-18.33
-23.53
-28.38
-32.64
-36.35
-39.87
-43.80
-48.74
-54.96
-62.19
-69.31
-74.68
-76.47
-73.27
-64.66
-51.38
-35.15
-18.12
-2.31
10.94
21.07
28.27
33.10
36.19
38.09
39.13
39.51
39.35
38.76
37.91
36.97
36.08
35.32
34.74
34.33
34.09
33.96
33.81
33.39
32.40
30.60
27.89
24.43
20.51
16.46
12.48
8.55
4.52
0.18
-4.54
-9.54
-14.59
-19.44
-23.98
-28.24
-32.47
-37.02
-42.30
-48.54
-55.64
-62.96
-69.27
-72.90
-72.26
-66.35
-55.23
-40.17
-23.24
-6.74
7.55
18.68
26.61
31.85
35.11
36.90
37.53
37.17
36.01
34.38
32.66
31.20
30.15
29.48
28.94
28.28
27.31
26.02
24.60
23.28
22.24
21.44
20.58
19.16
16.71
12.92
7.88
1.99
-4.12
-9.87
-14.89
-19.16
-22.91
-26.58
-30.60
-35.40
-41.23
-48.05
-55.38
-62.17
-66.91
-67.94
-64.06
-54.95
-41.47
-25.42
-9.02
5.77
17.77
26.72
33.01
37.28
40.01
41.45
41.68
40.88
39.36
37.61
36.08
34.97
34.23
33.57
32.68
31.40
29.77
28.01
26.37
25.01
23.92
22.85
21.45
19.27
16.01
11.59
6.23
0.38
-5.40
-10.68
-15.34
-19.52
-23.64
-28.15
-33.42
-39.66
-46.85
-54.73
-62.69
-69.76
-74.60
-75.79
-72.26
-63.70
-50.81
-35.15
-18.74
-3.44
9.51
19.63
27.11
32.45
36.24
38.91
40.77
41.99
42.66
42.77
42.28
41.15
39.44
37.37
35.26
33.46
32.19
31.50
31.22
31.01
30.45
29.19
27.01
23.92
20.13
15.99
11.82
7.79
3.86
-0.21
-4.68
-9.69
-15.18
-20.84
-26.30
-31.31
-35.82
-40.13
-44.76
-50.28
-57.04
-64.86
-72.85
-79.45
-82.80
-81.35
-74.36
-62.27
-46.54
-29.23
-12.32
2.79
15.40
25.44
33.12
38.69
42.35
44.34
44.94
44.56
43.65
42.56
41.48
40.44
39.33
38.06
36.62
35.15
33.91
33.19
33.10
33.49
33.88
33.65
32.22
29.37
25.32
20.69
16.15
12.21
8.91
5.92
2.75
-1.00
-5.45
-10.38
-15.38
-20.10
-24.34
-28.12
-31.68
-35.33
-39.41
-44.27
-50.18
-57.19
-64.88
-72.22
-77.62
-79.29
-75.84
-66.78
-52.87
-35.93
-18.22
-1.87
11.77
22.19
29.58
34.48
37.42
38.80
38.96
38.26
37.09
35.85
34.80
33.97
33.26
32.50
31.64
30.79
30.18
30.03
30.31
30.74
30.86
30.21
28.53
25.89
22.63
19.12
15.69
12.41
9.18
5.80
2.06
-2.15
-6.81
-11.75
-16.75
-21.57
-26.03
-30.11
-34.01
-38.10
-42.88
-48.73
-55.58
-62.74
-68.80
-72.00
-70.74
-64.19
-52.65
-37.56
-20.97
-4.96
8.98
20.16
28.57
34.56
38.51
40.73
41.51
41.16
40.12
38.85
37.72
36.91
36.37
35.92
35.37
34.60
33.61
32.48
31.22
29.79
28.00
25.67
22.70
19.13
15.17
11.04
6.90
2.76
-1.50
-5.96
-10.64
-15.41
-20.11
-24.60
-28.89
-33.09
-37.43
-42.17
-47.55
-53.72
-60.49
-67.15
-72.46
-74.82
-72.77
-65.55
-53.49
-38.03
-21.23
-5.19
8.51
19.15
26.70
31.65
34.63
36.21
36.84
36.82
36.36
35.61
34.67
33.63
32.54
31.44
30.38
29.43
28.65
28.09
27.71
27.35
26.83
25.91
24.46
22.42
19.83
16.71
13.07
8.89
4.14
-1.10
-6.66
-12.31
-17.81
-22.97
-27.75
-32.23
-36.67
-41.52
-47.28
-54.33
-62.56
-71.17
-78.59
-82.86
-82.23
-75.80
-63.92
-48.16
-30.76
-13.98
0.58
12.23
21.09
27.73
32.69
36.31
38.62
39.57
39.17
37.66
35.48
33.18
31.21
29.81
29.00
28.61
28.48
28.45
28.44
28.34
28.01
27.23
25.85
23.74
20.96
17.62
13.90
9.94
5.83
1.61
-2.71
-7.10
-11.48
-15.79
-20.00
-24.13
-28.32
-32.86
-38.10
-44.37
-51.67
-59.39
-66.28
-70.58
-70.59
-65.24
-54.54
-39.73
-22.88
-6.24
8.35
19.88
28.20
33.70
37.00
38.59
38.83
37.94
36.25
34.18
32.18
30.62
29.61
29.01
28.52
27.84
26.85
25.63
24.38
23.33
22.54
21.92
21.18
19.95
17.85
14.59
10.10
4.57
-1.58
-7.84
-13.72
-18.92
-23.44
-27.54
-31.72
-36.59
-42.61
-49.97
-58.22
-66.22
-72.31
-74.69
-71.99
-63.80
-50.79
-34.57
-17.21
-0.68
13.59
24.82
32.90
38.15
41.12
42.35
42.32
41.39
39.88
38.07
36.23
34.59
33.29
32.31
31.50
30.72
29.83
28.87
27.93
27.09
26.33
25.46
24.17
22.14
19.17
15.22
10.46
5.11
-0.53
-6.28
-11.98
-17.57
-22.94
-28.03
-32.80
-37.36
-42.00
-47.18
-53.30
-60.39
-67.78
-74.08
-77.43
-76.06
-69.01
-56.58
-40.31
-22.46
-5.32
9.43
21.03
29.50
35.33
39.09
41.29
42.31
42.51
42.24
41.80
41.36
40.93
40.42
39.77
39.01
38.30
37.89
37.94
38.45
39.19
39.76
39.76
38.89
37.11
34.60
31.67
28.60
25.49
22.23
18.46
13.73
7.51
-0.57
-10.70
-22.74
-36.22
-50.37
-64.28
-77.12
-88.29
-97.49
-104.48
-108.85
-109.83
-106.46
-97.95
-84.19
-66.07
-45.40
-24.47
-5.35
10.55
22.74
31.47
37.39
41.19
43.38
44.34
44.34
43.67
42.66
41.58
40.62
39.85
39.23
38.71
38.32
38.09
38.04
38.07
37.90
37.19
35.65
33.16
29.88
26.13
22.23
18.42
14.71
10.96
6.93
2.44
-2.57
-7.97
-13.54
-18.96
-24.01
-28.59
-32.83
-37.11
-41.94
-47.85
-55.07
-63.20
-71.01
-76.70
-78.28
-74.38
-64.73
-50.38
-33.37
-16.01
-0.26
12.79
22.86
30.24
35.44
38.88
40.84
41.54
41.22
40.18
38.76
37.32
36.08
35.16
34.55
34.13
33.81
33.53
33.27
33.03
32.71
32.13
31.09
29.40
27.04
24.13
20.88
17.46
13.95
10.26
6.21
1.70
-3.30
-8.67
-14.24
-19.89
-25.63
-31.70
-38.43
-46.11
-54.61
-63.16
-70.26
-74.05
-72.88
-66.03
-54.07
-38.75
-22.42
-7.21
5.56
15.56
23.14
28.82
32.94
35.53
36.46
35.71
33.60
30.73
27.84
25.62
24.46
24.38
25.05
25.95
26.55
26.56
25.98
25.03
23.97
22.87
21.54
19.60
16.69
12.71
7.91
2.80
-2.09
-6.42
-10.20
-13.72
-17.41
-21.64
-26.62
-32.45
-39.19
-46.86
-55.26
-63.80
-71.24
-75.86
-75.95
-70.42
-59.38
-44.18
-27.08
-10.36
4.29
16.13
25.21
31.94
36.63
39.45
40.51
40.06
38.59
36.68
34.83
33.26
31.98
30.93
30.11
29.67
29.79
30.50
31.59
32.60
32.98
32.32
30.51
27.68
24.20
20.34
16.23
11.81
6.91
1.40
-4.63
-10.94
-17.13
-22.82
-27.82
-32.16
-36.16
-40.40
-45.56
-52.11
-60.02
-68.46
-75.79
-79.93
-79.03
-72.15
-59.69
-43.30
-25.33
-8.05
6.94
18.96
28.04
34.58
39.03
41.73
43.01
43.24
42.86
42.25
41.65
41.10
40.44
39.50
38.23
36.79
35.47
34.59
34.27
34.36
34.46
34.04
32.66
30.17
26.69
22.60
18.34
14.21
10.25
6.28
1.98
-2.87
-8.29
-14.04
-19.72
-24.92
-29.42
-33.31
-37.01
-41.15
-46.40
-53.16
-61.23
-69.64
-76.70
-80.35
-78.83
-71.30
-58.22
-41.32
-23.00
-5.65
9.03
20.33
28.36
33.74
37.17
39.23
40.30
40.69
40.62
40.33
39.94
39.50
38.94
38.17
37.18
36.07
35.08
34.55
34.68
35.44
36.47
37.15
36.80
34.97
31.60
27.07
22.09
17.38
13.40
10.17
7.28
4.13
0.27
-4.42
-9.68
-15.00
-19.89
-24.12
-27.81
-31.37
-35.34
-40.24
-46.44
-53.93
-62.21
-70.13
-76.01
-78.00
-74.69
-65.68
-51.82
-35.05
-17.78
-2.08
10.77
20.46
27.38
32.16
35.35
37.28
38.12
38.03
37.23
36.00
34.63
33.27
31.99
30.80
29.69
28.79
28.25
28.16
28.41
28.73
28.65
27.78
25.96
23.27
20.01
16.54
13.12
9.79
6.46
2.93
-0.93
-5.21
-9.85
-14.63
-19.27
-23.49
-27.17
-30.46
-33.83
-37.92
-43.30
-50.11
-57.77
-64.90
-69.65
-70.20
-65.44
-55.41
-41.30
-25.08
-8.88
5.68
17.78
27.34
34.71
40.31
44.41
47.11
48.47
48.64
47.87
46.49
44.80
42.97
41.09
39.23
37.46
35.95
34.84
34.22
33.93
33.67
32.95
31.31
28.47
24.42
19.44
13.96
8.43
3.18
-1.69
-6.33
-10.98
-15.85
-20.97
-26.17
-31.18
-35.81
-40.09
-44.30
-48.89
-54.31
-60.75
-67.96
-75.12
-80.88
-83.63
-81.91
-74.93
-62.97
-47.39
-30.33
-14.00
-0.05
10.75
18.56
24.00
27.81
30.44
32.11
32.92
32.97
32.49
31.78
31.05
30.41
29.87
29.40
29.02
28.78
28.70
28.72
28.68
28.38
27.64
26.34
24.47
22.02
19.01
15.45
11.38
6.90
2.19
-2.54
-7.14
-11.55
-15.81
-20.04
-24.35
-28.85
-33.73
-39.21
-45.53
-52.69
-60.23
-67.02
-71.44
-71.82
-67.03
-56.99
-42.79
-26.41
-10.04
4.53
16.28
25.04
31.18
35.26
37.81
39.16
39.53
39.11
38.05
36.57
34.85
33.07
31.37
29.87
28.66
27.82
27.37
27.20
27.13
26.87
26.14
24.81
22.86
20.37
17.45
14.11
10.33
6.09
1.45
-3.38
-8.18
-12.76
-17.10
-21.26
-25.41
-29.79
-34.65
-40.27
-46.84
-54.20
-61.56
-67.51
-70.21
-68.09
-60.48
-48.03
-32.57
-16.42
-1.62
10.63
20.07
27.10
32.22
35.74
37.70
38.10
37.09
35.12
32.77
30.62
29.02
28.02
27.43
26.95
26.35
25.52
24.54
23.57
22.73
21.98
21.11
19.76
17.54
14.25
9.92
4.84
-0.55
-5.80
-10.67
-15.13
-19.34
-23.53
-27.97
-32.86
-38.38
-44.72
-51.82
-59.31
-66.24
-71.17
-72.52
-69.09
-60.59
-47.83
-32.52
-16.65
-1.96
10.53
20.52
28.13
33.65
37.29
39.19
39.52
38.65
37.07
35.32
33.77
32.56
31.59
30.62
29.45
27.93
26.15
24.26
22.51
21.06
19.95
18.95
17.65
15.55
12.26
7.68
2.08
-3.90
-9.62
-14.59
-18.74
-22.41
-26.15
-30.57
-36.11
-42.94
-50.80
-58.91
-65.95
-70.27
-70.31
-65.14
-54.94
-41.00
-25.43
-10.40
2.47
12.50
19.84
25.12
29.00
31.89
33.90
34.96
35.03
34.19
32.67
30.82
28.98
27.40
26.19
25.34
24.70
24.14
23.54
22.82
21.95
20.83
19.30
17.12
14.04
9.95
4.98
-0.51
-5.97
-10.91
-15.09
-18.58
-21.79
-25.24
-29.45
-34.79
-41.42
-49.10
-57.09
-64.15
-68.67
-69.13
-64.61
-55.21
-42.17
-27.40
-12.94
-0.28
9.91
17.74
23.63
28.05
31.21
33.14
33.80
33.36
32.22
30.88
29.76
29.00
28.45
27.78
26.68
25.10
23.25
21.55
20.34
19.74
19.54
19.27
18.42
16.60
13.65
9.67
4.98
-0.02
-4.86
-9.23
-12.98
-16.22
-19.30
-22.75
-27.11
-32.81
-39.91
-47.86
-55.53
-61.25
-63.34
-60.57
-52.70
-40.59
-25.97
-10.91
2.85
14.29
23.17
29.70
34.24
37.05
38.24
38.01
36.64
34.65
32.53
30.64
29.08
27.72
26.27
24.58
22.64
20.67
19.03
17.98
17.59
17.61
17.52
16.66
14.49
10.83
5.88
0.28
-5.26
-10.14
-14.13
-17.39
-20.40
-23.80
-28.17
-33.90
-40.96
-48.79
-56.21
-61.63
-63.42
-60.42
-52.42
-40.26
-25.64
-10.51
3.42
15.08
24.12
30.70
35.19
38.00
39.38
39.50
38.59
36.97
35.09
33.40
32.20
31.51
31.06
30.47
29.45
28.02
26.44
25.00
23.84
22.78
21.35
19.06
15.57
10.91
5.40
-0.47
-6.21
-11.50
-16.27
-20.68
-25.04
-29.70
-34.99
-41.15
-48.20
-55.73
-62.86
-68.19
-70.21
-67.68
-60.25
-48.64
-34.47
-19.78
-6.31
4.95
13.80
20.66
26.05
30.34
33.54
35.50
36.08
35.35
33.65
31.51
29.47
27.93
26.96
26.40
25.98
25.46
24.78
23.96
23.08
22.12
20.94
19.30
16.92
13.67
9.54
4.70
-0.52
-5.75
-10.69
-15.18
-19.25
-23.18
-27.40
-32.43
-38.74
-46.49
-55.37
-64.40
-72.01
-76.36
-75.86
-69.74
-58.35
-43.15
-26.18
-9.48
5.45
17.86
27.67
35.18
40.79
44.87
47.66
49.43
50.38
50.72
50.61
50.11
49.30
48.25
47.12
46.08
45.25
44.62
43.97
43.01
41.43
39.06
35.90
32.09
27.74
22.90
17.53
11.59
5.15
-1.56
-8.23
-14.57
-20.42
-25.75
-30.60
-35.07
-39.27
-43.40
-47.81
-52.84
-58.60
-64.67
-69.92
-72.70
-71.43
-65.16
-54.07
-39.50
-23.53
-8.24
4.82
15.06
22.66
28.20
32.22
34.93
36.29
36.23
34.90
32.75
30.39
28.39
26.99
26.12
25.49
24.80
23.95
23.01
22.18
21.62
21.30
20.93
20.12
18.42
15.56
11.51
6.59
1.31
-3.75
-8.17
-11.88
-15.17
-18.52
-22.50
-27.50
-33.67
-40.82
-48.33
-55.13
-59.81
-60.92
-57.50
-49.43
-37.62
-23.71
-9.60
3.22
13.90
22.26
28.48
32.76
35.23
35.97
35.19
33.31
30.91
28.55
26.60
25.14
24.00
22.89
21.58
20.03
18.41
16.98
15.89
15.03
13.99
12.23
9.31
5.21
0.33
-4.68
-9.16
-12.84
-15.88
-18.83
-22.41
-27.22
-33.52
-40.98
-48.70
-55.19
-58.79
-58.11
-52.58
-42.67
-29.81
-15.93
-2.78
8.52
17.63
24.75
30.23
34.25
36.76
37.67
37.09
35.47
33.46
31.60
30.16
29.00
27.73
26.00
23.72
21.16
18.77
16.93
15.74
14.92
13.91
12.13
9.23
5.26
0.61
-4.16
-8.54
-12.29
-15.48
-18.51
-21.92
-26.28
-31.94
-38.92
-46.71
-54.19
-59.85
-62.06
-59.69
-52.48
-41.21
-27.50
-13.30
-0.28
10.57
19.01
25.30
29.86
32.98
34.73
35.14
34.40
32.88
31.14
29.66
28.64
27.97
27.31
26.28
24.76
22.86
20.98
19.52
18.67
18.33
18.08
17.32
15.56
12.55
8.41
3.56
-1.43
-6.11
-10.27
-13.98
-17.50
-21.22
-25.47
-30.56
-36.65
-43.64
-51.02
-57.79
-62.54
-63.83
-60.61
-52.71
-40.93
-26.84
-12.28
1.15
12.48
21.34
27.83
32.24
34.90
36.07
36.00
35.01
33.46
31.73
30.10
28.73
27.65
26.77
26.06
25.51
25.23
25.31
25.72
26.25
26.49
25.96
24.35
21.61
18.01
14.02
10.09
6.45
3.04
-0.38
-4.11
-8.28
-12.77
-17.32
-21.61
-25.47
-28.97
-32.43
-36.28
-40.96
-46.68
-53.27
-60.04
-65.77
-68.94
-68.18
-62.72
-52.70
-39.24
-24.09
-9.09
4.27
15.15
23.34
29.05
32.66
34.63
35.33
35.18
34.56
33.80
33.12
32.62
32.18
31.69
30.97
30.01
28.90
27.89
27.25
27.16
27.61
28.34
28.92
28.86
27.80
25.68
22.71
19.33
16.05
13.17
10.73
8.49
6.06
3.12
-0.47
-4.60
-9.05
-13.59
-18.12
-22.66
-27.31
-32.17
-37.32
-42.88
-49.04
-55.97
-63.63
-71.53
-78.61
-83.43
-84.61
-81.34
-73.72
-62.75
-50.04
-37.20
-25.45
-15.34
-6.88
0.30
6.63
12.45
17.94
23.14
28.09
32.69
36.72
39.71
40.96
39.81
35.85
29.21
20.51
10.74
0.78
-8.80
-17.89
-26.59
-34.96
-42.72
-49.29
-53.94
-56.00
-55.04
-50.96
-43.94
-34.36
-22.76
-9.92
3.10
15.01
24.49
30.59
32.91
31.62
27.37
20.97
13.16
4.52
-4.26
-12.20
-18.03
-20.67
-19.95
-16.65
-12.16
-8.11
-5.92
-6.46
-9.94
-15.80
-22.88
-29.91
-35.14
-36.79
-33.80
-26.67
-17.57
-9.60
-5.45
-6.52
-12.98
-23.20
-34.31
-42.94
-46.35
-42.91
-32.41
-15.76
7.26
33.44
57.52
75.19
85.66
90.89
94.61
98.05
100.83
101.92
100.26
95.90
88.57
79.17
68.56
57.26
45.53
34.15
24.38
17.30
13.98
14.93
19.94
27.65
36.03
42.99
47.33
48.77
47.56
44.42
40.18
35.65
31.08
26.33
20.96
14.65
7.17
-1.71
-12.08
-23.64
-35.46
-46.13
-53.99
-57.60
-56.10
-49.50
-38.65
-24.75
-9.03
7.44
23.50
37.75
48.54
54.38
54.46
48.91
38.75
25.49
10.51
-5.22
-21.11
-36.63
-50.94
-62.89
-71.26
-75.18
-74.58
-70.25
-63.57
-56.05
-48.90
-42.76
-37.71
-33.55
-30.04
-27.09
-24.82
-23.36
-22.81
-23.04
-23.74
-24.57
-25.25
-25.66
-25.80
-25.73
-25.43
-24.88
-24.10
-23.22
-22.54
-22.39
-23.00
-24.35
-26.15
-28.02
-29.63
-30.89
-32.02
-33.52
-35.87
-39.38
-43.87
-48.60
-52.25
-53.40
-50.91
-44.38
-34.37
-22.16
-9.33
2.77
13.33
22.08
29.14
34.68
38.76
41.30
42.24
41.59
39.63
36.77
33.52
30.34
27.55
25.27
23.43
21.83
20.30
18.74
17.15
15.55
13.88
11.98
9.66
6.72
3.14
-1.05
-5.73
-10.91
-16.59
-22.61
-28.55
-33.56
-36.56
-36.59
-33.13
-26.41
-17.29
-6.97
3.39
12.95
21.26
28.15
33.54
37.36
39.53
40.05
39.07
36.88
33.90
30.60
27.37
24.48
22.04
20.01
18.27
16.62
14.88
12.90
10.58
7.91
4.92
1.66
-1.79
-5.41
-9.23
-13.41
-18.15
-23.58
-29.56
-35.52
-40.49
-43.29
-42.90
-38.82
-31.26
-21.08
-9.50
2.14
12.76
21.64
28.44
33.16
36.01
37.25
37.18
36.01
33.87
30.95
27.55
24.15
21.29
19.33
18.34
18.00
17.76
17.14
15.87
14.03
11.86
9.59
7.22
4.58
1.38
-2.63
-7.49
-13.14
-19.41
-26.04
-32.56
-38.33
-42.38
-43.70
-41.49
-35.53
-26.29
-14.86
-2.61
9.16
19.51
27.97
34.34
38.65
41.00
41.56
40.68
38.76
36.32
33.77
31.38
29.20
27.18
25.25
23.37
21.64
20.10
18.79
17.59
16.30
14.63
12.39
9.49
6.00
2.15
-1.81
-5.69
-9.43
-13.20
-17.29
-22.03
-27.63
-34.00
-40.59
-46.46
-50.37
-51.10
-47.86
-40.56
-29.92
-17.28
-4.21
7.94
18.32
26.63
32.97
37.58
40.64
42.24
42.42
41.33
39.31
36.83
34.40
32.43
31.12
30.44
30.16
29.99
29.68
29.08
28.15
26.91
25.37
23.53
21.36
18.85
15.98
12.75
9.16
5.26
1.11
-3.16
-7.41
-11.49
-15.36
-19.04
-22.65
-26.29
-30.12
-34.21
-38.65
-43.34
-47.95
-51.73
-53.61
-52.48
-47.65
-39.15
-27.87
-15.25
-2.76
8.48
17.95
25.58
31.45
35.61
38.01
38.68
37.87
36.11
34.08
32.38
31.31
30.83
30.69
30.57
30.30
29.89
29.49
29.24
29.11
28.91
28.31
27.01
24.84
21.87
18.36
14.66
11.10
7.85
4.95
2.24
-0.55
-3.70
-7.32
-11.36
-15.54
-19.49
-22.94
-25.79
-28.19
-30.45
-32.95
-35.99
-39.73
-44.07
-48.61
-52.58
-54.95
-54.70
-51.13
-44.22
-34.63
-23.55
-12.27
-1.87
7.03
14.19
19.61
23.39
25.67
26.66
26.65
25.98
24.96
23.78
22.49
21.11
19.70
18.43
17.51
17.14
17.32
17.89
18.51
18.81
18.53
17.58
16.06
14.16
12.08
9.92
7.71
5.42
3.06
0.62
-1.85
-4.35
-6.90
-9.53
-12.23
-14.96
-17.69
-20.50
-23.57
-27.08
-31.02
-34.99
-38.19
-39.63
-38.47
-34.42
-27.85
-19.61
-10.77
-2.22
5.53
12.27
17.92
22.36
25.41
26.88
26.77
25.37
23.19
20.79
18.67
17.06
16.00
15.40
15.11
15.05
15.14
15.38
15.77
16.38
17.27
18.43
19.65
20.51
20.41
18.79
15.41
10.46
4.54
-1.58
-7.28
-12.27
-16.63
-20.62
-24.55
-28.60
-32.85
-37.28
-41.71
-45.82
-49.06
-50.73
-50.19
-47.12
-41.62
-34.28
-25.99
-17.61
-9.86
-3.15
2.30
6.45
9.31
10.99
11.65
11.51
10.86
9.92
8.86
7.76
6.66
5.58
4.57
3.73
3.13
2.83
2.77
2.80
2.69
2.21
1.19
-0.44
-2.63
-5.20
-7.90
-10.47
-12.78
-14.77
-16.56
-18.34
-20.34
-22.73
-25.57
-28.81
-32.17
-35.24
-37.43
-38.13
-36.82
-33.31
-27.78
-20.82
-13.21
-5.77
0.88
6.42
10.80
14.16
16.68
18.46
19.52
19.85
19.47
18.52
17.25
15.98
14.97
14.34
14.04
13.90
13.73
13.46
13.13
12.90
12.87
13.06
13.25
13.08
12.20
10.39
7.72
4.50
1.17
-1.91
-4.58
-6.94
-9.22
-11.69
-14.52
-17.74
-21.15
-24.38
-26.90
-28.14
-27.62
-25.12
-20.81
-15.16
-8.83
-2.47
3.45
8.64
12.93
16.18
18.27
19.16
18.95
17.93
16.53
15.16
14.12
13.49
13.14
12.85
12.39
11.61
10.53
9.31
8.15
7.20
6.47
5.79
4.88
3.50
1.52
-0.95
-3.63
-6.18
-8.30
-9.91
-11.05
-11.96
-12.93
-14.31
-16.29
-19.02
-22.56
-26.80
-31.51
-36.17
-40.03
-42.23
-42.04
-38.88
-32.58
-23.48
-12.56
-1.33
8.39
14.94
17.20
15.01
9.46
2.53
-3.64
-7.53
-8.77
-8.04
-6.50
-5.13
-4.32
-3.45
-1.36
3.06
10.32
20.26
32.28
45.68
59.83
72.12
79.73
80.59
74.95
65.45
55.52
47.43
41.47
36.41
30.57
23.17
14.76
6.95
1.51
-0.17
2.33
8.41
16.65
25.19
32.45
37.44
40.54
41.76
41.22
39.12
35.46
30.32
23.82
16.41
8.86
2.08
-3.26
-6.73
-8.22
-7.97
-6.25
-3.32
0.72
5.71
11.29
16.64
20.70
23.12
23.39
21.51
18.10
14.21
10.91
8.87
8.04
7.81
7.19
5.18
1.29
-4.17
-10.20
-15.34
-18.20
-17.91
-14.40
-8.41
-1.32
5.48
10.94
14.62
16.59
17.17
16.68
15.28
13.06
10.05
6.46
2.59
-1.23
-4.79
-8.04
-11.04
-13.85
-16.39
-18.55
-20.21
-21.38
-22.31
-23.43
-25.17
-27.81
-31.34
-35.45
-39.71
-43.72
-47.27
-50.46
-53.49
-56.49
-59.28
-61.25
-61.53
-59.31
-54.14
-46.23
-36.45
-26.10
-16.55
-8.84
-3.47
-0.35
1.04
1.32
1.03
0.39
-0.62
-2.12
-4.17
-6.65
-9.31
-11.84
-14.11
-16.14
-18.10
-20.18
-22.50
-25.05
-27.74
-30.41
-32.94
-35.18
-37.01
-38.26
-38.80
-38.59
-37.79
-36.74
-35.85
-35.39
-35.20
-34.68
-32.92
-29.21
-23.43
-16.24
-8.88
-2.59
1.87
4.56
6.17
7.59
9.48
11.99
14.89
17.81
20.44
22.63
24.31
25.35
25.56
24.81
23.09
20.63
17.78
14.92
12.22
9.65
6.95
3.72
-0.42
-5.73
-12.24
-19.71
-27.64
-35.47
-42.70
-49.12
-54.86
-60.38
-66.21
-72.76
-79.98
-87.28
-93.58
-97.61
-98.35
-95.32
-88.79
-79.64
-68.91
-57.45
-45.59
-33.18
-19.97
-5.94
8.42
22.20
34.35
44.08
51.04
55.39
57.66
58.50
58.54
58.26
58.00
57.89
57.90
57.82
57.32
56.00
53.52
49.69
44.52
38.25
31.33
24.31
17.78
12.20
7.79
4.49
1.95
-0.43
-3.22
-6.77
-10.99
-15.25
-18.43
-19.21
-16.54
-10.11
-0.53
10.71
21.75
30.92
37.25
40.71
41.99
42.08
41.76
41.38
40.84
39.81
38.01
35.44
32.36
29.18
26.22
23.59
21.20
18.83
16.35
13.73
11.16
8.85
6.98
5.64
4.76
4.24
4.03
4.16
4.78
6.09
8.24
11.21
14.74
18.36
21.47
23.61
24.59
24.59
24.03
23.29
22.44
21.15
18.84
14.97
9.33
2.14
-6.02
-14.40
-22.22
-28.76
-33.26
-35.02
-33.53
-28.71
-21.12
-11.93
-2.63
5.43
11.41
15.19
17.24
18.29
19.03
19.84
20.75
21.59
22.16
22.36
22.25
21.98
21.65
21.30
20.91
20.47
20.08
19.93
20.20
20.89
21.78
22.38
22.16
20.75
18.14
14.75
11.32
8.69
7.43
7.81
9.57
12.21
15.01
17.41
19.07
19.93
20.18
20.10
19.85
19.36
18.37
16.50
13.50
9.35
4.28
-1.32
-7.04
-12.49
-17.27
-20.91
-22.87
-22.71
-20.27
-15.89
-10.37
-4.70
0.23
3.93
6.40
7.91
8.84
9.42
9.75
9.82
9.63
9.23
8.74
8.26
7.78
7.21
6.38
5.13
3.44
1.41
-0.66
-2.36
-3.33
-3.42
-2.71
-1.61
-0.66
-0.33
-0.85
-2.16
-3.98
-5.93
-7.71
-9.18
-10.35
-11.30
-12.15
-13.04
-14.01
-15.13
-16.35
-17.64
-18.98
-20.40
-22.02
-23.97
-26.27
-28.71
-30.80
-31.90
-31.41
-29.04
-24.91
-19.54
-13.70
-8.17
-3.47
0.13
2.69
4.41
5.54
6.29
6.80
7.18
7.59
8.18
9.12
10.45
12.07
13.73
15.12
15.95
16.07
15.44
14.11
12.13
9.51
6.16
1.99
-2.98
-8.61
-14.41
-19.67
-23.60
-25.52
-25.13
-22.59
-18.50
-13.70
-9.00
-4.97
-1.84
0.46
2.16
3.44
4.32
4.59
3.94
2.21
-0.52
-3.73
-6.61
-8.33
-8.32
-6.47
-3.19
0.82
4.84
8.41
11.35
13.76
15.82
17.65
19.27
20.63
21.64
22.32
22.74
23.04
23.24
23.30
23.02
22.16
20.55
18.16
15.14
11.77
8.38
5.22
2.41
-0.07
-2.35
-4.57
-6.81
-9.02
-11.03
-12.66
-13.74
-14.27
-14.42
-14.46
-14.73
-15.43
-16.62
-18.14
-19.70
-20.94
-21.61
-21.66
-21.27
-20.83
-20.77
-21.43
-22.92
-25.08
-27.51
-29.67
-31.04
-31.20
-29.95
-27.36
-23.71
-19.41
-14.97
-10.78
-7.09
-4.00
-1.48
0.50
1.96
2.88
3.27
3.24
2.97
2.73
2.70
2.93
3.30
3.63
3.74
3.58
3.24
2.87
2.61
2.44
2.28
1.97
1.42
0.59
-0.48
-1.73
-3.10
-4.50
-5.81
-6.86
-7.55
-7.88
-8.03
-8.35
-9.17
-10.69
-12.81
-15.22
-17.52
-19.44
-21.01
-22.48
-24.22
-26.47
-29.27
-32.43
-35.56
-38.10
-39.54
-39.38
-37.28
-33.24
-27.58
-21.00
-14.33
-8.33
-3.37
0.63
4.14
7.73
11.79
16.38
21.23
25.99
30.43
34.64
38.87
43.39
48.19
52.89
56.83
59.30
59.77
58.07
54.38
49.11
42.73
35.59
27.93
19.85
11.45
2.94
-5.43
-13.32
-20.45
-26.66
-32.03
-36.77
-41.25
-45.88
-50.92
-56.35
-61.66
-65.82
-67.48
-65.31
-58.49
-47.05
-31.99
-14.94
2.27
18.13
31.70
42.65
51.00
56.92
60.61
62.32
62.50
61.72
60.60
59.51
58.45
56.99
54.52
50.56
45.00
38.22
30.87
23.69
17.27
11.87
7.48
3.82
0.50
-2.86
-6.49
-10.35
-14.11
-17.29
-19.51
-20.65
-20.93
-20.79
-20.70
-20.91
-21.46
-22.17
-22.87
-23.55
-24.29
-25.25
-26.49
-27.92
-29.31
-30.41
-31.06
-31.25
-31.13
-30.91
-30.75
-30.75
-30.99
-31.58
-32.63
-34.20
-36.09
-37.85
-38.78
-38.21
-35.83
-31.76
-26.61
-21.18
-16.17
-11.89
-8.31
-5.19
-2.31
0.33
2.58
4.23
5.16
5.50
5.49
5.40
5.39
5.46
5.50
5.47
5.43
5.57
6.09
7.12
8.50
9.92
10.95
11.26
10.72
9.39
7.57
5.55
3.57
1.74
0.02
-1.72
-3.61
-5.68
-7.89
-10.09
-12.25
-14.45
-16.93
-19.92
-23.49
-27.33
-30.80
-33.10
-33.53
-31.80
-28.12
-23.16
-17.69
-12.43
-7.77
-3.82
-0.48
2.39
4.90
7.02
8.66
9.77
10.33
10.47
10.42
10.43
10.72
11.28
12.00
12.66
13.07
13.15
13.00
12.75
12.49
12.22
11.77
10.90
9.40
7.26
4.62
1.83
-0.74
-2.80
-4.25
-5.29
-6.26
-7.59
-9.66
-12.64
-16.46
-20.82
-25.19
-28.85
-31.05
-31.17
-28.94
-24.51
-18.53
-11.89
-5.47
0.09
4.59
8.12
10.94
13.22
14.99
16.17
16.67
16.58
16.15
15.71
15.52
15.65
15.96
16.24
16.33
16.25
16.11
16.09
16.23
16.41
16.36
15.78
14.48
12.44
9.81
6.88
3.91
1.08
-1.52
-3.92
-6.22
-8.56
-11.10
-14.04
-17.50
-21.56
-26.01
-30.37
-33.90
-35.74
-35.22
-32.05
-26.52
-19.31
-11.40
-3.71
3.03
8.46
12.54
15.49
17.65
19.37
20.86
22.18
23.22
23.86
23.99
23.68
23.08
22.39
21.80
21.42
21.30
21.45
21.78
22.11
22.17
21.67
20.43
18.46
15.98
13.33
10.79
8.53
6.49
4.49
2.31
-0.15
-2.84
-5.62
-8.31
-10.82
-13.22
-15.64
-18.31
-21.41
-25.08
-29.32
-33.97
-38.62
-42.55
-44.87
-44.68
-41.43
-35.18
-26.62
-16.93
-7.38
1.02
7.72
12.62
15.94
17.97
19.00
19.28
19.08
18.63
18.15
17.71
17.29
16.82
16.30
15.84
15.66
15.91
16.61
17.56
18.41
18.79
18.52
17.57
16.08
14.22
12.15
9.96
7.66
5.26
2.72
0.00
-2.91
-5.94
-8.97
-11.84
-14.39
-16.54
-18.29
-19.68
-20.85
-21.93
-23.07
-24.40
-25.85
-27.09
-27.50
-26.30
-22.83
-16.90
-8.88
0.30
9.48
17.60
23.97
28.38
30.99
32.19
32.35
31.87
31.04
30.17
29.48
29.07
28.89
28.70
28.22
27.22
25.71
23.91
22.20
20.88
20.11
19.78
19.59
19.17
18.26
16.76
14.76
12.43
9.96
7.44
4.88
2.22
-0.56
-3.44
-6.33
-9.15
-11.82
-14.36
-16.85
-19.39
-22.11
-25.12
-28.58
-32.60
-37.20
-42.12
-46.76
-50.18
-51.37
-49.50
-44.25
-36.05
-25.86
-15.03
-4.81
3.94
10.86
16.08
19.91
22.69
24.60
25.75
26.23
26.22
25.97
25.73
25.64
25.70
25.83
25.89
25.90
25.90
26.04
26.40
26.92
27.43
27.61
27.19
25.96
23.94
21.34
18.48
15.65
12.95
10.34
7.58
4.46
0.87
-3.14
-7.38
-11.65
-15.79
-19.76
-23.60
-27.40
-31.30
-35.45
-40.01
-45.12
-50.71
-56.40
-61.44
-64.80
-65.47
-62.85
-57.00
-48.69
-39.05
-29.13
-19.58
-10.52
-1.76
6.87
15.24
23.00
29.69
35.03
39.07
42.07
44.40
46.33
47.96
49.26
50.12
50.47
50.29
49.64
48.62
47.30
45.71
43.79
41.34
38.19
34.22
29.50
24.26
18.81
13.41
8.18
3.05
-2.11
-7.45
-13.00
-18.62
-23.99
-28.76
-32.70
-35.77
-38.22
-40.54
-43.21
-46.64
-50.94
-55.84
-60.70
-64.61
-66.54
-65.57
-61.19
-53.45
-43.05
-31.16
-19.10
-7.95
1.70
9.77
16.51
22.23
27.17
31.43
35.02
37.91
40.07
41.49
42.12
41.97
41.16
39.94
38.71
37.88
37.77
38.46
39.82
41.50
43.06
44.13
44.45
44.00
42.98
41.74
40.67
40.04
39.87
39.92
39.77
39.00
37.30
34.61
31.07
26.85
22.10
16.91
11.30
5.25
-1.29
-8.37
-15.94
-23.75
-31.17
-37.30
-41.09
-41.77
-39.19
-33.90
-26.98
-19.62
-12.75
-6.84
-2.05
1.62
4.12
5.38
5.40
4.44
2.94
1.42
0.17
-0.81
-1.81
-3.27
-5.42
-8.19
-11.24
-14.09
-16.37
-17.92
-18.85
-19.36
-19.60
-19.59
-19.23
-18.34
-16.84
-14.74
-12.19
-9.47
-6.92
-4.84
-3.41
-2.67
-2.46
-2.50
-2.51
-2.39
-2.25
-2.42
-3.32
-5.32
-8.48
-12.43
-16.37
-19.21
-19.86
-17.62
-12.42
-4.93
3.68
12.12
19.36
24.87
28.54
30.56
31.20
30.66
29.15
26.92
24.36
21.86
19.72
18.02
16.60
15.21
13.64
11.92
10.28
9.03
8.41
8.41
8.75
8.95
8.58
7.41
5.47
3.05
0.53
-1.83
-3.97
-6.06
-8.38
-11.18
-14.50
-18.19
-21.95
-25.51
-28.76
-31.79
-34.88
-38.36
-42.49
-47.28
-52.40
-57.13
-60.52
-61.61
-59.74
-54.83
-47.43
-38.59
-29.48
-21.09
-13.97
-8.29
-3.95
-0.72
1.63
3.37
4.79
6.17
7.69
9.37
11.06
12.56
13.71
14.55
15.29
16.15
17.24
18.53
19.84
20.96
21.76
22.21
22.32
22.10
21.50
20.46
18.94
16.97
14.63
12.09
9.55
7.16
5.09
3.43
2.13
1.05
-0.02
-1.34
-3.12
-5.46
-8.31
-11.39
-14.17
-15.90
-15.74
-13.06
-7.68
-0.02
8.98
18.08
26.10
32.26
36.24
38.13
38.23
36.87
34.30
30.69
26.24
21.19
15.91
10.80
6.19
2.27
-1.01
-3.88
-6.66
-9.60
-12.77
-16.01
-19.08
-21.83
-24.30
-26.78
-29.66
-33.17
-37.24
-41.43
-45.11
-47.68
-48.83
-48.64
-47.45
-45.71
-43.82
-42.06
-40.54
-39.22
-37.82
-35.80
-32.49
-27.30
-19.96
-10.74
-0.41
10.04
19.71
28.05
34.97
40.60
45.15
48.71
51.26
52.72
53.12
52.67
51.65
50.40
49.14
47.88
46.36
44.24
41.21
37.16
32.32
27.13
22.11
17.59
13.53
9.58
5.29
0.36
-5.20
-11.02
-16.62
-21.67
-26.11
-30.15
-34.03
-37.88
-41.57
-44.80
-47.23
-48.62
-48.84
-47.78
-45.23
-40.81
-34.14
-25.02
-13.72
-1.03
11.79
23.29
32.28
38.12
40.97
41.64
41.35
41.25
42.02
43.65
45.36
45.72
42.99
35.52
22.32
3.60
-18.84
-41.67
-60.64
-71.71
-72.35
-62.39
-44.07
-21.26
1.87
22.00
37.26
47.18
52.14
52.81
49.90
44.13
36.43
27.86
19.52
12.15
5.94
0.49
-4.93
-10.92
-17.61
-24.36
-29.97
-33.12
-32.85
-29.05
-22.55
-14.75
-7.20
-1.02
3.36
6.16
7.99
9.49
11.06
12.76
14.42
15.75
16.56
16.78
16.51
15.91
15.16
14.39
13.74
13.30
13.16
13.27
13.53
13.71
13.52
12.77
11.41
9.54
7.37
5.11
2.86
0.65
-1.55
-3.79
-6.09
-8.40
-10.70
-12.97
-15.22
-17.50
-19.85
-22.31
-24.93
-27.77
-30.90
-34.27
-37.64
-40.46
-41.94
-41.31
-38.08
-32.31
-24.58
-15.93
-7.39
0.20
6.46
11.36
15.09
17.89
19.92
21.24
21.91
22.02
21.81
21.52
21.36
21.40
21.57
21.68
21.61
21.32
20.92
20.58
20.40
20.34
20.23
19.83
18.91
17.36
15.22
12.64
9.84
6.96
4.04
0.97
-2.40
-6.20
-10.40
-14.74
-18.86
-22.42
-25.22
-27.36
-29.16
-31.02
-33.34
-36.40
-40.21
-44.45
-48.52
-51.54
-52.61
-51.11
-46.93
-40.56
-32.94
-25.14
-17.98
-11.90
-6.91
-2.82
0.57
3.36
5.56
7.14
8.22
8.98
9.65
10.44
11.42
12.55
13.72
14.85
15.94
17.06
18.28
19.59
20.81
21.68
21.94
21.46
20.32
18.78
17.18
15.81
14.80
14.10
13.57
12.91
11.93
10.47
8.55
6.30
3.92
1.54
-0.83
-3.36
-6.34
-9.97
-14.36
-19.32
-24.39
-28.91
-32.06
-33.16
-31.73
-27.72
-21.57
-14.12
-6.37
0.76
6.69
11.29
14.71
17.24
19.08
20.30
20.88
20.82
20.28
19.51
18.83
18.42
18.33
18.44
18.60
18.71
18.76
18.78
18.77
18.67
18.36
17.75
16.78
15.52
14.06
12.57
11.14
9.83
8.65
7.52
6.33
4.96
3.29
1.26
-1.07
-3.53
-5.87
-7.84
-9.32
-10.43
-11.55
-13.10
-15.49
-18.84
-22.85
-26.89
-30.07
-31.55
-30.74
-27.49
-22.10
-15.22
-7.67
-0.25
6.42
11.97
16.25
19.32
21.35
22.53
23.06
23.11
22.84
22.42
21.97
21.61
21.36
21.17
20.97
20.70
20.35
19.97
19.58
19.14
18.49
17.45
15.89
13.76
11.17
8.32
5.43
2.69
0.18
-2.08
-4.16
-6.20
-8.34
-10.67
-13.18
-15.76
-18.25
-20.51
-22.57
-24.58
-26.78
-29.36
-32.35
-35.60
-38.67
-41.01
-42.02
-41.27
-38.58
-34.10
-28.27
-21.67
-14.99
-8.79
-3.50
0.68
3.75
5.85
7.21
8.11
8.79
9.35
9.78
9.98
9.88
9.50
8.97
8.51
8.28
8.28
8.43
8.51
8.33
7.79
6.90
5.80
4.60
3.39
2.18
0.96
-0.35
-1.79
-3.36
-5.05
-6.81
-8.57
-10.28
-11.91
-13.43
-14.83
-16.19
-17.66
-19.44
-21.68
-24.32
-26.94
-28.82
-29.11
-27.20
-22.96
-16.93
-10.08
-3.46
2.11
6.34
9.38
11.62
13.37
14.76
15.72
16.09
15.83
15.05
14.04
13.09
12.39
12.00
11.82
11.73
11.62
11.50
11.37
11.20
10.93
10.40
9.52
8.24
6.64
4.86
3.09
1.43
-0.06
-1.47
-2.92
-4.56
-6.50
-8.72
-11.11
-13.42
-15.43
-17.06
-18.41
-19.82
-21.70
-24.27
-27.36
-30.32
-32.17
-31.99
-29.28
-24.19
-17.45
-10.08
-3.03
3.12
8.14
12.08
15.06
17.20
18.56
19.27
19.52
19.55
19.56
19.60
19.56
19.32
18.76
17.91
16.91
15.96
15.21
14.69
14.31
13.97
13.55
12.95
12.11
10.89
9.20
6.96
4.22
1.21
-1.80
-4.55
-6.93
-8.94
-10.71
-12.35
-13.94
-15.57
-17.34
-19.40
-21.89
-24.81
-27.90
-30.64
-32.39
-32.52
-30.70
-26.95
-21.64
-15.41
-8.92
-2.77
2.59
6.91
10.11
12.19
13.31
13.72
13.71
13.58
13.50
13.51
13.55
13.52
13.36
13.15
12.94
12.83
12.85
12.92
12.93
12.76
12.31
11.53
10.42
9.02
7.42
5.68
3.83
1.86
-0.25
-2.48
-4.75
-6.89
-8.74
-10.26
-11.51
-12.71
-14.13
-15.99
-18.43
-21.45
-24.87
-28.34
-31.29
-33.08
-33.05
-30.77
-26.23
-19.83
-12.36
-4.71
2.28
8.01
12.18
14.82
16.23
16.90
17.41
18.16
19.35
20.82
22.17
22.96
22.96
22.28
21.36
20.79
21.03
22.31
24.44
26.80
28.39
27.92
24.04
15.84
3.25
-12.62
-29.52
-44.58
-55.12
-59.50
-57.53
-50.38
-40.09
-28.86
-18.49
-10.20
-4.66
-2.14
-2.68
-5.99
-11.40
-17.83
-23.84
-28.01
-29.23
-27.13
-22.12
-15.23
-7.82
-1.05
4.35
8.28
11.09
13.31
15.35
17.32
19.06
20.31
20.94
21.01
20.77
20.48
20.37
20.43
20.57
20.63
20.52
20.23
19.81
19.38
18.96
18.53
17.97
17.10
15.73
13.73
11.15
8.19
5.09
2.05
-0.81
-3.52
-6.19
-8.84
-11.44
-13.92
-16.33
-18.83
-21.71
-25.14
-28.99
-32.70
-35.40
-36.16
-34.32
-29.80
-23.15
-15.29
-7.29
-0.02
6.04
10.75
14.27
16.88
18.84
20.28
21.27
21.76
21.76
21.39
20.82
20.24
19.78
19.39
18.98
18.42
17.74
17.04
16.47
16.11
15.85
15.47
14.69
13.35
11.40
8.94
6.12
3.08
-0.06
-3.19
-6.20
-9.02
-11.62
-14.06
-16.52
-19.17
-22.19
-25.66
-29.55
-33.65
-37.58
-40.79
-42.61
-42.40
-39.70
-34.45
-27.12
-18.61
-10.02
-2.33
3.86
8.41
11.58
13.77
15.31
16.38
16.98
17.14
16.89
16.37
15.78
15.27
14.98
14.93
15.09
15.31
15.44
15.29
14.75
13.85
12.72
11.51
10.34
9.17
7.83
6.14
3.97
1.35
-1.53
-4.45
-7.26
-9.92
-12.50
-15.12
-17.86
-20.82
-24.10
-27.85
-32.20
-37.10
-42.21
-46.77
-49.84
-50.45
-48.08
-42.76
-35.12
-26.17
-17.03
-8.54
-1.23
4.78
9.56
13.27
16.02
17.81
18.67
18.67
18.04
17.10
16.17
15.45
14.99
14.69
14.43
14.19
14.07
14.21
14.66
15.28
15.81
15.90
15.37
14.20
12.56
10.66
8.69
6.68
4.60
2.40
0.06
-2.36
-4.74
-7.02
-9.24
-11.59
-14.38
-17.95
-22.46
-27.72
-33.07
-37.45
-39.64
-38.72
-34.37
-27.03
-17.77
-7.97
1.18
8.99
15.31
20.35
24.45
27.72
30.07
31.30
31.31
30.29
28.71
27.16
26.08
25.61
25.53
25.43
24.97
24.05
22.83
21.64
20.74
20.15
19.69
18.99
17.70
15.63
12.80
9.38
5.61
1.71
-2.17
-5.92
-9.51
-12.95
-16.34
-19.85
-23.72
-28.12
-32.98
-37.86
-41.90
-44.08
-43.52
-39.81
-33.18
-24.45
-14.75
-5.12
3.62
11.05
17.01
21.47
24.51
26.26
26.94
26.86
26.39
25.82
25.36
25.07
24.94
24.86
24.70
24.35
23.75
22.91
21.91
20.86
19.80
18.71
17.40
15.71
13.47
10.66
7.37
3.77
0.02
-3.83
-7.74
-11.74
-15.83
-20.00
-24.30
-28.87
-33.90
-39.37
-44.96
-49.84
-52.88
-52.97
-49.48
-42.59
-33.26
-22.88
-12.79
-3.92
3.40
9.26
13.94
17.62
20.34
22.05
22.73
22.60
21.93
21.10
20.39
19.92
19.70
19.64
19.62
19.54
19.30
18.82
18.08
17.10
15.93
14.64
13.22
11.57
9.49
6.80
3.43
-0.52
-4.78
-8.99
-12.81
-16.15
-19.07
-21.88
-24.94
-28.60
-33.00
-38.10
-43.57
-48.81
-53.05
-55.39
-55.07
-51.58
-44.88
-35.43
-24.15
-12.21
-0.80
9.10
16.96
22.70
26.61
29.21
30.98
32.29
33.26
33.91
34.23
34.21
33.91
33.41
32.82
32.30
31.99
32.07
32.60
33.40
34.14
34.37
33.74
32.24
30.09
27.68
25.32
23.03
20.64
17.88
14.64
11.00
7.19
3.44
-0.15
-3.65
-7.19
-10.87
-14.74
-18.83
-23.24
-28.11
-33.53
-39.24
-44.56
-48.39
-49.48
-46.97
-40.64
-31.17
-19.86
-8.29
2.21
10.79
17.18
21.61
24.48
26.23
27.14
27.34
26.90
25.88
24.44
22.83
21.32
20.06
19.14
18.48
17.99
17.63
17.43
17.44
17.60
17.73
17.53
16.63
14.85
12.19
8.86
5.13
1.24
-2.67
-6.54
-10.31
-13.92
-17.32
-20.56
-23.87
-27.57
-31.96
-37.07
-42.46
-47.28
-50.35
-50.56
-47.24
-40.38
-30.69
-19.38
-7.79
2.99
12.25
19.74
25.46
29.54
32.04
33.05
32.73
31.41
29.49
27.41
25.52
24.01
22.94
22.25
21.80
21.41
20.92
20.17
19.04
17.56
15.80
13.90
11.89
9.69
7.15
4.10
0.50
-3.50
-7.60
-11.49
-14.98
-18.12
-21.12
-24.32
-28.02
-32.41
-37.49
-42.97
-48.32
-52.68
-55.05
-54.47
-50.42
-43.00
-33.04
-21.79
-10.60
-0.52
7.90
14.57
19.67
23.44
26.06
27.63
28.26
28.09
27.29
26.10
24.74
23.43
22.39
21.80
21.78
22.29
23.18
24.09
24.66
24.55
23.61
21.90
19.68
17.24
14.76
12.27
9.64
6.71
3.39
-0.24
-4.03
-7.83
-11.55
-15.25
-19.05
-23.11
-27.56
-32.52
-38.00
-43.73
-49.11
-53.08
-54.39
-51.97
-45.40
-35.16
-22.59
-9.45
2.65
12.63
20.15
25.46
29.06
31.45
32.98
33.85
34.13
33.93
33.31
32.42
31.40
30.40
29.53
28.85
28.39
28.10
27.93
27.80
27.64
27.29
26.55
25.22
23.18
20.48
17.36
14.17
11.19
8.52
5.96
3.19
-0.14
-4.12
-8.56
-13.08
-17.28
-20.96
-24.20
-27.34
-30.83
-35.05
-40.09
-45.63
-50.88
-54.67
-55.79
-53.35
-47.09
-37.57
-25.99
-13.80
-2.29
7.71
15.85
22.17
26.83
29.97
31.74
32.33
32.07
31.35
30.57
29.99
29.66
29.48
29.27
28.89
28.39
27.91
27.61
27.55
27.62
27.52
26.94
25.64
23.59
20.96
18.01
14.95
11.89
8.78
5.51
1.98
-1.79
-5.61
-9.28
-12.59
-15.52
-18.15
-20.73
-23.54
-26.85
-30.86
-35.66
-41.02
-46.32
-50.55
-52.48
-51.07
-45.91
-37.41
-26.79
-15.66
-5.47
2.91
9.31
14.05
17.61
20.30
22.20
23.23
23.36
22.74
21.72
20.69
19.95
19.57
19.44
19.37
19.18
18.84
18.36
17.83
17.29
16.72
16.06
15.19
13.99
12.33
10.10
7.25
3.80
-0.08
-4.15
-8.15
-11.90
-15.33
-18.49
-21.49
-24.47
-27.58
-30.99
-34.89
-39.35
-44.28
-49.13
-52.98
-54.63
-53.05
-47.75
-39.05
-28.07
-16.29
-5.12
4.51
12.26
18.27
22.84
26.21
28.47
29.70
30.05
29.78
29.16
28.34
27.32
25.98
24.29
22.44
20.78
19.67
19.24
19.25
19.21
18.65
17.33
15.34
13.02
10.65
8.30
5.80
2.89
-0.59
-4.58
-8.81
-12.97
-16.81
-20.29
-23.50
-26.64
-29.94
-33.65
-37.96
-42.92
-48.26
-53.28
-56.92
-57.95
-55.45
-49.13
-39.57
-28.07
-16.21
-5.34
3.74
10.83
16.21
20.25
23.25
25.36
26.61
27.10
26.95
26.41
25.67
24.91
24.17
23.44
22.66
21.85
21.08
20.43
19.90
19.42
18.81
17.80
16.23
14.01
11.18
7.83
4.11
0.14
-3.92
-7.92
-11.68
-15.08
-18.12
-20.87
-23.51
-26.27
-29.36
-33.01
-37.34
-42.18
-46.98
-50.75
-52.27
-50.48
-44.90
-35.86
-24.54
-12.52
-1.34
7.96
15.00
20.00
23.49
25.99
27.85
29.08
29.60
29.28
28.21
26.75
25.48
24.94
25.37
26.61
28.04
28.91
28.62
26.99
24.32
21.25
18.42
16.20
14.56
13.05
11.05
7.98
3.57
-2.02
-8.19
-14.06
-18.78
-21.74
-22.99
-23.30
-24.29
-28.22
-37.36
-53.15
-75.10
-100.28
-123.58
-139.07
-141.88
-129.91
-104.52
-69.92
-31.61
5.32
37.32
62.65
80.85
92.16
97.12
96.53
91.63
84.08
75.70
68.02
61.85
57.24
53.62
50.21
46.45
42.28
38.02
34.19
31.17
28.98
27.27
25.47
23.09
19.91
16.03
11.78
7.61
3.83
0.62
-2.07
-4.39
-6.57
-8.80
-11.23
-13.98
-17.15
-20.90
-25.39
-30.70
-36.69
-42.82
-48.16
-51.55
-51.91
-48.70
-42.13
-33.16
-23.22
-13.70
-5.55
0.86
5.68
9.24
11.81
13.41
13.98
13.47
12.02
9.98
7.80
5.89
4.51
3.78
3.67
4.13
5.01
6.16
7.36
8.47
9.44
10.23
10.83
11.11
10.83
9.72
7.66
4.73
1.22
-2.44
-5.96
-9.21
-12.29
-15.40
-18.75
-22.52
-26.80
-31.62
-36.87
-42.17
-46.83
-49.88
-50.30
-47.37
-41.02
-31.90
-21.23
-10.46
-0.80
7.09
13.09
17.57
21.01
23.81
26.12
27.88
29.00
29.42
29.23
28.61
27.80
27.01
26.41
26.11
26.15
26.49
26.99
27.41
27.46
26.93
25.71
23.86
21.53
18.91
16.10
13.08
9.81
6.30
2.66
-0.91
-4.16
-6.94
-9.26
-11.33
-13.53
-16.25
-19.88
-24.62
-30.33
-36.40
-41.81
-45.28
-45.69
-42.44
-35.71
-26.44
-15.99
-5.76
3.28
10.69
16.50
20.97
24.30
26.56
27.72
27.72
26.67
24.85
22.67
20.55
18.82
17.60
16.86
16.43
16.12
15.80
15.38
14.86
14.19
13.26
11.98
10.29
8.21
5.89
3.48
1.06
-1.47
-4.26
-7.46
-11.10
-15.02
-18.93
-22.53
-25.67
-28.45
-31.16
-34.23
-38.02
-42.60
-47.56
-51.99
-54.62
-54.25
-50.08
-42.11
-31.21
-18.76
-6.34
4.86
14.19
21.54
27.13
31.23
34.03
35.68
36.31
36.16
35.54
34.81
34.17
33.68
33.26
32.76
32.10
31.30
30.48
29.73
29.05
28.30
27.28
25.78
23.73
21.14
18.19
15.06
11.91
8.80
5.71
2.61
-0.57
-3.84
-7.16
-10.47
-13.70
-16.79
-19.81
-22.89
-26.29
-30.31
-35.10
-40.54
-46.03
-50.54
-52.83
-51.90
-47.27
-39.31
-29.04
-17.88
-7.20
2.09
9.53
15.16
19.21
21.99
23.74
24.62
24.75
24.29
23.45
22.46
21.53
20.76
20.15
19.61
19.03
18.42
17.84
17.47
17.39
17.52
17.60
17.21
16.02
13.91
11.07
7.97
5.06
2.65
0.69
-1.14
-3.26
-5.92
-9.09
-12.46
-15.63
-18.34
-20.59
-22.69
-25.07
-28.15
-32.10
-36.78
-41.64
-45.80
-48.24
-48.05
-44.71
-38.29
-29.48
-19.40
-9.28
-0.13
7.45
13.25
17.41
20.17
21.75
22.32
22.03
21.11
19.88
18.68
17.74
17.13
16.75
16.43
16.10
15.76
15.55
15.57
15.82
16.10
16.15
15.72
14.69
13.11
11.14
9.01
6.91
4.96
3.16
1.39
-0.55
-2.86
-5.62
-8.80
-12.21
-15.62
-18.86
-21.94
-25.02
-28.45
-32.50
-37.24
-42.26
-46.71
-49.48
-49.50
-46.20
-39.73
-30.91
-21.00
-11.29
-2.69
4.30
9.64
13.50
16.10
17.57
18.02
17.60
16.57
15.28
14.08
13.22
12.78
12.62
12.54
12.31
11.89
11.38
10.98
10.82
10.91
11.04
10.90
10.24
8.92
7.06
4.90
2.73
0.74
-1.08
-2.85
-4.76
-6.94
-9.36
-11.83
-14.18
-16.29
-18.20
-20.12
-22.36
-25.21
-28.90
-33.37
-38.19
-42.50
-45.12
-44.90
-41.14
-33.88
-23.99
-12.86
-2.00
7.47
15.01
20.63
24.66
27.48
29.37
30.48
30.93
30.82
30.25
29.35
28.26
27.08
25.89
24.77
23.74
22.85
22.10
21.48
20.93
20.33
19.56
18.47
17.00
15.11
12.81
10.14
7.13
3.79
0.21
-3.46
-7.03
-10.35
-13.36
-16.11
-18.79
-21.58
-24.63
-28.07
-31.93
-36.13
-40.39
-44.12
-46.53
-46.71
-43.98
-38.16
-29.73
-19.73
-9.47
-0.12
7.61
13.53
17.88
21.03
23.35
25.00
26.07
26.59
26.63
26.31
25.73
25.01
24.21
23.42
22.72
22.17
21.78
21.46
21.07
20.47
19.55
18.29
16.73
14.92
12.85
10.55
8.01
5.25
2.33
-0.68
-3.73
-6.81
-9.93
-13.13
-16.41
-19.83
-23.47
-27.48
-31.96
-36.92
-42.08
-46.78
-50.07
-50.89
-48.53
-42.81
-34.34
-24.30
-14.10
-4.93
2.55
8.23
12.42
15.53
17.83
19.44
20.35
20.61
20.39
19.90
19.34
18.78
18.19
17.49
16.66
15.77
14.96
14.39
14.04
13.81
13.43
12.66
11.29
9.29
6.76
3.88
0.86
-2.11
-4.94
-7.64
-10.21
-12.71
-15.18
-17.65
-20.19
-22.88
-25.88
-29.29
-33.14
-37.24
-41.08
-43.88
-44.72
-42.89
-38.11
-30.70
-21.53
-11.74
-2.42
5.69
12.25
