1707315117.00
64.000000
-0.00
-0.00
-0.00
-0.00
-0.00
-0.00
-0.00
-0.00
-0.00
-0.00
0.00
0.01
0.01
-0.00
-0.03
-0.05
-0.05
0.00
0.13
0.36
0.66
1.01
1.37
1.72
2.06
2.40
2.79
3.24
3.80
4.42
5.06
5.66
6.20
6.68
7.15
7.68
8.31
9.14
10.09
11.04
11.88
12.56
13.14
13.76
14.65
15.96
17.91
20.32
22.90
25.38
27.58
29.57
31.68
34.32
37.81
42.54
48.15
54.10
59.83
64.97
69.58
74.14
79.34
85.71
93.76
103.00
112.62
121.73
129.77
136.75
143.30
150.75
157.77
166.64
177.95
191.79
206.97
220.57
228.25
225.36
208.53
176.87
132.76
80.05
23.07
-34.94
-92.44
-149.16
-205.23
-260.37
-313.74
-363.88
-409.83
-450.90
-486.49
-515.72
-537.19
-549.17
-549.88
-538.26
-514.06
-478.49
-433.64
-382.16
-326.68
-269.44
-212.16
-156.12
-102.35
-51.70
-5.16
36.40
72.32
102.33
126.57
145.54
159.96
170.53
177.88
182.40
184.38
184.05
181.69
177.63
172.30
166.10
159.37
152.37
145.23
138.03
130.81
123.62
116.52
109.58
102.86
96.44
90.32
84.54
79.11
74.02
69.31
64.96
61.00
57.42
54.22
51.38
48.92
46.84
45.13
43.79
42.80
42.14
41.76
41.57
41.45
41.27
40.85
40.01
38.58
36.42
33.45
29.64
25.03
19.69
13.82
7.63
1.38
-4.67
-10.25
-15.16
-19.22
-22.34
-24.48
-25.66
-25.95
-25.48
-24.37
-22.78
-20.83
-18.66
-16.34
-13.96
-11.52
-9.08
-6.66
-4.25
-1.85
0.55
3.00
5.50
8.09
10.80
13.59
16.46
19.38
22.36
25.42
28.57
31.87
35.34
39.08
43.00
47.06
51.23
55.52
59.94
64.50
69.24
74.23
79.55
85.06
90.67
96.34
102.04
107.76
113.51
119.28
125.11
131.04
136.80
142.15
146.86
150.71
153.41
154.58
153.71
150.10
145.10
139.19
132.70
125.82
118.71
111.51
104.32
97.24
90.43
84.04
77.93
72.03
66.33
60.83
55.57
50.58
45.92
41.67
37.89
34.41
31.11
27.90
24.73
21.62
18.60
15.74
13.13
10.85
8.81
6.94
5.16
3.43
1.75
0.10
-1.45
-2.87
-4.15
-5.35
-6.57
-7.88
-9.32
-10.85
-12.41
-13.89
-15.22
-16.43
-17.68
-19.16
-21.11
-23.61
-26.61
-29.90
-33.18
-36.23
-39.04
-41.84
-45.00
-48.92
-53.85
-59.71
-66.16
-72.73
-79.05
-85.08
-91.14
-97.87
-105.91
-115.65
-126.99
-139.47
-152.43
-165.27
-177.75
-189.99
-202.49
-216.03
-231.66
-250.40
-272.85
-298.47
-325.04
-348.84
-365.51
-371.54
-365.66
-349.36
-326.34
-301.07
-277.23
-256.84
-240.16
-226.33
-214.07
-202.11
-189.23
-174.31
-156.35
-134.95
-110.54
-84.50
-58.77
-35.31
-15.52
0.08
11.86
20.75
27.87
34.15
40.06
45.57
50.35
53.98
56.33
57.61
58.37
59.29
60.79
62.82
64.86
66.10
65.94
64.16
61.11
57.42
53.74
50.50
47.78
45.43
43.15
40.66
37.78
34.40
30.49
26.11
21.38
16.50
11.74
7.29
3.14
-0.96
-5.44
-10.69
-16.74
-23.03
-28.29
-30.96
-29.64
-23.75
-13.86
-1.57
11.05
22.21
30.90
37.07
41.25
44.10
45.99
46.84
46.52
44.99
42.62
40.08
38.07
37.00
36.88
37.33
37.89
38.26
38.26
37.90
37.14
35.91
34.10
31.69
28.79
25.56
22.16
18.69
15.16
11.61
8.20
5.09
2.43
0.16
-2.01
-4.54
-7.88
-12.38
-18.10
-24.79
-31.88
-38.38
-43.05
-44.60
-42.05
-35.15
-24.66
-12.15
0.45
11.50
20.13
26.26
30.38
33.03
34.52
34.93
34.31
32.99
31.54
30.61
30.51
31.12
31.89
32.24
31.87
30.88
29.69
28.65
27.84
27.00
25.72
23.70
20.89
17.55
14.07
10.71
7.54
4.43
1.24
-2.05
-5.30
-8.32
-11.00
-13.41
-15.78
-18.53
-22.09
-26.77
-32.63
-39.28
-45.84
-50.99
-53.34
-51.80
-46.03
-36.64
-24.98
-12.78
-1.54
7.81
15.00
20.35
24.39
27.56
30.08
31.95
33.03
33.27
32.80
31.90
30.99
30.35
30.08
30.06
30.01
29.69
29.00
27.98
26.74
25.32
23.68
21.73
19.43
16.79
13.88
10.70
7.26
3.58
-0.20
-3.85
-7.11
-9.86
-12.31
-14.85
-17.92
-21.78
-26.41
-31.65
-37.17
-42.70
-47.78
-51.73
-53.56
-52.22
-47.05
-38.12
-26.41
-13.56
-1.33
8.97
16.77
22.26
25.96
28.37
29.72
29.97
29.17
27.60
25.83
24.53
24.16
24.73
25.84
26.89
27.34
26.90
25.61
23.73
21.60
19.45
17.42
15.44
13.41
11.11
8.36
5.07
1.33
-2.67
-6.65
-10.32
-13.60
-16.52
-19.35
-22.49
-26.36
-31.23
-37.09
-43.48
-49.45
-53.71
-54.90
-52.08
-45.05
-34.51
-21.89
-8.83
3.26
13.53
21.69
27.77
31.83
33.95
34.21
32.90
30.58
27.99
25.84
24.50
24.00
24.02
24.20
24.25
24.00
23.52
22.89
22.19
21.35
20.19
18.40
15.61
11.70
6.79
1.40
-3.82
-8.26
-11.65
-14.13
-16.23
-18.67
-22.03
-26.66
-32.42
-38.80
-44.85
-49.36
-51.04
-48.97
-42.91
-33.45
-21.95
-10.02
0.85
9.78
16.42
20.88
23.42
24.29
23.75
22.13
19.83
17.38
15.28
13.82
13.06
12.83
12.87
13.00
13.06
13.03
12.90
12.58
11.87
10.43
7.97
4.38
-0.15
-5.13
-9.96
-14.14
-17.57
-20.60
-23.92
-28.31
-34.30
-41.81
-50.15
-58.03
-63.87
-66.22
-64.25
-57.89
-47.92
-35.80
-23.17
-11.50
-1.75
5.78
11.20
14.89
17.22
18.48
18.84
18.57
17.99
17.41
17.12
17.16
17.41
17.62
17.57
17.08
16.16
14.83
13.13
11.03
8.49
5.55
2.39
-0.69
-3.38
-5.51
-7.28
-9.19
-11.97
-16.23
-22.13
-29.05
-35.73
-40.48
-41.80
-38.87
-31.91
-22.04
-10.88
0.06
9.84
18.12
25.02
30.67
35.04
37.87
38.95
38.31
36.30
33.53
30.58
27.92
25.80
24.26
23.27
22.71
22.35
21.87
20.92
19.29
16.95
14.07
10.87
7.44
3.69
-0.65
-5.85
-12.07
-19.25
-27.09
-34.98
-42.04
-47.21
-49.41
-47.91
-42.52
-33.74
-22.71
-10.79
0.83
11.41
20.74
28.89
35.95
41.81
46.20
48.83
49.59
48.69
46.60
43.98
41.47
39.54
38.47
38.30
38.80
39.57
40.17
40.22
39.59
38.37
36.79
35.01
33.05
30.73
27.80
24.10
19.62
14.56
9.25
4.02
-0.88
-5.25
-9.04
-12.34
-15.37
-18.59
-22.53
-27.67
-34.21
-41.87
-49.71
-56.33
-60.07
-59.55
-54.20
-44.47
-31.82
-18.16
-5.20
6.08
15.60
23.80
31.18
37.84
43.50
47.69
50.13
50.90
50.38
49.00
47.07
44.78
42.29
39.98
38.28
37.57
37.88
38.83
39.77
40.04
39.30
37.48
34.85
31.69
28.20
24.57
20.92
17.46
14.38
11.75
9.43
7.11
4.47
1.32
-2.19
-5.72
-8.84
-11.35
-13.29
-14.98
-16.83
-19.15
-22.18
-26.04
-30.71
-35.93
-41.11
-45.27
-47.27
-46.18
-41.67
-34.25
-25.02
-15.33
-6.23
1.73
8.52
14.30
19.21
23.20
26.15
28.08
29.23
29.95
30.53
30.99
31.07
30.43
28.88
26.66
24.46
23.17
23.61
26.14
30.39
35.25
39.18
40.55
38.25
32.17
23.28
13.42
4.67
-1.30
-3.59
-2.28
1.83
7.55
13.65
19.07
23.06
25.20
25.45
24.09
21.58
18.45
15.06
11.52
7.73
3.45
-1.52
-7.27
-13.59
-19.89
-25.30
-28.80
-29.71
-27.92
-24.13
-19.60
-15.80
-13.81
-14.11
-16.32
-19.58
-22.92
-25.66
-27.64
-29.12
-30.54
-32.19
-34.04
-35.61
-36.18
-34.95
-31.45
-25.68
-18.10
-9.46
-0.46
8.39
16.90
25.04
32.97
41.00
49.80
60.24
73.04
88.24
104.62
119.81
130.92
135.58
132.87
123.58
109.69
93.49
76.82
60.77
45.90
32.49
20.82
10.98
2.74
-4.50
-11.40
-18.32
-25.10
-31.12
-35.72
-38.65
-40.22
-41.25
-42.59
-44.65
-47.28
-49.88
-51.73
-52.40
-51.92
-50.65
-49.15
-47.93
-47.21
-47.05
-47.32
-47.77
-48.16
-48.22
-47.68
-46.27
-43.83
-40.35
-35.95
-30.96
-25.84
-21.13
-17.21
-14.27
-12.30
-11.14
-10.66
-10.91
-12.12
-14.58
-18.51
-23.82
-30.09
-36.63
-42.71
-47.75
-51.56
-54.22
-55.98
-57.05
-57.56
-57.52
-56.94
-55.93
-54.61
-53.06
-51.16
-48.57
-44.91
-39.91
-33.67
-26.68
-19.81
-13.90
-9.60
-7.07
-5.98
-5.59
-5.03
-3.47
-0.47
3.97
9.45
15.37
21.09
26.19
30.49
34.04
36.93
39.14
40.46
40.59
39.23
36.44
32.64
28.51
24.74
21.71
19.32
17.17
14.74
11.70
8.11
4.35
0.87
-1.85
-3.55
-4.17
-3.83
-2.84
-1.57
-0.42
0.36
0.69
0.64
0.40
0.00
-0.58
-1.40
-2.45
-3.56
-4.44
-4.93
-4.99
-4.88
-4.92
-5.38
-6.29
-7.44
-8.46
-9.01
-8.92
-8.14
-6.78
-4.99
-2.94
-0.79
1.24
2.98
4.29
5.11
5.48
5.55
5.41
5.12
4.57
3.50
1.76
-0.64
-3.38
-5.99
-8.02
-9.28
-9.84
-9.89
-9.59
-8.95
-7.93
-6.69
-5.66
-5.63
-7.34
-11.19
-16.92
-23.82
-30.89
-37.29
-42.45
-45.99
-47.53
-46.67
-43.03
-36.59
-27.77
-17.54
-7.14
2.20
9.53
14.34
16.58
16.57
14.88
12.23
9.39
7.09
5.79
5.60
6.23
7.06
7.32
6.37
3.89
0.03
-4.58
-9.02
-12.25
-13.47
-12.29
-8.95
-4.19
0.94
5.39
8.49
10.09
10.65
10.96
11.79
13.49
15.87
18.29
20.06
20.82
20.72
20.30
20.09
20.29
20.61
20.50
19.57
17.83
15.81
14.22
13.51
13.54
13.70
13.20
11.58
8.94
5.81
2.88
0.53
-1.25
-2.81
-4.50
-6.44
-8.54
-10.58
-12.49
-14.46
-16.77
-19.59
-22.66
-25.35
-26.80
-26.33
-23.63
-18.95
-12.91
-6.32
0.06
5.76
10.53
14.31
17.14
19.09
20.30
20.98
21.33
21.61
22.05
22.81
24.03
25.68
27.65
29.76
31.94
34.32
37.27
41.28
46.64
53.17
60.09
66.18
70.22
71.43
69.79
65.97
61.07
56.22
52.36
49.97
49.21
49.82
51.34
53.13
54.49
54.80
53.71
51.14
47.38
43.00
38.59
34.64
31.37
28.74
26.55
24.61
22.84
21.22
19.72
18.18
16.37
14.08
11.26
8.11
4.92
1.96
-0.69
-3.07
-5.26
-7.24
-8.82
-9.83
-10.19
-10.07
-9.79
-9.73
-10.21
-11.39
-13.24
-15.57
-18.06
-20.28
-21.88
-22.61
-22.50
-21.86
-21.19
-20.97
-21.49
-22.75
-24.47
-26.28
-27.88
-29.12
-29.98
-30.45
-30.51
-30.11
-29.34
-28.43
-27.74
-27.59
-28.15
-29.25
-30.48
-31.43
-31.81
-31.59
-30.93
-30.06
-29.17
-28.34
-27.62
-27.05
-26.65
-26.41
-26.21
-25.85
-25.10
-23.88
-22.25
-20.45
-18.77
-17.45
-16.55
-16.01
-15.70
-15.59
-15.71
-16.16
-17.00
-18.12
-19.25
-20.02
-20.13
-19.51
-18.31
-16.91
-15.67
-14.77
-14.09
-13.34
-12.18
-10.45
-8.31
-6.16
-4.48
-3.59
-3.50
-3.92
-4.43
-4.68
-4.58
-4.27
-4.06
-4.19
-4.66
-5.27
-5.69
-5.72
-5.36
-4.87
-4.52
-4.43
-4.53
-4.52
-4.15
-3.39
-2.44
-1.65
-1.23
-1.24
-1.52
-1.90
-2.36
-3.04
-4.08
-5.50
-7.09
-8.43
-9.16
-9.08
-8.31
-7.15
-5.97
-5.03
-4.38
-3.93
-3.52
-3.05
-2.52
-2.04
-1.72
-1.63
-1.72
-1.85
-1.93
-1.90
-1.82
-1.79
-1.88
-2.15
-2.53
-2.96
-3.37
-3.71
-3.92
-4.03
-4.05
-3.98
-3.89
-3.76
-3.67
-3.64
-3.79
-4.23
-5.05
-6.22
-7.61
-8.98
-10.08
-10.71
-10.79
-10.34
-9.48
-8.37
-7.19
-6.03
-4.91
-3.79
-2.60
-1.33
-0.04
1.12
1.95
2.26
2.01
1.28
0.34
-0.49
-0.95
-0.95
-0.56
-0.03
0.39
0.53
0.32
-0.10
-0.65
-1.22
-1.83
-2.52
-3.34
-4.34
-5.48
-6.63
-7.57
-7.98
-7.62
-6.42
-4.68
-2.96
-1.92
-2.12
-3.69
-6.29
-9.19
-11.53
-12.62
-12.19
-10.43
-7.89
-5.24
-3.05
-1.62
-1.00
-0.94
-1.11
-1.19
-0.97
-0.41
0.39
1.18
1.69
1.67
0.98
-0.21
-1.56
-2.62
-3.00
-2.57
-1.58
-0.45
0.30
0.34
-0.38
-1.58
-2.85
-3.80
-4.19
-4.05
-3.61
-3.21
-3.17
-3.66
-4.69
-6.14
-7.84
-9.60
-11.24
-12.45
-12.84
-12.04
-9.89
-6.60
-2.80
0.67
3.09
4.28
4.53
4.55
4.99
6.18
7.89
9.54
10.63
10.90
10.62
10.28
10.33
10.79
11.29
11.30
10.46
8.93
7.20
5.91
5.37
5.40
5.44
4.92
3.58
1.59
-0.64
-2.70
-4.43
-5.84
-7.06
-8.19
-9.32
-10.52
-11.95
-13.71
-15.79
-17.95
-19.70
-20.58
-20.29
-18.89
-16.67
-14.06
-11.39
-8.81
-6.43
-4.31
-2.54
-1.17
-0.20
0.45
0.85
1.00
0.81
0.25
-0.58
-1.31
-1.43
-0.55
1.37
3.88
6.28
7.90
8.46
8.09
7.26
6.51
6.18
6.29
6.65
6.94
6.86
6.22
4.94
3.06
0.72
-1.82
-4.20
-6.22
-7.76
-8.97
-10.07
-11.30
-12.70
-14.16
-15.42
-16.23
-16.40
-15.85
-14.55
-12.46
-9.58
-5.96
-1.82
2.51
6.58
10.02
12.59
14.22
15.04
15.26
15.13
14.88
14.66
14.56
14.65
14.91
15.28
15.66
15.92
15.89
15.43
14.48
13.09
11.38
9.54
7.79
6.26
4.98
3.97
3.18
2.52
1.95
1.29
0.39
-0.86
-2.44
-4.26
-6.10
-7.83
-9.42
-10.99
-12.74
-14.81
-17.14
-19.41
-21.14
-21.70
-20.67
-18.03
-14.12
-9.63
-5.32
-1.72
1.06
3.24
5.16
7.01
8.68
9.90
10.46
10.42
10.14
10.08
10.55
11.48
12.46
12.99
12.70
11.57
9.89
8.20
6.91
6.28
6.24
6.52
6.78
6.70
6.03
4.63
2.48
-0.28
-3.32
-6.30
-8.93
-11.21
-13.36
-15.75
-18.61
-21.78
-24.78
-27.00
-28.02
-27.75
-26.40
-24.18
-21.17
-17.25
-12.37
-6.74
-0.89
4.49
8.80
11.85
13.81
15.05
15.91
16.49
16.67
16.44
15.91
15.42
15.34
15.83
16.73
17.60
17.91
17.34
15.88
13.86
11.77
9.87
8.17
6.32
4.02
1.23
-1.76
-4.41
-6.33
-7.51
-8.29
-9.22
-10.78
-13.11
-16.21
-19.90
-23.99
-28.18
-31.90
-34.36
-34.73
-32.57
-28.03
-21.84
-14.95
-8.22
-2.13
3.18
7.78
11.76
15.23
18.15
20.44
21.98
22.59
22.23
21.07
19.46
17.91
16.89
16.57
16.77
17.10
17.17
16.68
15.63
14.19
12.54
10.80
8.98
6.97
4.76
2.31
-0.24
-2.76
-5.09
-7.25
-9.35
-11.59
-14.18
-17.26
-20.90
-25.09
-29.75
-34.53
-38.83
-41.87
-42.83
-41.21
-37.03
-30.83
-23.49
-15.90
-8.65
-1.92
4.31
10.16
15.58
20.38
24.21
26.69
27.60
26.88
24.84
22.05
19.32
17.43
16.86
17.58
19.06
20.49
21.20
20.93
19.88
18.48
17.00
15.48
13.70
11.47
8.84
6.00
3.22
0.54
-2.18
-5.19
-8.62
-12.37
-16.22
-19.96
-23.56
-27.06
-30.45
-33.39
-35.21
-35.10
-32.48
-27.29
-20.07
-11.78
-3.42
4.35
11.36
17.79
23.93
29.74
34.93
39.01
41.60
42.67
42.46
41.37
39.79
37.93
35.92
33.84
31.75
29.69
27.65
25.52
23.18
20.54
17.61
14.56
11.56
8.75
6.12
3.48
0.67
-2.38
-5.54
-8.61
-11.46
-14.11
-16.87
-20.11
-24.11
-28.82
-33.83
-38.41
-41.69
-42.90
-41.55
-37.61
-31.54
-24.13
-16.29
-8.79
-2.08
3.77
8.87
13.27
16.91
19.66
21.48
22.53
23.12
23.63
24.28
25.03
25.65
25.85
25.48
24.56
23.23
21.79
20.51
19.61
19.15
19.03
18.90
18.31
16.92
14.65
11.83
9.04
6.79
5.26
4.22
3.15
1.59
-0.66
-3.46
-6.56
-9.84
-13.36
-17.29
-21.53
-25.66
-28.85
-30.26
-29.40
-26.40
-21.84
-16.46
-10.85
-5.26
0.31
5.83
11.10
15.65
19.01
20.93
21.56
21.38
21.00
20.80
20.90
21.17
21.38
21.40
21.14
20.57
19.61
18.16
16.24
14.00
11.73
9.61
7.64
5.52
2.83
-0.63
-4.79
-9.27
-13.61
-17.58
-21.32
-25.25
-29.80
-35.17
-41.22
-47.65
-54.13
-60.50
-66.73
-72.84
-78.66
-83.78
-87.64
-89.73
-89.78
-87.97
-84.89
-81.37
-78.18
-75.88
-74.57
-73.97
-73.46
-72.28
-69.67
-64.95
-57.78
-48.25
-37.07
-25.49
-14.99
-6.77
-1.30
2.06
4.83
8.78
15.20
24.15
34.55
44.75
53.52
60.90
68.23
77.56
90.53
107.46
127.07
146.98
164.58
177.75
185.27
186.83
182.96
174.83
164.09
152.52
141.36
130.92
120.47
108.71
94.76
78.73
62.01
46.58
34.17
25.45
19.95
16.42
13.60
10.75
7.80
5.13
3.15
1.96
1.24
0.38
-1.18
-3.73
-7.03
-10.45
-13.22
-14.76
-15.02
-14.48
-13.99
-14.26
-15.67
-17.86
-20.13
-21.73
-22.37
-22.37
-22.43
-23.31
-25.29
-28.10
-31.11
-33.75
-35.88
-37.68
-39.50
-41.37
-42.81
-43.09
-41.53
-37.92
-32.73
-26.81
-21.04
-15.98
-11.70
-7.99
-4.58
-1.43
1.25
3.16
4.15
4.33
3.99
3.63
3.61
4.07
4.85
5.58
5.86
5.48
4.52
3.26
2.04
1.00
-0.03
-1.37
-3.25
-5.62
-8.09
-10.18
-11.58
-12.33
-12.85
-13.62
-14.96
-16.99
-19.59
-22.58
-25.81
-29.03
-31.86
-33.72
-33.98
-32.27
-28.69
-23.78
-18.32
-13.00
-8.19
-3.85
0.25
4.28
8.14
11.46
13.67
14.39
13.65
11.96
10.12
8.88
8.67
9.39
10.54
11.54
12.03
12.02
11.86
11.94
12.36
12.87
12.89
11.85
9.57
6.23
2.44
-1.13
-3.94
-5.90
-7.24
-8.36
-9.55
-11.01
-12.75
-14.87
-17.57
-21.00
-24.98
-28.82
-31.49
-31.91
-29.49
-24.39
-17.45
-9.88
-2.68
3.50
8.50
12.36
15.17
16.92
17.65
17.52
16.81
15.89
15.12
14.65
14.49
14.46
14.30
13.75
12.60
10.85
8.74
6.61
4.78
3.32
1.99
0.38
-1.86
-4.72
-7.79
-10.43
-12.16
-12.94
-13.22
-13.81
-15.43
-18.45
-22.76
-27.70
-32.23
-35.26
-35.86
-33.59
-28.66
-21.90
-14.41
-7.32
-1.36
3.21
6.53
8.93
10.71
11.99
12.85
13.28
13.25
12.80
11.98
10.91
9.81
8.91
8.34
8.06
7.89
7.64
7.25
6.70
6.04
5.11
3.65
1.39
-1.64
-5.10
-8.40
-11.02
-12.84
-14.26
-15.98
-18.72
-22.86
-28.31
-34.59
-40.98
-46.70
-51.02
-53.33
-53.19
-50.49
-45.64
-39.35
-32.64
-26.44
-21.32
-17.41
-14.45
-12.08
-10.12
-8.75
-8.44
-9.70
-12.78
-17.43
-22.89
-28.23
-32.71
-36.13
-38.99
-42.18
-46.59
-52.52
-59.46
-66.24
-71.34
-73.54
-72.22
-67.40
-59.74
-50.17
-39.79
-29.65
-20.51
-12.49
-4.91
3.82
15.65
32.10
53.35
77.84
102.65
124.37
140.45
149.88
153.20
151.76
146.90
139.54
130.23
119.64
108.75
98.71
90.24
83.24
76.73
69.38
60.38
49.78
38.62
28.46
20.61
15.67
13.40
12.93
13.13
13.05
12.13
10.33
8.00
5.59
3.47
1.70
0.18
-1.35
-3.03
-4.90
-6.92
-8.98
-10.98
-12.79
-14.30
-15.41
-16.17
-16.79
-17.50
-18.50
-19.81
-21.34
-22.95
-24.61
-26.46
-28.64
-31.26
-34.28
-37.59
-40.94
-44.03
-46.39
-47.41
-46.45
-43.09
-37.42
-30.08
-22.17
-14.78
-8.60
-3.80
-0.09
2.98
5.66
8.05
10.21
12.16
14.08
16.06
18.07
19.84
21.04
21.42
20.93
19.80
18.32
16.77
15.27
13.82
12.38
10.91
9.31
7.47
5.26
2.63
-0.27
-3.11
-5.56
-7.38
-8.65
-9.69
-10.95
-12.71
-15.00
-17.55
-20.03
-22.22
-24.15
-26.01
-27.97
-29.94
-31.51
-32.02
-30.82
-27.56
-22.38
-15.95
-9.24
-3.10
1.97
5.98
9.28
12.33
15.29
18.01
20.05
21.01
20.76
19.61
18.16
16.97
16.40
16.41
16.64
16.67
16.16
15.07
13.61
12.06
10.60
9.24
7.76
5.93
3.56
0.69
-2.47
-5.63
-8.46
-10.78
-12.53
-13.90
-15.18
-16.69
-18.68
-21.14
-23.89
-26.54
-28.59
-29.52
-28.87
-26.33
-21.83
-15.71
-8.65
-1.59
4.62
9.50
13.04
15.63
17.80
19.82
21.58
22.75
22.96
22.14
20.60
18.88
17.51
16.76
16.50
16.27
15.51
13.84
11.28
8.24
5.27
2.82
1.06
-0.23
-1.49
-3.05
-5.02
-7.25
-9.44
-11.36
-12.98
-14.51
-16.25
-18.46
-21.22
-24.46
-27.99
-31.52
-34.71
-37.15
-38.39
-38.05
-35.84
-31.73
-25.90
-18.74
-10.77
-2.63
5.02
11.60
16.66
20.01
21.79
22.38
22.29
21.86
21.21
20.11
18.37
16.03
13.54
11.62
10.87
11.47
12.96
14.44
14.93
13.90
11.40
8.06
4.64
1.66
-0.75
-2.83
-4.84
-6.95
-9.17
-11.51
-14.02
-16.92
-20.35
-24.26
-28.45
-32.68
-36.84
-40.99
-45.16
-49.14
-52.27
-53.69
-52.73
-49.30
-44.04
-38.02
-32.24
-27.21
-22.95
-19.28
-16.15
-13.85
-12.89
-13.59
-15.90
-19.29
-22.97
-26.23
-28.68
-30.32
-31.39
-32.14
-32.56
-32.38
-31.17
-28.66
-24.90
-20.27
-15.27
-10.23
-5.01
0.88
8.12
17.18
27.99
40.00
52.19
63.29
72.06
77.48
79.03
77.02
72.59
67.63
64.10
63.44
65.82
70.05
73.83
74.60
70.49
60.92
46.94
30.75
15.11
2.36
-6.05
-9.83
-9.70
-6.90
-2.79
1.46
4.99
7.35
8.40
8.34
7.58
6.66
6.03
5.95
6.46
7.41
8.56
9.59
10.14
9.84
8.48
6.17
3.25
0.30
-2.23
-4.19
-5.81
-7.59
-9.86
-12.63
-15.58
-18.30
-20.52
-22.27
-23.84
-25.57
-27.68
-30.23
-33.14
-36.22
-39.11
-41.29
-42.12
-40.97
-37.51
-31.82
-24.49
-16.38
-8.42
-1.21
4.91
9.91
13.93
17.07
19.35
20.71
21.13
20.70
19.70
18.53
17.56
17.10
17.14
17.50
17.80
17.70
17.04
15.81
14.13
12.05
9.48
6.22
2.19
-2.41
-7.07
-11.13
-14.15
-16.08
-17.36
-18.69
-20.73
-23.80
-27.87
-32.62
-37.53
-41.87
-44.72
-45.12
-42.35
-36.27
-27.48
-17.23
-7.00
1.99
9.07
14.14
17.48
19.49
20.47
20.62
20.03
18.95
17.68
16.60
15.92
15.63
15.43
14.96
13.93
12.35
10.54
8.82
7.34
5.89
4.00
1.19
-2.68
-7.26
-11.88
-15.83
-18.75
-20.68
-22.19
-24.06
-26.98
-31.36
-37.08
-43.40
-49.06
-52.58
-52.78
-49.15
-42.16
-32.95
-22.89
-13.03
-3.88
4.54
12.30
19.28
25.06
29.10
31.15
31.45
30.69
29.70
29.09
29.16
29.73
30.46
30.95
30.91
30.26
29.06
27.54
25.85
24.07
22.13
19.93
17.45
14.79
12.10
9.38
6.41
2.78
-1.86
-7.53
-13.90
-20.50
-27.04
-33.49
-39.94
-46.12
-51.21
-53.94
-53.16
-48.47
-40.51
-30.75
-20.80
-11.81
-4.21
2.24
8.01
13.34
18.11
21.84
24.12
24.88
24.47
23.57
22.86
22.76
23.25
23.96
24.47
24.52
24.16
23.66
23.33
23.31
23.51
23.57
23.07
21.64
19.06
15.34
10.75
5.75
0.91
-3.35
-6.90
-9.95
-12.99
-16.56
-21.06
-26.56
-32.74
-38.97
-44.43
-48.27
-49.76
-48.39
-44.00
-36.88
-27.75
-17.66
-7.77
1.01
8.31
14.27
19.37
24.00
28.22
31.67
33.88
34.57
33.90
32.48
31.01
30.06
29.76
29.96
30.34
30.78
31.19
31.64
32.03
32.08
31.46
29.95
27.54
24.44
20.91
17.12
13.07
8.75
4.13
-0.61
-5.09
-8.98
-12.06
-14.47
-16.69
-19.41
-23.28
-28.58
-35.01
-41.64
-47.09
-50.05
-49.62
-45.63
-38.63
-29.64
-19.81
-10.06
-0.98
7.13
14.09
19.72
23.86
26.42
27.50
27.44
26.79
26.17
26.05
26.53
27.42
28.19
28.36
27.58
25.81
23.37
20.71
18.31
16.45
15.09
13.80
12.06
9.38
5.57
0.85
-4.29
-9.27
-13.66
-17.33
-20.45
-23.44
-26.78
-30.88
-35.98
-42.13
-49.15
-56.69
-64.23
-71.06
-76.38
-79.29
-79.10
-75.52
-68.93
-60.39
-51.28
-42.81
-35.65
-29.63
-24.26
-19.00
-13.84
-9.22
-5.85
-4.22
-4.30
-5.53
-7.05
-8.18
-8.57
-8.43
-8.29
-8.79
-10.37
-13.03
-16.45
-20.09
-23.60
-26.92
-30.36
-34.45
-39.61
-45.87
-52.85
-59.87
-66.25
-71.69
-76.38
-80.96
-86.38
-93.44
-102.66
-113.81
-126.10
-137.94
-147.43
-152.78
-152.79
-147.25
-137.01
-123.65
-108.89
-93.93
-79.27
-64.83
-50.56
-36.80
-24.45
-14.36
-6.94
-1.61
3.04
8.61
16.19
25.84
36.71
47.46
56.83
64.02
68.81
71.41
72.37
72.31
71.76
70.90
69.48
66.90
62.53
56.02
47.57
37.81
27.59
17.49
7.61
-2.49
-13.53
-26.23
-41.09
-58.18
-76.92
-95.81
-112.50
-123.93
-127.11
-120.15
-102.92
-77.33
-46.72
-14.86
15.20
41.63
63.94
82.25
96.68
107.16
113.50
115.85
115.00
112.27
109.16
106.81
105.67
105.47
105.54
105.17
103.92
101.74
98.84
95.50
91.90
87.88
83.04
76.83
68.73
58.59
46.71
33.92
21.30
9.75
-0.26
-8.99
-17.22
-25.97
-36.18
-48.36
-62.65
-78.72
-95.58
-111.53
-124.15
-130.74
-129.19
-118.86
-101.01
-78.46
-54.63
-32.38
-13.16
2.91
16.55
28.36
38.52
46.78
52.89
57.02
59.75
61.79
63.60
65.14
66.04
65.96
64.96
63.62
62.74
62.87
63.84
64.73
64.16
60.84
54.31
45.08
34.50
24.17
15.31
8.31
2.61
-2.98
-9.86
-19.16
-31.34
-45.87
-61.13
-74.58
-83.28
-84.70
-77.51
-62.20
-40.92
-16.88
6.69
27.46
44.41
57.66
67.87
75.64
81.17
84.46
85.52
84.78
83.01
81.08
79.48
78.24
76.93
75.07
72.50
69.59
66.93
64.93
63.47
61.73
58.63
53.35
45.77
36.55
26.84
17.72
9.84
3.10
-3.09
-9.66
-17.48
-27.20
-38.84
-51.61
-63.73
-72.70
-75.97
-71.79
-60.03
-42.28
-21.34
-0.18
18.97
35.09
48.22
58.91
67.59
74.28
78.79
80.95
80.96
79.51
77.44
75.51
74.06
73.05
72.07
70.75
68.94
66.82
64.76
63.02
61.54
59.75
56.91
52.35
45.89
37.93
29.40
21.32
14.39
8.72
3.78
-1.29
-7.40
-15.03
-24.10
-33.78
-42.67
-49.09
-51.35
-48.41
-40.13
-27.43
-12.06
3.95
18.84
31.52
41.65
49.35
54.87
58.33
59.77
59.31
57.32
54.43
51.34
48.63
46.59
45.21
44.36
43.82
43.35
42.66
41.40
39.26
36.08
31.89
26.90
21.34
15.41
9.24
3.00
-3.07
-8.76
-14.05
-19.32
-25.22
-32.37
-40.80
-49.58
-56.82
-60.31
-58.33
-50.43
-37.70
-22.40
-7.05
6.37
16.94
24.76
30.40
34.37
36.84
37.77
37.19
35.56
33.69
32.46
32.33
33.14
34.23
34.81
34.45
33.23
31.70
30.35
29.40
28.48
26.94
24.10
19.79
14.36
8.63
3.51
-0.39
-3.02
-4.89
-6.90
-10.02
-14.94
-21.83
-30.13
-38.60
-45.55
-49.26
-48.43
-42.56
-32.10
-18.39
-3.37
10.89
22.58
30.58
34.51
34.71
31.93
27.17
21.34
15.29
9.70
5.11
1.92
0.24
-0.03
0.71
1.97
3.31
4.38
4.99
5.09
4.68
3.73
2.26
0.28
-2.09
-4.59
-6.92
-8.78
-10.04
-10.89
-11.81
-13.43
-16.28
-20.57
-25.89
-31.27
-35.40
-36.92
-34.83
-28.78
-19.20
-7.21
5.68
18.04
28.85
37.71
44.80
50.55
55.28
58.89
60.98
61.05
58.90
54.83
49.57
43.98
38.63
33.65
28.71
23.31
17.10
10.12
2.77
-4.34
-10.60
-15.67
-19.43
-22.01
-23.60
-24.51
-25.01
-25.46
-26.33
-28.07
-31.12
-35.57
-41.11
-46.90
-51.76
-54.53
-54.38
-51.10
-45.15
-37.53
-29.46
-22.02
-15.90
-11.34
-8.15
-5.99
-4.51
-3.50
-2.90
-2.66
-2.68
-2.82
-2.91
-2.84
-2.63
-2.45
-2.52
-3.10
-4.36
-6.30
-8.75
-11.29
-13.41
-14.66
-14.85
-14.07
-12.71
-11.30
-10.27
-9.93
-10.47
-12.01
-14.66
-18.54
-23.48
-28.89
-33.74
-36.74
-36.76
-33.20
-26.30
-17.02
-6.73
3.22
11.87
18.71
23.67
26.86
28.40
28.43
27.17
25.01
22.52
20.33
18.90
18.32
18.33
18.43
18.17
17.43
16.41
15.56
15.20
15.35
15.68
15.70
15.05
13.75
12.17
10.75
9.65
8.57
6.83
3.77
-0.89
-6.86
-13.42
-19.76
-25.27
-29.69
-32.87
-34.62
-34.46
-31.90
-26.75
-19.52
-11.40
-3.91
1.68
4.79
5.70
5.26
4.37
3.59
3.07
2.61
2.02
1.29
0.64
0.32
0.43
0.84
1.23
1.36
1.16
0.76
0.33
-0.09
-0.62
-1.51
-2.97
-4.93
-7.08
-9.07
-10.66
-11.91
-13.15
-14.80
-17.22
-20.58
-24.80
-29.55
-34.16
-37.75
-39.28
-37.98
-33.55
-26.47
-17.82
-9.04
-1.39
4.46
8.46
11.06
12.79
14.04
14.85
15.11
14.67
13.63
12.35
11.41
11.27
12.04
13.40
14.64
15.05
14.27
12.41
10.03
7.82
6.18
5.08
4.05
2.48
-0.03
-3.41
-7.18
-10.72
-13.55
-15.55
-17.03
-18.50
-20.47
-23.15
-26.39
-29.80
-32.71
-34.43
-34.26
-31.68
-26.55
-19.31
-10.93
-2.77
3.88
8.27
10.36
10.73
10.22
9.49
8.83
8.28
7.80
7.48
7.55
8.16
9.23
10.41
11.25
11.37
10.67
9.36
7.85
6.51
5.53
4.85
4.23
3.39
2.12
0.41
-1.60
-3.69
-5.65
-7.43
-9.10
-10.82
-12.76
-15.05
-17.75
-20.78
-23.90
-26.59
-28.20
-28.06
-25.78
-21.46
-15.66
-9.23
-3.11
2.05
5.89
8.40
9.75
10.10
9.62
8.42
6.71
4.76
2.98
1.77
1.39
1.81
2.72
3.66
4.22
4.22
3.78
3.15
2.60
2.15
1.62
0.70
-0.80
-2.84
-5.17
-7.36
-9.01
-9.88
-10.03
-9.83
-9.90
-10.91
-13.35
-17.28
-22.18
-27.09
-30.75
-32.03
-30.28
-25.61
-18.83
-11.22
-4.03
1.88
6.17
9.05
10.89
11.97
12.37
12.02
10.97
9.45
7.92
6.77
6.23
6.14
6.14
5.86
5.10
3.97
2.75
1.79
1.25
1.05
0.92
0.43
-0.72
-2.61
-5.06
-7.69
-10.12
-12.11
-13.80
-15.55
-17.85
-20.94
-24.66
-28.31
-30.89
-31.47
-29.56
-25.34
-19.51
-13.08
-6.94
-1.63
2.76
6.34
9.30
11.68
13.42
14.43
14.64
14.12
13.03
11.65
10.23
9.09
8.42
8.29
8.62
9.09
9.30
8.95
7.87
6.14
3.96
1.51
-1.16
-4.17
-7.56
-11.19
-14.70
-17.62
-19.68
-21.03
-22.21
-23.96
-26.71
-30.18
-33.38
-34.94
-33.75
-29.51
-22.81
-14.94
-7.34
-1.05
3.53
6.53
8.33
9.33
9.70
9.50
8.81
7.79
6.76
6.05
5.89
6.30
7.07
7.76
7.92
7.29
5.82
3.77
1.48
-0.74
-2.76
-4.60
-6.35
-8.07
-9.65
-11.03
-12.14
-13.18
-14.49
-16.50
-19.47
-23.43
-27.92
-32.16
-35.19
-36.08
-34.28
-29.72
-22.95
-14.94
-6.90
0.14
5.47
8.86
10.47
10.69
10.00
8.82
7.51
6.36
5.57
5.25
5.41
5.99
6.88
7.89
8.87
9.63
10.02
9.92
9.22
7.85
5.83
3.20
0.13
-3.01
-5.83
-7.94
-9.28
-10.16
-11.23
-13.23
-16.66
-21.57
-27.38
-33.09
-37.46
-39.43
-38.41
-34.41
-28.06
-20.31
-12.21
-4.63
1.85
7.00
10.80
13.33
14.76
15.29
15.17
14.63
13.87
12.94
11.90
10.77
9.62
8.57
7.74
7.22
7.01
7.00
7.00
6.70
5.77
3.96
1.28
-2.05
-5.55
-8.81
-11.63
-14.18
-16.89
-20.24
-24.50
-29.51
-34.73
-39.25
-41.98
-41.91
-38.41
-31.45
-21.81
-10.87
-0.29
8.52
14.80
18.60
20.52
21.27
21.34
20.92
20.01
18.72
17.37
16.39
16.11
16.49
17.19
17.71
17.69
17.02
15.90
14.53
12.94
10.94
8.25
4.75
0.66
-3.51
-7.25
-10.23
-12.54
-14.60
-17.00
-20.25
-24.68
-30.18
-36.17
-41.58
-45.07
-45.40
-41.92
-34.80
-25.09
-14.36
-4.13
4.64
11.62
17.00
21.12
24.15
26.05
26.79
26.46
25.42
24.15
23.03
22.18
21.49
20.72
19.74
18.53
17.30
16.27
15.55
15.08
14.57
13.61
11.79
8.86
4.85
0.05
-4.95
-9.58
-13.45
-16.56
-19.33
-22.49
-26.75
-32.58
-39.91
-47.97
-55.40
-60.46
-61.49
-57.48
-48.46
-35.59
-20.92
-6.65
5.47
14.64
21.07
25.56
29.03
32.05
34.74
36.94
38.49
39.38
39.82
40.01
40.01
39.69
38.84
37.39
35.52
33.66
32.26
31.64
31.73
32.13
32.39
32.10
31.16
29.62
27.65
25.33
22.70
19.76
16.57
13.35
10.31
7.62
5.29
3.17
1.04
-1.38
-4.32
-7.99
-12.39
-17.19
-21.67
-24.78
-25.52
-23.29
-18.21
-11.12
-3.25
4.24
10.72
16.12
20.79
25.14
29.28
32.95
35.73
37.21
37.33
36.46
35.30
34.56
34.73
35.81
37.43
38.93
39.71
39.43
38.10
35.96
33.27
30.17
26.68
22.78
18.53
14.21
10.22
6.98
4.79
3.70
3.46
3.60
3.61
3.04
1.69
-0.37
-2.88
-5.45
-7.68
-9.26
-9.98
-9.77
-8.65
-6.75
-4.24
-1.39
1.56
4.33
6.67
8.28
8.90
8.33
6.52
3.64
0.03
-3.83
-7.50
-10.68
-13.20
-15.03
-16.17
-16.67
-16.57
-15.94
-14.91
-13.73
-12.80
-12.52
-13.24
-15.01
-17.58
-20.38
-22.77
-24.29
-24.81
-24.65
-24.31
-24.35
-25.18
-26.95
-29.48
-32.33
-34.79
-36.03
-35.29
-32.13
-26.70
-19.70
-12.20
-5.21
0.55
4.86
7.86
9.82
11.00
11.40
10.96
9.66
7.63
5.18
2.71
0.59
-0.98
-1.90
-2.25
-2.16
-1.75
-1.12
-0.31
0.67
1.76
2.69
3.08
2.58
1.03
-1.33
-4.00
-6.45
-8.47
-10.28
-12.56
-15.92
-20.55
-25.95
-31.02
-34.52
-35.53
-33.79
-29.70
-24.11
-17.97
-12.03
-6.76
-2.32
1.26
4.00
5.82
6.72
6.81
6.46
6.19
6.47
7.53
9.21
11.06
12.57
13.44
13.72
13.62
13.40
13.08
12.45
11.20
9.09
6.21
2.83
-0.61
-3.76
-6.49
-8.90
-11.28
-14.01
-17.39
-21.59
-26.64
-32.35
-38.32
-43.81
-47.86
-49.49
-47.96
-43.15
-35.68
-26.81
-17.91
-10.07
-3.67
1.50
5.84
9.65
12.84
15.07
16.10
16.05
15.38
14.74
14.61
15.12
16.06
17.00
17.54
17.48
16.84
15.80
14.60
13.47
12.41
11.25
9.60
7.14
3.74
-0.26
-4.21
-7.41
-9.50
-10.62
-11.43
-12.70
-15.04
-18.66
-23.43
-28.96
-34.75
-40.12
-44.15
-45.69
-43.79
-37.97
-28.62
-16.98
-4.78
6.30
15.12
21.27
24.96
26.73
27.06
26.32
24.76
22.71
20.62
19.03
18.31
18.51
19.20
19.79
19.69
18.70
17.03
15.16
13.61
12.62
12.05
11.54
10.61
8.95
6.51
3.50
0.28
-2.83
-5.63
-8.22
-10.89
-14.02
-17.94
-22.82
-28.43
-34.17
-39.03
-41.71
-41.04
-36.37
-27.93
-16.88
-5.04
5.70
14.01
19.39
22.21
23.30
23.43
23.14
22.52
21.54
20.14
18.48
16.88
15.78
15.54
16.25
17.62
19.04
19.79
19.35
17.64
14.95
11.82
8.67
5.66
2.74
-0.18
-3.01
-5.48
-7.37
-8.79
-10.28
-12.62
-16.43
-21.73
-27.85
-33.52
-37.35
-38.24
-35.64
-29.71
-21.23
-11.40
-1.58
7.10
13.92
18.76
21.89
23.76
24.67
24.71
23.85
22.25
20.36
18.76
17.92
17.88
18.24
18.40
17.86
16.52
14.68
12.81
11.20
9.90
8.61
6.96
4.71
1.84
-1.37
-4.53
-7.14
-8.85
-9.61
-9.72
-9.75
-10.46
-12.47
-16.03
-20.86
-26.06
-30.34
-32.41
-31.40
-27.15
-20.34
-12.21
-4.09
3.06
8.79
13.17
16.51
19.05
20.82
21.70
21.64
20.78
19.48
18.21
17.37
17.12
17.41
17.98
18.45
18.48
17.86
16.60
14.89
13.09
11.46
10.07
8.66
6.88
4.48
1.49
-1.69
-4.55
-6.76
-8.34
-9.68
-11.21
-13.20
-15.59
-18.24
-21.06
-24.09
-27.30
-30.32
-32.35
-32.36
-29.61
-23.97
-16.14
-7.35
1.14
8.35
13.85
17.55
19.59
20.11
19.33
17.61
15.48
13.53
12.25
11.90
12.42
13.54
14.85
16.00
16.82
17.28
17.48
17.46
17.19
16.48
15.19
13.27
10.95
8.61
6.62
5.11
3.95
2.82
1.36
-0.58
-2.90
-5.34
-7.63
-9.67
-11.56
-13.50
-15.63
-17.99
-20.48
-23.03
-25.68
-28.58
-31.81
-35.15
-37.85
-38.84
-37.00
-31.81
-23.67
-13.89
-4.28
3.60
8.95
11.90
13.20
13.72
14.03
14.27
14.35
14.24
14.15
14.40
15.14
16.21
17.09
17.23
16.36
14.66
12.72
11.21
10.52
10.61
11.00
11.05
10.23
8.38
5.68
2.70
0.01
-2.02
-3.30
-4.05
-4.68
-5.49
-6.56
-7.72
-8.74
-9.54
-10.34
-11.49
-13.42
-16.27
-19.92
-24.05
-28.31
-32.29
-35.48
-37.17
-36.53
-32.99
-26.49
-17.73
-8.05
1.08
8.46
13.57
16.54
17.89
18.13
17.62
16.54
14.95
13.06
11.16
9.59
8.64
8.31
8.44
8.68
8.69
8.24
7.36
6.21
5.04
4.05
3.23
2.42
1.36
-0.15
-2.13
-4.44
-6.78
-8.85
-10.43
-11.42
-11.96
-12.36
-13.05
-14.47
-16.93
-20.53
-25.05
-29.90
-34.28
-37.27
-38.03
-36.05
-31.24
-24.03
-15.29
-6.17
2.22
9.05
13.99
17.20
19.09
20.16
20.70
20.75
20.27
19.25
17.86
16.43
15.36
14.95
15.18
15.67
15.85
15.18
13.42
10.82
8.02
5.70
4.28
3.63
3.17
2.11
-0.10
-3.46
-7.51
-11.49
-14.73
-16.95
-18.23
-18.99
-19.78
-21.08
-23.29
-26.58
-30.81
-35.47
-39.72
-42.47
-42.63
-39.53
-33.12
-24.08
-13.71
-3.44
5.45
12.26
16.94
19.85
21.53
22.40
22.77
22.74
22.44
22.01
21.55
21.06
20.45
19.53
18.32
16.94
15.68
14.81
14.44
14.41
14.39
14.02
12.98
11.23
8.93
6.39
3.99
1.97
0.33
-1.20
-3.02
-5.47
-8.64
-12.32
-15.97
-19.05
-21.20
-22.55
-23.65
-25.28
-28.21
-32.75
-38.58
-44.76
-49.91
-52.58
-51.66
-46.73
-38.14
-27.07
-15.04
-3.57
6.15
13.53
18.50
21.42
22.88
23.52
23.89
24.33
24.99
25.74
26.28
26.30
25.70
24.63
23.50
22.68
22.33
22.23
21.99
21.24
19.79
17.71
15.22
12.56
9.84
7.14
4.49
1.98
-0.27
-2.24
-4.15
-6.34
-9.15
-12.70
-16.69
-20.52
-23.52
-25.28
-26.02
-26.59
-28.16
-31.69
-37.40
-44.44
-51.13
-55.50
-55.98
-51.94
-43.82
-32.90
-20.80
-8.95
1.61
10.30
16.87
21.26
23.50
23.83
22.63
20.49
18.13
16.20
15.16
15.17
16.01
17.22
18.25
18.67
18.24
16.98
15.06
12.74
10.25
7.71
5.09
2.32
-0.72
-4.15
-8.05
-12.40
-17.13
-21.99
-26.71
-31.07
-35.02
-38.79
-42.80
-47.63
-53.84
-61.77
-71.32
-81.81
-91.92
-99.92
-104.11
-103.33
-97.41
-87.27
-74.59
-61.21
-48.42
-36.67
-25.71
-14.94
-3.89
7.54
19.14
30.66
42.05
53.60
65.62
78.32
91.49
104.38
115.84
124.69
130.05
131.68
129.99
125.81
120.01
113.23
105.77
97.67
88.91
79.50
69.33
58.16
45.65
31.58
16.07
-0.42
-17.20
-33.66
-49.53
-64.85
-79.81
-94.56
-108.99
-122.66
-134.65
-143.56
-147.53
-144.74
-134.00
-115.36
-90.55
-62.58
-34.99
-10.68
8.78
23.33
33.89
41.66
47.55
51.99
55.07
56.91
57.80
58.31
59.13
60.82
63.64
67.52
72.06
76.73
81.03
84.57
87.09
88.42
88.33
86.60
83.04
77.61
70.59
62.57
54.31
46.61
39.97
34.47
29.78
25.26
20.19
14.01
6.60
-1.68
-10.09
-17.71
-23.79
-27.90
-29.97
-30.13
-28.54
-25.35
-20.87
-15.57
-10.16
-5.45
-2.09
-0.31
0.04
-0.68
-2.16
-4.21
-6.81
-9.75
-12.63
-14.90
-16.15
-16.29
-15.58
-14.56
-13.74
-13.54
-14.26
-16.09
-19.20
-23.59
-29.00
-34.85
-40.42
-45.02
-48.34
-50.50
-52.04
-53.75
-56.48
-60.94
-67.40
-75.41
-83.69
-90.31
-93.08
-90.27
-81.17
-66.37
-47.65
-27.33
-7.64
9.82
24.37
36.00
45.03
51.83
56.61
59.51
60.72
60.57
59.52
58.02
56.36
54.59
52.49
49.85
46.65
43.29
40.49
39.16
40.00
43.07
47.63
52.33
55.55
56.05
53.12
46.57
36.48
22.89
5.96
-13.53
-33.73
-51.72
-64.25
-68.85
-64.88
-53.84
-38.71
-22.79
-8.58
2.83
11.44
17.73
22.00
24.10
23.60
20.16
13.78
5.04
-5.17
-15.76
-25.70
-34.14
-40.63
-45.11
-48.03
-50.15
-52.25
-54.76
-57.47
-59.65
-60.36
-58.96
-55.40
-50.31
-44.66
-39.47
-35.54
-33.45
-33.71
-36.71
-42.54
-50.69
-59.85
-68.16
-73.71
-75.12
-71.97
-64.67
-54.15
-41.46
-27.41
-12.65
2.23
16.61
29.86
41.44
51.02
58.50
63.90
67.35
69.00
69.05
67.79
65.44
62.17
57.90
52.44
45.62
37.57
28.78
19.99
11.94
4.96
-1.10
-6.91
-13.36
-21.31
-31.30
-43.46
-57.47
-72.43
-86.78
-98.29
-104.37
-102.80
-92.52
-74.32
-50.75
-25.40
-1.72
17.91
32.66
42.90
49.47
53.10
54.12
52.83
49.77
45.92
42.47
40.35
39.85
40.57
41.70
42.39
42.19
41.04
39.13
36.53
33.04
28.16
21.49
12.98
3.27
-6.47
-14.96
-21.36
-25.75
-29.15
-33.25
-39.82
-49.97
-63.59
-79.03
-93.19
-102.30
-103.06
-93.77
-75.12
-49.99
-22.47
3.55
25.55
42.82
56.07
66.46
74.69
80.73
84.04
84.17
81.36
76.61
71.42
67.24
64.85
64.16
64.32
64.25
63.17
60.94
57.94
54.76
51.70
48.66
45.12
40.49
34.45
27.10
18.88
10.43
2.26
-5.39
-12.53
-19.44
-26.42
-33.75
-41.68
-50.43
-60.18
-70.83
-81.69
-91.16
-96.83
-96.11
-87.17
-69.93
-46.35
-19.96
5.41
26.80
42.97
54.33
62.21
67.93
72.10
74.68
75.42
74.37
72.16
69.74
67.89
66.85
66.18
65.15
63.20
60.33
57.04
54.02
51.60
49.58
47.35
44.26
40.05
34.98
29.62
24.48
19.78
15.32
10.62
5.26
-0.92
-7.66
-14.46
-20.73
-26.14
-30.71
-34.89
-39.37
-44.98
-52.41
-61.83
-72.60
-83.08
-90.78
-93.07
-88.00
-75.26
-56.48
-34.73
-13.49
4.59
18.44
28.53
36.11
42.28
47.41
51.16
52.95
52.57
50.45
47.59
45.10
43.74
43.63
44.28
44.92
44.80
43.57
41.36
38.59
35.74
33.10
30.64
28.06
24.91
20.87
15.79
9.86
3.49
-2.83
-8.68
-13.87
-18.53
-22.98
-27.66
-32.92
-38.98
-45.93
-53.61
-61.46
-68.31
-72.46
-72.09
-65.92
-53.99
-37.73
-19.67
-2.46
12.00
23.07
31.14
37.09
41.64
45.05
47.22
48.02
47.58
46.29
44.71
43.34
42.41
41.93
41.72
41.58
41.33
40.86
40.01
38.57
36.27
32.95
28.71
23.92
19.14
14.86
11.27
8.20
5.19
1.75
-2.40
-7.20
-12.38
-17.57
-22.45
-26.90
-30.92
-34.71
-38.62
-43.19
-48.93
-56.05
-64.03
-71.56
-76.61
-77.17
-71.95
-61.06
-46.07
-29.49
-13.87
-0.93
8.83
15.98
21.51
26.24
30.38
33.63
35.55
35.95
35.13
33.67
32.30
31.43
31.09
30.93
30.50
29.48
27.90
26.02
24.25
22.94
22.12
21.54
20.71
19.12
16.43
12.69
8.34
4.05
0.50
-1.95
-3.39
-4.32
-5.45
-7.34
-10.21
-13.86
-17.79
-21.44
-24.46
-26.78
-28.69
-30.63
-33.05
-36.34
-40.63
-45.73
-50.97
-55.21
-56.94
-54.80
-48.05
-36.95
-22.84
-7.75
6.32
17.96
26.72
32.92
37.29
40.42
42.51
43.44
43.07
41.56
39.37
37.19
35.57
34.70
34.41
34.20
33.64
32.43
30.62
28.47
26.28
24.21
22.17
19.79
16.72
12.77
8.17
3.53
-0.39
-2.99
-4.16
-4.28
-4.12
-4.46
-5.76
-8.12
-11.29
-14.85
-18.39
-21.57
-24.17
-26.18
-27.84
-29.67
-32.35
-36.50
-42.30
-49.18
-55.84
-60.52
-61.63
-58.28
-50.63
-39.77
-27.30
-14.85
-3.57
5.90
13.42
19.08
23.12
25.76
27.20
27.61
27.14
25.94
24.25
22.43
20.85
19.85
19.60
20.00
20.76
21.52
21.92
21.76
20.85
19.11
16.54
13.32
9.78
6.42
3.66
1.65
0.22
-1.09
-2.82
-5.31
-8.64
-12.52
-16.51
-20.21
-23.40
-26.06
-28.38
-30.75
-33.61
-37.36
-42.11
-47.35
-51.98
-54.44
-53.24
-47.56
-37.70
-25.02
-11.57
0.68
10.47
17.40
21.78
24.19
25.11
24.84
23.67
21.96
20.15
18.69
17.77
17.28
16.90
16.33
15.50
14.63
14.04
14.00
14.55
15.45
16.34
16.80
16.49
15.24
13.09
10.33
7.39
4.75
2.68
1.23
0.11
-1.15
-2.99
-5.64
-9.04
-12.86
-16.67
-20.18
-23.30
-26.18
-29.21
-32.82
-37.33
-42.72
-48.41
-53.30
-56.08
-55.48
-50.88
-42.51
-31.49
-19.53
-8.30
0.91
7.63
12.10
15.06
17.26
19.20
21.03
22.59
23.73
24.40
24.73
24.95
25.20
25.41
25.39
25.03
24.36
23.63
23.16
23.12
23.41
23.67
23.41
22.26
20.10
17.01
13.31
9.39
5.61
2.31
-0.35
-2.38
-4.01
-5.56
-7.48
-10.01
-13.21
-16.91
-20.72
-24.26
-27.23
-29.58
-31.58
-33.77
-36.79
-41.07
-46.48
-52.17
-56.64
-58.25
-55.76
-48.91
-38.59
-26.40
-14.11
-3.07
6.07
13.22
18.55
22.23
24.33
24.99
24.53
23.47
22.35
21.63
21.40
21.53
21.66
21.40
20.61
19.38
18.03
16.97
16.38
16.11
15.76
14.83
13.05
10.57
7.83
5.30
3.22
1.50
-0.19
-2.13
-4.37
-6.79
-9.20
-11.50
-13.76
-16.03
-18.31
-20.55
-22.76
-25.19
-28.26
-32.30
-37.22
-42.25
-46.13
-47.46
-45.27
-39.36
-30.43
-19.80
-9.01
0.68
8.51
14.26
18.06
20.23
21.07
20.83
19.77
18.24
16.67
15.47
14.92
15.04
15.57
16.17
16.59
16.80
16.99
17.32
17.77
18.05
17.68
16.24
13.65
10.21
6.45
2.89
-0.24
-3.06
-5.78
-8.61
-11.58
-14.58
-17.51
-20.37
-23.24
-26.15
-29.06
-31.88
-34.64
-37.67
-41.39
-46.08
-51.41
-56.27
-59.02
-58.11
-52.75
-43.34
-31.25
-18.38
-6.43
3.62
11.58
17.75
22.51
26.06
28.32
29.24
28.93
27.76
26.40
25.41
25.14
25.58
26.39
27.11
27.38
27.08
26.35
25.48
24.64
23.81
22.72
21.01
18.42
15.03
11.26
7.68
4.71
2.35
0.20
-2.32
-5.65
-9.84
-14.58
-19.34
-23.66
-27.30
-30.24
-32.67
-34.96
-37.73
-41.69
-47.32
-54.52
-62.18
-68.37
-70.91
-68.14
-59.73
-46.86
-31.77
-17.02
-4.46
5.12
12.03
17.13
21.26
24.79
27.58
29.26
29.68
29.12
28.32
28.10
28.92
30.64
32.61
34.00
34.26
33.44
32.14
31.07
30.65
30.70
30.55
29.36
26.67
22.57
17.72
13.01
9.06
6.01
3.46
0.74
-2.71
-7.09
-12.11
-17.19
-21.76
-25.52
-28.58
-31.39
-34.54
-38.63
-44.02
-50.70
-58.23
-65.60
-71.26
-73.46
-70.74
-62.61
-49.79
-34.21
-18.29
-4.14
7.11
15.41
21.42
25.91
29.27
31.50
32.44
32.16
31.13
30.11
29.78
30.41
31.73
33.12
34.00
34.14
33.77
33.36
33.34
33.71
34.01
33.56
31.82
28.63
24.39
19.73
15.24
11.26
7.82
4.74
1.78
-1.35
-4.85
-8.85
-13.36
-18.13
-22.78
-26.81
-30.05
-32.70
-35.49
-39.46
-45.41
-53.49
-62.80
-71.57
-77.56
-78.79
-74.14
-63.75
-48.98
-32.02
-15.21
-0.46
11.16
19.46
24.93
28.32
30.26
31.09
30.97
30.03
28.60
27.26
26.61
27.03
28.50
30.59
32.57
33.80
33.89
32.81
30.95
28.84
26.85
24.99
22.91
20.04
15.94
10.60
4.45
-1.80
-7.58
-12.69
-17.40
-22.11
-27.12
-32.42
-37.83
-43.32
-49.10
-55.56
-62.73
-69.90
-75.45
-77.28
-73.66
-63.93
-48.95
-30.87
-12.47
3.76
16.30
24.82
29.92
32.69
34.10
34.79
34.97
34.65
33.91
33.06
32.67
33.22
34.93
37.49
40.12
41.92
42.26
41.00
38.49
35.39
32.22
29.25
26.40
23.37
19.82
15.49
10.27
4.28
-2.27
-9.02
-15.59
-21.69
-27.19
-32.23
-37.19
-42.59
-49.02
-56.95
-66.44
-76.91
-86.91
-94.25
-96.51
-91.95
-80.18
-62.50
-41.55
-20.40
-1.53
13.83
25.69
34.89
42.32
48.40
53.08
56.07
57.28
56.96
55.67
54.03
52.50
51.20
50.07
49.00
48.00
47.13
46.50
45.99
45.30
43.96
41.56
38.00
33.57
28.83
24.38
20.56
17.24
13.94
9.99
4.97
-1.11
-7.79
-14.36
-20.22
-25.10
-29.22
-33.12
-37.48
-42.97
-50.04
-58.77
-68.65
-78.37
-85.96
-89.12
-86.00
-75.88
-59.68
-39.64
-18.75
0.27
15.71
27.12
35.05
40.63
44.80
48.05
50.44
51.84
52.25
52.03
51.79
52.08
53.08
54.42
55.38
55.32
54.00
51.84
49.58
47.86
46.82
45.91
44.19
40.82
35.58
28.95
22.00
15.99
11.69
9.15
7.67
6.16
3.65
-0.34
-5.71
-11.90
-18.23
-24.11
-29.21
-33.46
-37.07
-40.50
-44.44
-49.69
-56.78
-65.49
-74.62
-81.97
-84.95
-81.50
-70.96
-54.44
-34.49
-14.27
3.56
17.54
27.57
34.52
39.43
43.02
45.58
47.04
47.39
46.95
46.23
45.80
45.98
46.65
47.34
47.44
46.60
44.84
42.59
40.37
38.53
36.94
35.11
32.47
28.78
24.28
19.63
15.56
12.42
10.08
8.04
5.69
2.64
-1.21
-5.70
-10.55
-15.46
-20.13
-24.23
-27.62
-30.43
-33.21
-36.81
-42.07
-49.31
-57.99
-66.67
-73.24
-75.56
-72.04
-62.28
-47.22
-28.94
-10.11
6.82
20.24
29.61
35.30
38.14
38.97
38.37
36.74
34.49
32.16
30.25
29.10
28.65
28.56
28.40
27.98
27.40
26.91
26.65
26.48
25.99
24.75
22.56
19.60
16.33
13.20
10.45
8.04
5.68
3.07
-0.02
-3.66
-7.76
-12.10
-16.42
-20.50
-24.21
-27.64
-31.21
-35.51
-41.17
-48.43
-56.77
-64.69
-70.07
-70.73
-65.42
-54.35
-39.19
-22.49
-6.74
6.44
16.56
23.98
29.38
33.20
35.57
36.44
35.88
34.26
32.26
30.64
29.97
30.43
31.77
33.43
34.78
35.33
34.93
33.75
32.08
30.12
27.88
25.25
22.12
18.59
14.92
11.46
8.41
5.72
3.14
0.27
-3.16
-7.20
-11.67
-16.23
-20.47
-24.15
-27.19
-29.72
-32.02
-34.51
-37.78
-42.44
-48.89
-57.00
-65.70
-73.06
-76.77
-74.87
-66.65
-52.97
-36.05
-18.67
-3.24
8.93
17.72
23.85
28.27
31.69
34.38
36.34
37.47
37.86
37.83
37.78
37.99
38.46
38.89
38.81
37.94
36.35
34.45
32.82
31.80
31.31
30.86
29.76
27.55
24.20
20.16
16.09
12.59
9.88
7.76
5.74
3.25
-0.09
-4.36
-9.30
-14.46
-19.31
-23.53
-27.05
-30.12
-33.23
-36.88
-41.55
-47.44
-54.41
-61.92
-68.86
-73.74
-74.94
-71.21
-62.09
-48.25
-31.47
-14.11
1.50
13.73
22.00
26.69
28.72
29.10
28.57
27.57
26.39
25.33
24.74
24.89
25.81
27.22
28.61
29.47
29.56
29.00
28.13
27.26
26.43
25.38
23.71
21.15
17.78
13.96
10.24
7.03
4.48
2.43
0.47
-1.86
-4.90
-8.69
-13.06
-17.59
-21.81
-25.32
-28.04
-30.24
-32.65
-36.19
-41.52
-48.67
-56.68
-63.68
-67.37
-65.81
-58.13
-44.99
-28.34
-10.84
5.05
17.65
26.36
31.52
33.95
34.56
34.00
32.61
30.53
27.95
25.21
22.84
21.36
21.04
21.76
23.00
24.04
24.23
23.29
21.26
18.51
15.49
12.59
10.00
7.66
5.40
2.98
0.22
-3.01
-6.69
-10.71
-14.89
-19.06
-23.10
-27.01
-30.96
-35.25
-40.26
-46.24
-53.21
-60.70
-67.68
-72.66
-73.96
-70.34
-61.38
-47.82
-31.42
-14.42
1.05
13.63
22.83
28.96
32.60
34.34
34.56
33.59
31.81
29.74
27.98
26.97
26.84
27.40
28.23
28.89
29.11
28.91
28.47
28.04
27.64
27.06
26.00
24.18
21.55
18.21
14.41
10.30
5.87
1.00
-4.41
-10.30
-16.38
-22.22
-27.44
-31.78
-35.28
-38.31
-41.46
-45.53
-51.22
-58.81
-67.81
-76.76
-83.42
-85.40
-81.08
-70.20
-54.14
-35.44
-16.95
-0.98
11.39
20.16
26.07
29.96
32.42
33.69
33.91
33.32
32.35
31.55
31.34
31.85
32.87
34.01
34.84
35.13
34.94
34.49
34.09
33.85
33.65
33.08
31.65
28.93
24.80
19.58
13.89
8.49
3.89
0.17
-3.12
-6.64
-10.96
-16.22
-22.07
-27.95
-33.41
-38.41
-43.31
-48.76
-55.29
-63.06
-71.51
-79.41
-84.97
-86.36
-82.19
-72.04
-56.76
-38.28
-19.06
-1.41
13.21
24.30
32.15
37.42
40.66
42.20
42.26
41.14
39.40
37.78
36.95
37.30
38.71
40.71
42.60
43.78
43.86
42.76
40.69
37.94
34.88
31.77
28.70
25.58
22.16
18.19
13.51
8.23
2.67
-2.71
-7.57
-11.80
-15.57
-19.26
-23.21
-27.66
-32.68
-38.39
-44.90
-52.28
-60.21
-67.61
-72.69
-73.29
-67.80
-55.99
-39.20
-20.02
-1.36
14.56
26.80
35.60
41.74
46.02
48.74
49.87
49.34
47.39
44.63
41.95
40.12
39.53
40.05
41.11
42.00
42.14
41.25
39.37
36.74
33.54
29.93
26.03
22.04
18.21
14.69
11.41
8.04
4.16
-0.42
-5.49
-10.48
-14.80
-18.13
-20.73
-23.33
-26.79
-31.81
-38.62
-46.86
-55.52
-63.10
-67.92
-68.46
-63.88
-54.32
-40.84
-25.19
-9.27
5.30
17.44
26.69
33.08
37.03
39.10
39.89
39.88
39.40
38.59
37.50
36.27
35.13
34.38
34.18
34.52
35.25
36.14
36.99
37.68
38.00
37.66
36.30
33.70
29.96
25.48
20.87
16.69
13.24
10.53
8.28
6.07
3.46
0.15
-3.96
-8.66
-13.60
-18.29
-22.39
-25.84
-28.91
-32.20
-36.37
-41.93
-48.87
-56.48
-63.33
-67.60
-67.54
-62.09
-51.42
-36.94
-20.87
-5.54
7.34
17.06
23.78
28.14
30.79
32.25
32.78
32.61
32.08
31.59
31.47
31.80
32.40
32.94
33.08
32.68
31.84
30.80
29.85
29.13
28.65
28.22
27.55
26.38
24.52
21.99
19.00
15.88
12.96
10.37
8.05
5.66
2.78
-0.86
-5.25
-10.06
-14.77
-18.91
-22.20
-24.71
-26.80
-28.99
-31.93
-36.14
-41.85
-48.76
-55.88
-61.65
-64.23
-62.14
-54.82
-43.00
-28.46
-13.57
-0.45
9.60
16.37
20.47
22.89
24.53
25.80
26.75
27.22
27.14
26.66
26.10
25.76
25.73
25.85
25.79
25.35
24.52
23.53
22.72
22.21
21.86
21.29
20.01
17.70
14.44
10.68
7.11
4.36
2.65
1.75
1.00
-0.32
-2.71
-6.20
-10.36
-14.49
-17.98
-20.49
-22.18
-23.57
-25.42
-28.50
-33.28
-39.76
-47.24
-54.30
-59.08
-59.84
-55.59
-46.48
-33.82
-19.66
-6.13
5.21
13.64
19.21
22.43
23.88
24.08
23.42
22.29
21.02
19.96
19.33
19.20
19.47
19.96
20.46
20.82
21.01
21.05
21.03
20.98
20.75
20.14
18.89
16.87
14.14
11.06
8.06
5.49
3.39
1.51
-0.65
-3.48
-7.10
-11.26
-15.43
-19.05
-21.85
-23.90
-25.63
-27.56
-30.16
-33.77
-38.54
-44.31
-50.51
-56.10
-59.71
-60.00
-56.20
-48.39
-37.57
-25.30
-13.22
-2.54
6.17
12.88
17.86
21.42
23.84
25.26
25.81
25.67
25.04
24.18
23.43
23.08
23.30
24.09
25.14
26.05
26.40
25.98
24.85
23.31
21.66
20.00
18.23
16.11
13.52
10.63
7.83
5.56
3.98
2.89
1.76
0.02
-2.62
-6.06
-9.85
-13.39
-16.29
-18.47
-20.16
-21.83
-23.96
-26.96
-31.08
-36.47
-43.01
-50.22
-57.13
-62.30
-64.13
-61.40
-53.79
-42.16
-28.31
-14.42
-2.33
6.95
13.38
17.52
20.18
22.01
23.32
24.16
24.43
24.14
23.41
22.61
22.17
22.48
23.56
25.08
26.50
27.28
27.22
26.51
25.60
24.97
24.76
24.73
24.31
22.95
20.38
16.75
12.59
8.56
5.19
2.71
0.92
-0.68
-2.67
-5.48
-9.15
-13.41
-17.76
-21.77
-25.17
-28.00
-30.49
-32.96
-35.79
-39.37
-44.02
-49.90
-56.72
-63.62
-69.03
-71.12
-68.38
-60.26
-47.52
-32.12
-16.47
-2.72
7.91
15.31
20.16
23.34
25.47
26.77
27.25
26.96
26.19
25.36
24.82
24.67
24.73
24.69
24.30
23.59
22.77
22.23
22.16
22.51
22.93
22.85
21.71
19.19
15.40
10.86
6.36
2.63
0.04
-1.59
-2.85
-4.47
-6.95
-10.39
-14.43
-18.50
-22.13
-25.15
-27.77
-30.56
-34.09
-38.83
-44.96
-52.23
-59.95
-66.94
-71.63
-72.43
-68.20
-58.73
-44.98
-28.93
-12.95
0.95
11.71
19.26
24.25
27.39
29.17
29.76
29.20
27.74
25.89
24.31
23.55
23.83
24.94
26.46
27.93
29.01
29.64
29.81
29.54
28.74
27.21
24.75
21.26
16.93
12.26
7.88
4.28
1.54
-0.79
-3.47
-7.26
-12.46
-18.78
-25.38
-31.41
-36.30
-40.14
-43.52
-47.31
-52.34
-59.09
-67.68
-77.68
-88.00
-96.85
-101.98
-101.26
-93.51
-79.00
-59.59
-38.19
-17.73
-0.27
13.40
23.57
31.08
36.60
40.49
42.78
43.52
43.04
41.96
41.01
40.82
41.59
43.14
44.92
46.38
47.11
47.10
46.60
45.95
45.34
44.60
43.31
40.98
37.27
32.24
26.35
20.32
14.76
9.96
5.63
1.15
-4.08
-10.36
-17.42
-24.58
-31.07
-36.50
-40.99
-45.23
-50.15
-56.59
-65.13
-75.81
-88.06
-100.53
-111.13
-117.27
-116.55
-107.57
-90.56
-67.56
-41.80
-16.71
5.02
22.10
34.45
42.81
48.11
51.02
51.96
51.34
49.78
48.23
47.63
48.59
51.05
54.26
57.15
58.86
59.11
58.28
57.07
56.10
55.43
54.60
52.79
49.31
43.96
37.08
29.51
22.21
15.87
10.75
6.48
2.29
-2.73
-9.11
-16.77
-25.02
-32.84
-39.38
-44.37
-48.23
-51.99
-56.84
-63.88
-73.71
-86.10
-99.78
-112.29
-120.42
-121.01
-112.05
-93.68
-68.28
-39.89
-12.83
9.69
26.34
37.61
44.96
49.84
53.14
55.07
55.54
54.66
52.91
51.09
49.97
49.97
51.03
52.69
54.27
55.19
55.11
54.03
52.20
49.91
47.37
44.56
41.35
37.48
32.79
27.17
20.61
13.19
5.17
-3.13
-11.23
-18.68
-25.30
-31.27
-37.10
-43.53
-51.27
-60.79
-72.21
-85.02
-97.82
-108.25
-113.26
-109.93
-96.67
-74.05
-45.01
-13.99
14.44
37.14
53.05
62.95
68.47
71.09
71.60
70.30
67.46
63.75
60.22
57.85
57.19
58.05
59.70
61.27
62.18
62.20
61.38
59.84
57.53
54.34
50.19
45.12
39.43
33.51
27.71
22.17
16.74
11.02
4.59
-2.75
-10.84
-19.16
-27.01
-33.90
-39.71
-44.89
-50.33
-57.08
-66.11
-77.82
-91.66
-105.90
-117.62
-123.32
-119.99
-106.23
-83.06
-53.78
-22.93
5.16
27.72
44.04
55.11
62.66
68.19
72.50
75.77
77.94
79.14
79.73
80.14
80.68
81.36
82.01
82.53
82.98
83.62
84.62
85.92
87.00
87.13
85.56
81.99
76.78
70.85
65.45
61.55
59.49
58.73
57.96
55.57
50.28
41.71
30.53
18.28
6.71
-2.98
-10.55
-16.89
-23.51
-31.96
-43.19
-57.03
-71.94
-85.33
-94.05
-95.27
-87.47
-70.98
-48.13
-22.52
2.01
22.50
37.49
47.00
52.05
53.97
54.01
53.00
51.43
49.55
47.38
44.91
42.10
39.03
35.88
32.90
30.34
28.35
26.93
25.90
24.94
23.64
21.64
18.75
15.01
10.67
6.02
1.27
-3.47
-8.19
-12.85
-17.35
-21.53
-25.31
-28.81
-32.26
-35.97
-40.20
-45.14
-51.06
-58.31
-67.10
-77.02
-86.69
-93.79
-95.71
-90.55
-78.02
-59.73
-38.73
-18.39
-1.27
11.41
19.84
24.94
27.71
28.81
28.60
27.38
25.56
23.78
22.66
22.59
23.55
25.22
27.06
28.62
29.65
30.12
30.10
29.66
28.76
27.24
25.01
22.13
18.85
15.58
12.62
9.97
7.41
4.50
0.99
-3.03
-7.07
-10.59
-13.27
-15.21
-16.81
-18.34
-19.57
-19.70
-17.68
-12.77
-5.02
4.75
15.23
25.17
33.81
41.01
46.97
51.83
55.55
57.86
58.50
57.49
55.28
52.57
50.23
48.97
49.16
50.68
52.89
54.76
55.19
53.32
48.84
42.03
33.67
24.73
16.05
8.09
0.95
-5.49
-11.45
-17.02
-22.17
-26.79
-30.85
-34.39
-37.63
-40.84
-44.34
-48.35
-52.99
-58.24
-63.96
-69.77
-74.96
-78.47
-79.06
-75.72
-68.18
-57.10
-44.07
-31.13
-20.09
-11.91
-6.52
-3.16
-0.86
0.98
2.48
3.45
3.73
3.47
3.13
3.10
3.54
4.30
4.96
5.22
5.04
4.67
4.41
4.40
4.55
4.47
3.72
1.92
-1.06
-5.08
-9.69
-14.27
-18.23
-21.19
-23.13
-24.30
-25.19
-26.24
-27.69
-29.49
-31.48
-33.50
-35.60
-38.08
-41.40
-45.99
-51.88
-58.49
-64.54
-68.37
-68.42
-63.85
-54.90
-42.81
-29.37
-16.13
-4.04
6.78
16.73
26.23
35.38
43.89
51.26
57.04
60.99
63.05
63.18
61.39
57.71
52.41
45.99
39.12
32.41
26.20
20.52
15.29
10.44
6.09
2.37
-0.66
-3.13
-5.34
-7.57
-9.97
-12.46
-14.97
-17.45
-19.97
-22.61
-25.36
-27.97
-30.20
-31.99
-33.65
-35.76
-38.90
-43.26
-48.41
-53.31
-56.56
-56.82
-53.30
-46.05
-36.02
-24.78
-13.98
-4.88
1.96
6.58
9.40
10.89
11.41
11.19
10.49
9.67
9.12
9.17
9.88
11.01
12.16
12.89
12.86
12.00
10.44
8.55
6.78
5.47
4.76
4.46
4.16
3.40
1.88
-0.47
-3.52
-6.94
-10.41
-13.58
-16.23
-18.29
-19.95
-21.58
-23.65
-26.33
-29.42
-32.31
-34.13
-34.10
-31.81
-27.25
-20.78
-13.02
-4.73
3.26
10.19
15.50
19.04
21.01
21.84
21.97
21.65
20.90
19.69
18.06
16.26
14.65
13.49
12.79
12.24
11.36
9.75
7.32
4.30
1.18
-1.58
-3.75
-5.35
-6.70
-8.14
-9.85
-11.81
-13.79
-15.58
-17.09
-18.47
-19.94
-21.73
-23.94
-26.57
-29.57
-32.99
-36.80
-40.73
-44.06
-45.66
-44.33
-39.34
-30.88
-20.11
-8.79
1.42
9.52
15.37
19.42
22.30
24.40
25.79
26.35
26.06
25.16
24.04
23.09
22.45
21.95
21.17
19.74
17.55
14.82
12.07
9.84
8.43
7.81
7.60
7.35
6.68
5.58
4.27
3.00
1.86
0.75
-0.65
-2.57
-5.05
-7.87
-10.73
-13.38
-15.76
-18.05
-20.56
-23.60
-27.29
-31.42
-35.37
-38.21
-38.91
-36.68
-31.33
-23.38
-13.99
-4.62
3.44
9.47
13.37
15.57
16.68
17.32
17.71
17.82
17.48
16.61
15.36
14.13
13.39
13.47
14.32
15.58
16.66
17.10
16.68
15.60
14.31
13.23
12.58
12.23
11.84
11.03
9.61
7.73
5.69
3.81
2.19
0.69
-0.88
-2.65
-4.60
-6.66
-8.94
-11.65
-15.12
-19.47
-24.36
-28.96
-32.21
-33.18
-31.39
-26.96
-20.53
-12.99
-5.22
2.00
8.13
12.90
16.26
18.35
19.48
19.95
20.07
20.04
19.89
19.68
19.45
19.24
19.09
18.91
18.59
17.97
17.03
15.89
14.84
14.14
13.81
13.57
12.94
11.54
9.23
6.32
3.38
1.01
-0.48
-1.20
-1.61
-2.29
-3.70
-6.06
-9.40
-13.56
-18.23
-22.90
-26.79
-28.92
-28.46
-25.00
-18.86
-10.97
-2.62
5.02
11.28
15.99
19.28
21.34
22.21
21.91
20.52
18.35
15.89
13.69
12.16
11.46
11.62
12.47
13.78
15.30
16.69
17.60
17.72
16.89
15.18
12.84
10.20
7.48
4.71
1.86
-1.07
-3.97
-6.56
-8.51
-9.68
-10.18
-10.44
-10.96
-12.13
-14.10
-16.79
-20.08
-23.85
-27.95
-32.00
-35.19
-36.48
-34.98
-30.40
-23.36
-15.16
-7.24
-0.71
4.10
7.43
9.81
11.62
12.96
13.75
13.91
13.55
12.89
12.18
11.54
10.96
10.35
9.62
8.86
8.29
8.15
8.61
9.52
10.43
10.73
9.98
8.14
5.68
3.37
1.79
1.06
0.77
0.31
-0.86
-2.76
-5.04
-7.18
-8.85
-10.13
-11.39
-13.09
-15.48
-18.50
-21.94
-25.55
-29.09
-32.28
-34.63
-35.47
-34.13
-30.22
-23.99
-16.40
-8.74
-2.22
2.52
5.54
7.37
8.67
9.78
10.76
11.47
11.80
11.77
11.54
11.22
10.86
10.43
9.95
9.55
9.44
9.78
10.57
11.58
12.49
12.98
12.82
11.94
10.38
8.29
5.91
3.43
0.95
-1.51
-4.03
-6.64
-9.32
-11.89
-14.20
-16.17
-17.95
-19.93
-22.55
-26.09
-30.48
-35.21
-39.48
-42.38
-43.09
-41.13
-36.56
-29.90
-22.17
-14.51
-7.85
-2.66
1.07
3.70
5.59
6.88
7.47
7.28
6.46
5.50
5.04
5.48
6.76
8.34
9.47
9.59
8.66
7.09
5.57
4.56
4.23
4.25
4.06
3.13
1.23
-1.55
-4.73
-7.71
-9.97
-11.33
-12.03
-12.62
-13.73
-15.76
-18.88
-22.93
-27.57
-32.33
-36.55
-39.47
-40.27
-38.41
-33.79
-26.92
-18.82
-10.66
-3.46
2.24
6.37
9.18
11.11
12.43
13.31
13.77
13.83
13.54
13.18
13.03
13.30
13.95
14.67
14.91
14.26
12.67
10.48
8.35
6.81
6.06
5.73
5.21
3.96
1.77
-1.10
-4.18
-6.98
-9.30
-11.20
-12.99
-15.07
-17.73
-21.24
-25.79
-31.37
-37.68
-43.99
-49.12
-51.72
-50.70
-45.67
-37.18
-26.60
-15.72
-6.13
1.22
6.20
9.37
11.55
13.45
15.39
17.32
18.92
19.95
20.33
20.21
19.98
19.98
20.38
21.07
21.72
21.98
21.68
20.92
20.00
19.23
18.63
17.98
16.85
14.79
11.57
7.21
2.05
-3.43
-8.65
-13.16
-16.70
-19.35
-21.56
-23.95
-27.13
-31.42
-36.76
-42.68
-48.43
-53.04
-55.49
-54.90
-50.63
-42.61
-31.47
-18.52
-5.45
6.14
15.20
21.46
25.37
27.66
29.07
30.05
30.71
30.99
30.83
30.29
29.65
29.28
29.42
30.14
31.17
32.06
32.32
31.62
29.98
27.72
25.30
23.05
20.98
18.80
16.08
12.49
8.02
3.01
-1.99
-6.47
-10.09
-12.88
-15.09
-17.09
-19.34
-22.28
-26.34
-31.77
-38.48
-45.71
-52.09
-55.85
-55.44
-50.17
-40.54
-28.13
-15.01
-3.02
6.77
14.07
19.19
22.61
24.65
25.54
25.42
24.60
23.55
22.77
22.66
23.32
24.57
25.95
26.94
27.19
26.63
25.55
24.44
23.74
23.53
23.51
23.01
21.36
18.13
13.48
8.10
2.94
-1.22
-4.15
-6.24
-8.33
-11.28
-15.66
-21.53
-28.61
-36.33
-43.87
-50.18
-53.90
-53.65
-48.51
-38.54
-25.02
-10.19
3.56
14.52
22.13
26.89
29.75
31.52
32.52
32.64
31.76
30.01
27.94
26.24
25.44
25.76
27.00
28.72
30.38
31.51
31.83
31.19
29.64
27.35
24.52
21.33
17.89
14.25
10.46
6.64
2.94
-0.51
-3.61
-6.42
-9.01
-11.56
-14.19
-17.08
-20.52
-24.90
-30.59
-37.70
-45.74
-53.46
-59.07
-60.70
-57.10
-48.20
-35.22
-20.30
-5.70
6.81
16.55
23.71
28.97
32.93
35.82
37.59
38.11
37.57
36.48
35.44
34.87
34.74
34.65
34.15
33.06
31.62
30.38
29.79
29.92
30.31
30.29
29.27
27.06
23.90
20.29
16.69
13.35
10.23
7.06
3.60
-0.25
-4.37
-8.43
-12.06
-15.05
-17.49
-19.73
-22.25
-25.44
-29.50
-34.39
-39.81
-45.08
-49.20
-50.86
-48.81
-42.42
-32.07
-19.29
-6.26
5.05
13.53
19.21
22.96
25.75
28.19
30.31
31.77
32.31
31.94
30.96
29.78
28.71
27.79
26.92
25.91
24.70
23.42
22.29
21.59
21.43
21.66
21.85
21.44
20.09
17.77
14.87
12.00
9.65
8.05
7.00
6.09
4.85
3.03
0.59
-2.28
-5.31
-8.21
-10.71
-12.67
-14.09
-15.25
-16.70
-19.11
-23.04
-28.52
-34.85
-40.67
-44.24
-44.05
-39.38
-30.63
-19.19
-7.01
4.08
12.93
19.27
23.50
26.26
28.02
28.84
28.58
27.14
24.82
22.35
20.66
20.41
21.67
23.88
26.09
27.41
27.43
26.32
24.69
23.26
22.52
22.46
22.71
22.69
21.89
20.00
16.93
12.80
7.83
2.38
-3.07
-7.87
-11.37
-13.09
-12.98
-11.57
-9.84
-9.05
-10.20
-13.72
-19.24
-25.66
-31.40
-34.89
-35.00
-31.28
-24.17
-14.81
-4.72
4.63
12.18
17.53
20.80
22.46
22.98
22.68
21.65
19.96
17.78
15.43
13.40
12.08
11.72
12.25
13.38
14.70
15.87
16.60
16.79
16.34
15.21
13.39
11.01
8.34
5.69
3.26
1.00
-1.28
-3.81
-6.68
-9.68
-12.49
-14.88
-16.83
-18.68
-20.90
-23.83
-27.54
-31.75
-35.86
-39.15
-40.88
-40.47
-37.69
-32.70
-26.22
-19.21
-12.64
-7.15
-2.90
0.38
3.03
5.27
7.04
8.08
8.24
7.62
6.63
5.80
5.51
5.82
6.44
6.93
6.87
6.20
5.10
3.97
3.15
2.74
2.56
2.28
1.59
0.33
-1.45
-3.57
-5.85
-8.10
-10.20
-11.98
-13.31
-14.12
-14.56
-15.06
-16.21
-18.60
-22.52
-27.76
-33.51
-38.58
-41.62
-41.61
-38.15
-31.53
-22.79
-13.25
-4.25
3.25
8.78
12.32
14.15
14.70
14.38
13.58
12.66
11.88
11.35
11.12
11.08
11.12
11.22
11.47
12.00
12.88
13.98
14.94
15.31
14.74
13.14
10.79
8.19
5.77
3.80
2.13
0.36
-1.90
-4.82
-8.25
-11.76
-14.79
-16.95
-18.09
-18.40
-18.40
-18.74
-20.04
-22.62
-26.27
-30.22
-33.24
-34.09
-31.95
-26.67
-18.94
-9.97
-1.13
6.44
12.09
15.69
17.51
17.99
17.58
16.55
15.03
13.20
11.28
9.68
8.82
8.97
10.04
11.56
12.94
13.64
13.49
12.62
11.40
10.08
8.68
6.97
4.65
1.63
-1.88
-5.35
-8.24
-10.14
-11.09
-11.54
-12.18
-13.63
-16.25
-19.99
-24.47
-29.19
-33.56
-36.96
-38.74
-38.20
-34.90
-28.82
-20.58
-11.31
-2.32
5.31
11.12
15.20
17.95
19.77
20.82
21.03
20.26
18.55
16.24
13.87
12.04
11.16
11.27
12.04
12.92
13.44
13.31
12.58
11.50
10.31
9.13
7.83
6.16
3.90
1.00
-2.35
-5.84
-9.18
-12.14
-14.67
-16.89
-18.97
-21.20
-23.87
-27.25
-31.48
-36.39
-41.38
-45.45
-47.46
-46.48
-42.16
-34.86
-25.54
-15.46
-5.80
2.56
9.21
14.03
17.17
18.92
19.65
19.79
19.71
19.65
19.66
19.68
19.62
19.54
19.60
19.95
20.51
20.96
20.91
20.07
18.55
16.78
15.23
14.18
13.38
12.25
10.25
7.17
3.35
-0.59
-4.06
-6.88
-9.35
-11.96
-15.10
-18.83
-22.97
-27.27
-31.62
-35.98
-40.23
-43.87
-46.01
-45.63
-41.94
-34.84
-25.04
-13.90
-3.04
6.23
13.17
17.66
20.04
20.87
20.69
19.93
18.88
17.79
16.86
16.33
16.33
16.89
17.85
18.90
19.65
19.77
19.20
18.10
16.81
15.68
14.80
14.00
12.85
10.89
7.90
4.02
-0.31
-4.44
-7.85
-10.33
-12.13
-13.79
-15.96
-19.18
-23.62
-29.02
-34.77
-39.94
-43.52
-44.63
-42.67
-37.47
-29.44
-19.43
-8.60
1.88
11.00
18.11
22.94
25.44
25.89
24.72
22.55
20.07
17.85
16.23
15.28
14.82
14.62
14.60
14.85
15.47
16.46
17.54
18.30
18.31
17.27
15.09
11.82
7.61
2.75
-2.36
-7.19
-11.26
-14.32
-16.50
-18.36
-20.70
-24.23
-29.31
-35.67
-42.45
-48.25
-51.51
-50.99
-46.11
-37.30
-25.76
-13.22
-1.26
8.92
16.76
22.16
25.26
26.30
25.54
23.40
20.45
17.43
15.12
14.12
14.69
16.60
19.18
21.50
22.75
22.58
21.15
19.08
16.95
15.06
13.20
10.92
7.81
3.90
-0.42
-4.54
-7.97
-10.61
-12.68
-14.66
-17.01
-20.15
-24.42
-30.01
-36.90
-44.65
-52.30
-58.31
-60.97
-58.85
-51.45
-39.45
-24.67
-9.50
3.84
13.93
20.50
24.27
26.43
28.07
29.74
31.36
32.50
32.80
32.23
31.25
30.43
30.20
30.51
30.90
30.72
29.56
27.42
24.80
22.29
20.27
18.74
17.30
15.46
12.90
9.55
5.59
1.27
-3.16
-7.50
-11.49
-14.91
-17.59
-19.58
-21.27
-23.34
-26.55
-31.48
-38.08
-45.51
-52.22
-56.27
-56.00
-50.54
-40.24
-26.51
-11.47
2.78
14.66
23.47
29.31
32.72
34.35
34.71
34.12
32.85
31.21
29.61
28.48
28.11
28.51
29.36
30.13
30.35
29.72
28.35
26.56
24.78
23.33
22.31
21.59
20.87
19.78
17.93
15.01
10.94
5.94
0.54
-4.62
-9.07
-12.68
-15.71
-18.74
-22.34
-26.91
-32.59
-39.18
-46.19
-52.67
-57.30
-58.60
-55.38
-47.25
-34.89
-20.03
-4.89
8.44
18.65
25.30
28.76
29.84
29.38
28.08
26.42
24.69
23.11
21.86
21.09
20.85
21.10
21.59
22.01
22.04
21.62
20.97
20.40
20.06
19.69
18.59
15.96
11.37
5.09
-1.89
-8.28
-13.09
-16.00
-17.50
-18.65
-20.52
-23.86
-28.89
-35.32
-42.35
-48.69
-52.82
-53.23
-48.99
-40.16
-27.83
-13.92
-0.44
11.10
20.00
26.35
30.51
32.79
33.21
31.75
28.62
24.51
20.44
17.45
16.09
16.23
17.20
18.17
18.48
17.99
16.98
15.94
15.22
14.90
14.72
14.21
12.87
10.35
6.58
1.78
-3.56
-8.83
-13.48
-17.21
-20.13
-22.70
-25.65
-29.75
-35.45
-42.59
-50.20
-56.58
-59.68
-57.90
-50.64
-38.61
-23.70
-8.33
5.38
16.14
23.74
28.70
31.82
33.74
34.80
35.07
34.65
33.78
32.86
32.29
32.31
32.89
33.77
34.56
34.87
34.47
33.30
31.47
29.13
26.49
23.72
20.87
17.89
14.63
10.98
6.88
2.45
-2.10
-6.45
-10.37
-13.66
-16.28
-18.29
-19.96
-21.75
-24.34
-28.46
-34.53
-42.43
-51.16
-58.93
-63.53
-63.09
-56.76
-45.10
-29.99
-13.97
0.62
12.26
20.53
25.82
28.87
30.37
30.82
30.56
29.91
29.26
28.94
29.14
29.82
30.71
31.48
31.92
31.93
31.56
30.89
29.94
28.65
27.00
25.00
22.77
20.47
18.18
15.84
13.23
10.13
6.41
2.19
-2.22
-6.52
-10.46
-14.07
-17.48
-20.89
-24.53
-28.66
-33.52
-39.34
-45.97
-52.71
-58.22
-60.78
-58.90
-51.91
-40.35
-25.84
-10.62
3.32
14.69
23.03
28.64
32.01
33.60
33.69
32.49
30.38
27.85
25.55
23.98
23.40
23.67
24.39
25.06
25.27
24.85
23.87
22.60
21.27
20.09
18.93
17.51
15.36
12.11
7.74
2.65
-2.34
-6.40
-9.02
-10.27
-10.79
-11.50
-13.20
-16.28
-20.71
-26.19
-32.28
-38.30
-43.28
-45.87
-44.61
-38.50
-27.46
-12.63
3.96
19.97
33.67
44.27
51.99
57.60
61.74
64.59
65.78
64.83
61.51
56.22
49.97
43.97
39.21
36.06
34.18
32.83
31.27
29.04
26.16
22.92
19.74
16.81
14.12
11.33
8.04
3.91
-1.15
-6.91
-12.96
-18.76
-23.94
-28.40
-32.33
-36.12
-40.15
-44.63
-49.68
-55.36
-61.79
-69.10
-77.13
-85.03
-91.22
-93.73
-90.88
-82.14
-68.46
-52.01
-35.42
-20.82
-9.30
-0.87
5.10
9.26
11.99
13.31
13.27
12.20
10.72
9.66
9.65
10.94
13.31
16.15
18.80
20.70
21.59
21.58
20.91
19.82
18.45
16.82
14.93
12.83
10.63
8.49
6.47
4.47
2.27
-0.37
-3.61
-7.38
-11.36
-15.16
-18.44
-21.26
-24.04
-27.53
-32.45
-39.06
-46.86
-54.42
-59.79
-60.95
-56.65
-46.84
-32.77
-16.65
-0.93
12.43
22.40
28.93
32.71
34.65
35.50
35.65
35.23
34.29
32.93
31.42
30.11
29.35
29.35
30.11
31.36
32.64
33.48
33.48
32.53
30.75
28.38
25.63
22.60
19.25
15.58
11.64
7.62
3.74
0.10
-3.35
-6.78
-10.32
-13.96
-17.62
-21.19
-24.72
-28.49
-32.97
-38.59
-45.45
-53.08
-60.28
-65.31
-66.35
-62.16
-52.54
-38.56
-22.20
-5.70
9.10
21.07
29.87
35.60
38.57
39.12
37.65
34.82
31.49
28.62
27.04
27.20
29.06
32.06
35.44
38.34
40.20
40.85
40.60
40.06
39.87
40.33
41.18
41.68
40.85
37.96
32.93
26.33
19.20
12.58
7.13
2.85
-0.69
-4.10
-7.79
-11.80
-15.86
-19.51
-22.29
-23.78
-23.63
-21.58
-17.55
-11.76
-4.69
2.88
10.07
16.06
20.31
22.55
22.83
21.34
18.38
14.23
9.23
3.89
-1.18
-5.35
-8.13
-9.40
-9.53
-9.17
-8.97
-9.32
-10.25
-11.55
-13.09
-14.90
-17.15
-19.97
-23.19
-26.43
-29.28
-31.49
-33.13
-34.51
-35.97
-37.63
-39.48
-41.43
-43.52
-46.03
-49.41
-54.16
-60.48
-68.00
-75.60
-81.46
-83.47
-79.97
-70.33
-55.37
-37.21
-18.61
-2.08
10.78
19.65
25.19
28.53
30.64
32.03
32.71
32.59
31.74
30.54
29.68
29.74
30.95
32.95
34.96
36.10
35.75
33.88
30.90
27.50
24.19
21.16
18.14
14.66
10.23
4.70
-1.70
-8.43
-14.88
-20.59
-25.38
-29.36
-32.80
-36.03
-39.53
-43.96
-50.06
-58.26
-68.18
-78.24
-85.78
-87.91
-82.54
-69.45
-50.45
-28.82
-8.09
9.21
22.17
31.26
37.63
42.21
45.27
46.57
45.86
43.49
40.40
37.81
36.64
37.02
38.31
39.38
39.33
37.85
35.27
32.35
29.79
27.91
26.55
25.22
23.29
20.19
15.62
9.60
2.56
-4.77
-11.58
-17.29
-21.75
-25.38
-28.94
-33.32
-39.27
-47.19
-57.00
-67.96
-78.58
-86.63
-89.67
-85.70
-74.04
-55.74
-33.42
-10.46
10.08
26.28
37.67
44.77
48.53
49.73
48.83
46.16
42.20
37.73
33.74
31.05
30.01
30.38
31.42
32.21
32.12
30.94
29.01
26.90
25.11
23.73
22.38
20.27
16.58
10.85
3.28
-5.31
-13.75
-21.05
-26.77
-31.18
-35.15
-39.87
-46.36
-55.30
-66.71
-79.73
-92.59
-102.60
-106.80
-102.85
-89.95
-69.40
-44.37
-18.88
3.58
21.03
33.32
41.56
47.19
51.27
54.10
55.57
55.58
54.38
52.56
50.81
49.64
49.21
49.44
49.98
50.45
50.45
49.65
47.75
44.67
40.52
35.66
30.56
25.52
20.57
15.44
9.72
3.14
-4.24
-11.97
-19.45
-26.14
-31.82
-36.68
-41.32
-46.61
-53.42
-62.49
-73.99
-87.31
-100.67
-111.33
-116.14
-112.53
-99.58
-78.33
-51.77
-23.73
2.15
23.49
39.45
50.45
57.50
61.56
63.33
63.31
62.03
60.12
58.30
57.18
56.93
57.37
58.07
58.62
58.79
58.57
58.02
57.12
55.68
53.39
50.00
45.46
40.02
34.08
28.08
22.26
16.59
10.84
4.61
-2.34
-10.02
-18.16
-26.29
-33.94
-40.85
-47.10
-53.20
-60.06
-68.63
-79.51
-92.29
-105.17
-114.99
-118.12
-111.73
-95.05
-69.93
-40.30
-10.84
14.60
34.02
47.38
55.85
60.88
63.52
64.27
63.40
61.26
58.56
56.16
54.82
54.88
56.13
57.90
59.38
59.95
59.39
57.88
55.75
53.22
50.26
46.63
42.19
37.00
31.40
25.68
19.98
14.11
7.73
0.68
-6.87
-14.43
-21.42
-27.47
-32.59
-37.18
-41.87
-47.43
-54.68
-64.21
-75.96
-88.76
-100.04
-106.35
-104.30
-91.98
-69.92
-41.14
-10.26
18.03
40.39
55.55
64.11
67.71
68.02
66.28
63.20
59.27
55.16
51.66
49.59
49.32
50.61
52.65
54.45
55.27
54.86
53.46
51.45
49.14
46.48
43.18
39.00
33.91
28.25
22.50
17.12
12.25
7.65
2.83
-2.72
-9.24
-16.61
-24.34
-31.81
-38.55
-44.52
-50.15
-56.28
-63.94
-73.93
-86.38
-100.24
-113.18
-121.86
-122.91
-114.07
-95.27
-68.87
-39.01
-10.20
14.12
32.39
44.97
53.26
58.74
62.34
64.29
64.52
63.16
60.79
58.32
56.57
55.85
55.89
55.99
55.56
54.53
53.40
52.89
53.37
54.45
55.01
53.74
49.85
43.54
35.96
28.58
22.50
17.98
14.38
10.70
6.01
-0.03
-7.16
-14.66
-21.77
-27.97
-33.23
-38.00
-43.03
-49.26
-57.48
-68.03
-80.42
-93.07
-103.33
-108.11
-104.79
-92.27
-71.56
-45.63
-18.47
6.21
26.01
40.25
49.59
55.19
58.08
58.85
57.87
55.69
53.09
50.93
49.83
49.81
50.40
50.84
50.60
49.59
48.11
46.57
45.19
43.78
41.88
39.05
35.11
30.25
24.97
19.79
15.09
10.88
6.90
2.69
-2.20
-7.99
-14.53
-21.29
-27.61
-32.97
-37.25
-40.86
-44.68
-49.69
-56.76
-66.18
-77.37
-88.73
-97.65
-101.17
-96.86
-83.79
-63.04
-37.56
-11.27
12.16
30.36
42.59
49.46
52.25
52.21
50.26
47.04
43.09
39.10
35.78
33.82
33.50
34.65
36.57
38.30
38.95
37.99
35.49
31.96
28.14
24.62
21.65
19.09
16.52
13.51
9.68
4.88
-0.88
-7.38
-14.20
-20.85
-26.81
-31.76
-35.69
-38.96
-42.38
-46.93
-53.54
-62.61
-73.60
-84.77
-93.41
-96.49
-91.71
-78.45
-58.10
-33.72
-9.05
12.70
29.60
41.29
48.48
52.28
53.65
53.24
51.49
48.92
46.16
43.87
42.47
41.96
42.01
42.13
41.98
41.45
40.69
39.90
39.09
38.04
36.37
33.74
30.02
25.41
20.26
14.99
9.88
4.96
0.06
-5.12
-10.80
-17.02
-23.52
-29.80
-35.35
-39.85
-43.41
-46.59
-50.31
-55.60
-63.18
-73.08
-84.31
-94.86
-101.98
-102.91
-95.75
-80.22
-57.96
-32.19
-6.76
15.04
31.36
42.07
48.27
51.55
53.15
53.64
53.11
51.52
49.15
46.61
44.58
43.53
43.43
43.89
44.31
44.29
43.70
42.67
41.31
39.60
37.28
33.99
29.57
24.17
18.31
12.68
7.80
3.80
0.34
-3.21
-7.49
-12.78
-18.90
-25.29
-31.28
-36.38
-40.51
-44.00
-47.51
-51.80
-57.56
-65.16
-74.37
-84.10
-92.35
-96.47
-93.95
-83.29
-64.80
-40.75
-14.76
9.27
28.46
41.53
48.86
51.82
52.02
50.70
48.56
45.98
43.19
40.48
38.18
36.52
35.60
35.28
35.34
35.54
35.73
35.75
35.41
34.49
32.82
30.32
27.09
23.41
19.56
15.80
12.20
8.69
4.99
0.83
-4.01
-9.60
-15.75
-22.08
-28.11
-33.43
-37.93
-41.87
-45.92
-50.91
-57.63
-66.32
-76.28
-85.67
-91.77
-91.75
-83.70
-67.54
-45.23
-20.22
3.65
23.48
37.91
47.07
51.87
53.38
52.30
49.12
44.42
39.10
34.25
30.86
29.36
29.47
30.39
31.23
31.43
30.98
30.30
29.79
29.53
29.06
27.69
24.89
20.59
15.33
9.92
5.07
0.99
-2.60
-6.33
-10.71
-15.93
-21.76
-27.69
-33.20
-38.07
-42.38
-46.57
-51.31
-57.33
-65.18
-75.00
-86.10
-96.82
-104.63
-106.74
-100.95
-86.58
-64.89
-38.89
-12.44
10.98
29.14
41.50
48.86
52.65
54.23
54.48
53.84
52.50
50.74
48.92
47.43
46.54
46.23
46.22
46.15
45.73
44.89
43.80
42.68
41.63
40.47
38.73
35.87
31.59
26.07
19.89
13.83
8.50
4.08
0.21
-3.77
-8.51
-14.36
-21.17
-28.40
-35.36
-41.49
-46.62
-51.07
-55.60
-61.23
-68.84
-78.69
-89.96
-100.58
-107.58
-107.92
-99.59
-82.51
-58.73
-31.80
-5.68
16.56
33.43
44.99
52.24
56.32
57.99
57.65
55.59
52.42
49.02
46.38
45.16
45.41
46.59
47.85
48.48
48.24
47.30
46.11
45.01
43.93
42.42
39.84
35.70
30.02
23.38
16.69
10.90
6.47
3.18
0.24
-3.37
-8.31
-14.62
-21.66
-28.48
-34.26
-38.76
-42.38
-45.94
-50.36
-56.35
-64.31
-74.14
-85.13
-95.73
-103.61
-105.99
-100.44
-85.96
-63.57
-36.32
-8.39
16.25
34.98
47.13
53.62
56.11
56.09
54.50
51.80
48.30
44.51
41.15
38.90
38.14
38.82
40.47
42.44
44.12
45.02
44.81
43.36
40.75
37.24
33.25
29.15
25.12
21.00
16.44
11.11
4.94
-1.86
-8.86
-15.61
-21.89
-27.66
-33.08
-38.36
-43.64
-49.05
-54.84
-61.40
-69.16
-78.20
-87.77
-95.95
-99.96
-96.98
-85.28
-65.26
-39.55
-12.22
12.58
32.00
45.09
52.49
55.65
55.88
54.03
50.51
45.75
40.45
35.54
31.92
30.10
30.06
31.25
32.91
34.29
34.90
34.55
33.31
31.41
29.02
26.18
22.76
18.62
13.63
7.84
1.38
-5.55
-12.70
-19.84
-26.78
-33.31
-39.39
-45.09
-50.67
-56.55
-63.37
-71.77
-82.19
-94.37
-106.91
-117.26
-122.14
-118.57
-105.02
-82.26
-53.29
-22.46
5.93
28.93
45.40
55.90
61.81
64.57
65.10
63.90
61.28
57.69
53.86
50.58
48.46
47.66
47.85
48.44
48.86
48.84
48.34
47.44
46.15
44.27
41.44
37.40
32.15
25.97
19.29
12.46
5.61
-1.35
-8.57
-16.01
-23.36
-30.13
-35.89
-40.48
-44.20
-47.78
-52.31
-58.92
-68.34
-80.34
-93.32
-104.25
-109.33
-105.13
-89.97
-64.76
-32.95
0.66
31.41
56.25
74.26
86.28
93.98
98.91
101.99
103.54
103.70
102.76
101.22
99.72
98.70
98.25
98.11
97.77
96.74
94.76
91.85
88.27
84.35
80.22
75.69
70.32
63.65
55.58
46.49
37.14
28.44
20.93
14.52
8.58
2.28
-4.90
-12.90
-21.09
-28.73
-35.33
-40.99
-46.32
-52.12
-59.02
-67.25
-76.47
-85.68
-93.32
-97.42
-96.11
-88.24
-73.98
-55.04
-34.27
-14.81
0.85
11.51
17.37
19.46
19.05
17.19
14.51
11.45
8.42
5.91
4.35
3.96
4.66
6.02
7.57
8.81
9.53
9.70
9.43
8.83
7.93
6.62
4.83
2.57
-0.05
-2.86
-5.78
-8.95
-12.69
-17.44
-23.57
-31.17
-39.93
-49.14
-57.82
-65.10
-70.58
-74.53
-77.89
-81.96
-87.93
-96.14
-105.71
-114.36
-118.96
-116.37
-104.66
-83.86
-56.31
-26.03
2.51
25.68
41.78
51.12
55.39
56.55
56.05
54.53
52.17
49.27
46.48
44.78
44.91
46.97
50.27
53.67
56.05
56.83
56.10
54.42
52.49
50.72
49.11
47.20
44.28
39.67
33.04
24.57
14.94
5.14
-3.91
-11.67
-18.10
-23.63
-28.91
-34.67
-41.53
-49.93
-59.99
-71.25
-82.51
-91.80
-96.71
-95.06
-85.74
-69.19
-47.47
-23.62
-0.79
18.62
33.39
43.48
49.59
52.62
53.35
52.35
50.08
47.10
44.05
41.64
40.33
40.26
41.15
42.40
43.38
43.61
42.88
41.18
38.67
35.45
31.66
27.44
22.89
18.06
12.76
6.68
-0.49
-8.75
-17.69
-26.50
-34.39
-40.91
-46.26
-51.19
-56.65
-63.56
-72.46
-83.46
-95.99
-108.74
-119.49
-125.35
-123.64
-112.74
-93.08
-67.18
-39.02
-12.69
8.85
24.48
34.79
41.27
45.37
47.91
49.06
48.68
46.91
44.34
41.91
40.54
40.64
41.97
43.72
45.01
45.17
44.07
41.96
39.23
36.11
32.55
28.40
23.57
18.26
12.87
7.79
3.13
-1.41
-6.29
-11.91
-18.28
-25.04
-31.60
-37.53
-42.77
-47.77
-53.35
-60.47
-69.89
-81.75
-95.28
-108.48
-118.30
-121.37
-115.04
-98.57
-73.55
-43.72
-13.64
12.67
32.90
46.67
55.08
59.75
62.11
62.96
62.66
61.41
59.57
57.64
56.13
55.33
55.18
55.28
55.15
54.40
52.89
50.69
47.98
44.83
41.26
37.19
32.60
27.53
22.06
16.15
9.67
2.48
-5.40
-13.68
-21.83
-29.28
-35.67
-41.08
-45.97
-51.08
-57.23
-65.19
-75.35
-87.53
-100.51
-111.88
-118.33
-116.56
-104.55
-82.58
-53.43
-21.57
8.36
32.91
50.60
61.71
67.46
69.15
67.70
63.77
58.04
51.64
45.89
42.03
40.62
41.33
43.05
44.41
44.33
42.46
39.26
35.68
32.57
30.14
27.85
24.59
19.29
11.48
1.51
-9.50
-20.11
-29.11
-35.91
-40.72
-44.39
-48.17
-53.39
-61.12
-71.90
-85.42
-100.12
-113.22
-121.07
-120.19
-108.52
-86.40
-56.71
-24.12
6.48
31.49
49.38
60.70
67.09
70.27
71.26
70.36
67.54
63.06
57.71
52.64
48.94
47.20
47.26
48.24
49.07
48.83
47.11
44.13
40.45
36.70
33.18
29.77
25.86
20.71
13.77
5.03
-4.85
-14.81
-23.81
-31.30
-37.50
-43.21
-49.45
-57.14
-66.82
-78.71
-92.57
-107.59
-121.95
-132.74
-136.46
-130.10
-112.38
-84.67
-50.71
-15.52
16.20
41.36
58.98
69.75
75.19
76.90
76.06
73.54
70.00
66.11
62.51
59.71
58.02
57.42
57.64
58.32
58.98
59.31
59.13
58.38
56.97
54.74
51.46
46.92
41.10
34.26
26.89
19.51
12.52
5.94
-0.48
-7.11
-14.20
-21.72
-29.36
-36.67
-43.35
-49.40
-55.20
-61.49
-69.23
-79.26
-91.80
-105.85
-118.87
-127.09
-126.53
-114.55
-91.13
-59.24
-23.96
9.26
36.43
56.01
68.64
76.07
79.89
80.89
79.27
75.32
69.90
64.43
60.37
58.58
58.92
60.50
62.14
62.94
62.60
61.41
59.86
58.36
56.88
55.03
52.24
47.99
42.17
35.13
27.61
20.50
14.44
9.50
5.12
0.37
-5.61
-13.12
-21.75
-30.53
-38.39
-44.66
-49.37
-53.19
-57.20
-62.61
-70.41
-81.06
-94.16
-108.11
-120.07
-126.42
-123.84
-110.52
-87.07
-56.46
-23.17
8.26
34.46
53.82
66.33
72.93
74.88
73.32
69.34
63.97
58.35
53.49
50.20
48.76
48.97
50.20
51.59
52.46
52.49
51.74
50.52
49.10
47.43
45.08
41.46
36.19
29.34
21.57
13.81
6.93
1.32
-3.31
-7.65
-12.57
-18.57
-25.65
-33.23
-40.54
-46.90
-52.17
-56.79
-61.77
-68.28
-77.19
-88.51
-100.97
-112.01
-118.16
-116.12
-103.86
-81.58
-51.90
-19.22
11.68
37.03
54.99
65.70
70.52
71.13
68.88
64.63
59.10
53.25
48.21
44.99
44.01
44.87
46.53
47.83
48.00
46.95
45.12
43.09
41.18
39.24
36.72
32.97
27.67
20.96
13.43
5.92
-0.90
-6.77
-11.93
-16.90
-22.20
-28.11
-34.53
-41.12
-47.48
-53.38
-58.89
-64.40
-70.62
-78.44
-88.51
-100.76
-113.81
-124.91
-130.44
-127.01
-112.89
-88.84
-58.02
-25.09
5.36
30.13
47.94
59.27
65.49
68.08
68.08
66.15
62.87
58.96
55.33
52.77
51.70
51.92
52.75
53.36
53.18
52.23
50.95
49.93
49.36
48.83
47.46
44.34
39.06
31.99
24.20
16.97
11.20
7.00
3.64
-0.09
-5.30
-12.46
-21.16
-30.32
-38.68
-45.44
-50.60
-55.01
-59.97
-66.79
-76.28
-88.41
-101.94
-114.49
-122.78
-123.43
-114.03
-94.16
-65.87
-33.22
-1.03
26.56
47.19
60.54
67.71
70.36
69.94
67.40
63.46
58.82
54.30
50.74
48.66
48.09
48.58
49.43
50.04
50.15
49.82
49.25
48.47
47.24
45.09
41.60
36.68
30.64
24.12
17.69
11.70
6.07
0.43
-5.56
-12.03
-18.78
-25.42
-31.59
-37.12
-42.17
-47.11
-52.53
-59.09
-67.47
-78.09
-90.71
-103.94
-115.12
-120.72
-117.34
-103.15
-78.85
-47.76
-14.93
14.61
37.45
52.48
60.72
64.19
64.70
63.30
60.26
55.73
50.21
44.70
40.33
37.94
37.66
38.98
41.07
43.10
44.49
44.94
44.30
42.48
39.42
35.18
29.98
24.19
18.18
12.15
6.06
-0.34
-7.38
-15.17
-23.57
-32.15
-40.36
-47.80
-54.43
-60.58
-66.89
-74.17
-83.22
-94.46
-107.50
-120.73
-131.19
-135.18
-129.33
-112.01
-84.27
-49.78
-13.78
18.64
44.04
61.24
71.08
75.40
76.07
74.48
71.51
67.72
63.73
60.21
57.62
56.12
55.48
55.22
54.88
54.23
53.29
52.25
51.18
49.90
47.97
44.93
40.55
34.97
28.67
22.22
15.95
9.85
3.63
-3.07
-10.38
-18.10
-25.79
-32.99
-39.45
-45.28
-50.92
-57.11
-64.67
-74.32
-86.30
-99.85
-112.92
-122.22
-124.03
-115.44
-95.65
-66.60
-32.53
1.30
30.32
51.97
65.97
73.77
77.33
78.14
76.91
73.86
69.39
64.33
59.97
57.40
56.97
58.11
59.54
60.04
59.01
56.71
53.90
51.31
49.02
46.53
43.02
38.01
31.69
24.82
18.33
12.75
7.92
3.10
-2.68
-9.95
-18.57
-27.69
-36.19
-43.17
-48.38
-52.37
-56.22
-61.24
-68.54
-78.73
-91.54
-105.51
-117.90
-125.12
-123.60
-111.10
-87.81
-56.59
-22.32
9.72
35.50
53.20
63.26
67.42
67.72
65.66
62.08
57.50
52.42
47.57
43.77
41.62
41.18
42.11
43.60
44.77
44.89
43.57
40.82
37.02
32.68
28.33
24.21
20.23
16.06
11.26
5.51
-1.18
-8.49
-15.84
-22.71
-28.79
-34.14
-39.12
-44.15
-49.74
-56.39
-64.60
-74.75
-86.64
-99.00
-109.29
-114.07
-109.99
-95.29
-70.64
-39.29
-6.08
24.14
47.91
63.90
72.61
75.67
74.84
71.54
66.75
61.19
55.51
50.47
46.68
44.54
44.06
44.82
46.12
47.19
47.39
46.44
44.35
41.33
37.64
33.50
29.01
24.19
18.97
13.29
7.11
0.39
-6.91
-14.74
-22.98
-31.37
-39.49
-46.91
-53.42
-59.13
-64.61
-70.85
-79.00
-89.98
-103.74
-118.78
-132.08
-139.57
-137.48
-123.68
-98.79
-66.15
-30.81
2.10
28.99
48.45
61.04
68.30
71.81
72.67
71.60
69.20
66.20
63.40
61.39
60.41
60.27
60.53
60.70
60.52
59.90
58.91
57.68
56.21
54.38
51.81
48.11
42.97
36.45
28.99
21.31
14.10
7.70
1.85
-4.15
-11.07
-19.28
-28.49
-37.79
-46.10
-52.71
-57.74
-62.24
-67.85
-76.18
-88.04
-102.87
-118.41
-131.03
-136.69
-132.02
-115.64
-88.78
-55.07
-19.54
12.98
39.19
57.91
69.80
76.44
79.34
79.49
77.44
73.77
69.34
65.32
62.72
61.96
62.73
64.11
65.11
65.12
64.15
62.67
61.27
60.26
59.39
57.95
55.07
50.12
43.05
34.46
25.45
17.20
10.57
5.73
2.06
-1.64
-6.63
-13.73
-22.94
-33.40
-43.64
-52.26
-58.44
-62.32
-64.98
-68.14
-73.58
-82.60
-95.47
-111.08
-126.84
-138.98
-143.44
-137.06
-118.77
-90.16
-55.22
-19.07
13.50
39.36
57.49
68.57
74.11
75.60
74.12
70.50
65.58
60.46
56.23
53.69
52.99
53.57
54.55
55.14
55.06
54.51
53.85
53.18
52.11
49.93
45.98
40.08
32.70
24.77
17.24
10.69
5.20
0.35
-4.52
-9.98
-16.27
-23.29
-30.62
-37.71
-44.14
-49.83
-55.12
-60.81
-67.97
-77.48
-89.48
-102.80
-114.74
-121.45
-119.07
-105.21
-80.08
-46.85
-10.77
22.48
48.58
65.63
74.19
76.32
74.45
70.47
65.45
59.90
54.24
49.01
44.85
42.31
41.57
42.43
44.31
46.47
48.20
48.95
48.34
46.23
42.72
38.04
32.52
26.54
20.30
13.87
7.14
-0.08
-7.91
-16.35
-25.22
-34.16
-42.77
-50.73
-57.81
-64.18
-70.38
-77.34
-86.13
-97.53
-111.39
-126.23
-139.06
-145.95
-143.14
-128.47
-102.36
-68.08
-30.75
4.24
32.78
53.09
65.59
72.11
74.67
74.78
73.27
70.53
67.03
63.46
60.64
59.18
59.15
60.17
61.50
62.42
62.44
61.35
59.23
56.19
52.35
47.73
42.30
36.03
28.98
21.29
13.18
4.93
-3.21
-11.08
-18.59
-25.81
-32.81
-39.76
-46.85
-54.33
-62.62
-72.36
-84.09
-97.83
-112.38
-125.05
-132.01
-129.36
-114.66
-88.18
-53.13
-14.82
21.18
50.77
72.37
86.68
95.59
100.94
103.66
103.92
101.70
97.54
92.70
88.89
87.49
88.89
92.28
95.98
98.18
97.66
94.18
88.43
81.56
74.72
68.50
62.84
57.03
50.18
41.50
30.66
17.95
4.09
-9.97
-23.35
-35.57
-46.60
-56.81
-66.82
-77.39
-89.19
-102.74
-117.97
-133.98
-148.78
-159.55
-163.18
-157.25
-141.06
-115.94
-85.19
-53.07
-23.54
0.76
18.86
31.20
38.77
42.49
42.92
40.41
35.64
29.92
24.97
22.33
22.70
25.53
29.33
32.36
33.41
32.24
29.52
26.22
23.06
20.09
16.76
12.20
5.79
-2.56
-12.27
-22.30
-31.61
-39.44
-45.65
-50.80
-55.94
-62.31
-71.07
-82.96
-97.91
-114.74
-130.83
-142.48
-145.61
-137.13
-116.15
-84.73
-47.37
-9.69
23.41
49.04
66.71
77.75
84.06
87.28
88.19
87.00
83.86
79.25
74.02
69.20
65.59
63.55
62.89
63.01
63.06
62.16
59.71
55.53
49.95
43.72
37.63
32.08
26.93
21.43
14.71
6.19
-3.95
-14.81
-25.18
-34.10
-41.29
-47.19
-52.83
-59.33
-67.71
-78.74
-92.75
-109.27
-126.57
-141.49
-149.71
-147.07
-130.99
-101.88
-63.44
-21.65
17.13
48.13
69.41
81.77
87.68
89.79
89.98
89.03
87.07
84.20
80.90
77.89
75.79
74.79
74.46
74.07
73.06
71.37
69.40
67.66
66.28
64.70
61.86
56.71
48.87
39.01
28.66
19.53
12.68
8.00
4.16
-0.66
-7.90
-17.98
-30.11
-42.64
-53.87
-62.70
-69.00
-73.69
-78.37
-84.85
-94.54
-107.85
-123.65
-139.00
-149.63
-150.99
-139.80
-115.47
-80.59
-40.31
-0.75
32.89
57.70
73.35
81.44
84.25
83.81
81.37
77.69
73.42
69.31
66.08
64.21
63.60
63.64
63.61
63.05
61.92
60.63
59.54
58.63
57.41
55.07
50.93
44.80
37.09
28.62
20.19
12.29
4.90
-2.32
-9.79
-17.74
-26.08
-34.46
-42.36
-49.35
-55.22
-60.22
-65.09
-71.11
-79.70
-91.78
-106.96
-122.92
-135.58
-140.14
-132.76
-112.15
-80.42
-42.46
-4.36
28.61
53.39
69.50
78.35
81.99
82.16
79.88
75.67
70.05
63.82
58.00
53.52
50.98
50.34
51.04
52.23
53.04
52.83
51.30
48.51
44.73
40.36
35.64
30.60
25.04
18.64
11.16
2.55
-6.87
-16.58
-25.94
-34.48
-41.95
-48.46
-54.39
-60.33
-67.07
-75.51
-86.55
-100.68
-117.37
-134.44
-148.02
-153.32
-146.18
-124.87
-91.16
-50.07
-8.30
28.08
55.43
73.20
83.18
88.09
90.14
90.38
89.01
86.00
81.72
77.03
73.00
70.42
69.42
69.47
69.61
68.93
66.91
63.56
59.28
54.50
49.49
44.20
38.39
31.88
24.65
16.76
8.32
-0.63
-9.96
-19.38
-28.42
-36.56
-43.54
-49.53
-55.25
-61.73
-70.02
-80.96
-94.82
-110.92
-127.28
-140.55
-146.54
-141.43
-123.29
-93.19
-55.28
-15.56
20.10
47.81
66.46
77.29
82.66
84.65
84.38
82.15
78.03
72.47
66.50
61.44
58.31
57.39
58.09
59.24
59.60
58.44
55.71
51.86
47.59
43.40
39.41
35.29
30.43
24.22
16.31
6.76
-3.85
-14.64
-24.64
-33.14
-39.94
-45.41
-50.33
-55.70
-62.48
-71.52
-83.34
-97.79
-113.49
-127.64
-136.22
-135.10
-121.61
-95.89
-61.16
-22.89
13.10
42.50
63.46
76.37
82.80
84.36
82.06
76.59
68.79
60.09
52.32
47.14
45.30
46.33
48.74
50.63
50.49
47.74
42.89
37.18
32.01
28.25
25.82
23.68
20.27
14.27
5.18
-6.32
-18.70
-30.19
-39.49
-46.38
-51.61
-56.63
-62.95
-71.77
-83.65
-98.23
-114.11
-128.58
-137.91
-138.21
-126.66
-102.84
-69.24
-30.82
6.62
38.25
61.52
76.36
84.40
87.68
87.73
85.26
80.64
74.43
67.74
61.97
58.29
57.09
57.82
59.17
59.69
58.28
54.66
49.31
43.19
37.24
31.98
27.33
22.60
16.84
9.28
-0.30
-11.43
-23.06
-33.94
-43.11
-50.18
-55.45
-59.83
-64.57
-70.99
-80.19
-92.76
-108.22
-124.69
-138.80
-146.23
-143.08
-127.25
-99.48
-63.43
-24.56
11.64
41.18
62.46
76.06
83.77
87.52
88.69
87.95
85.61
81.97
77.58
73.15
69.31
66.43
64.52
63.32
62.45
61.63
60.74
59.63
58.06
55.56
51.63
45.93
38.62
30.38
22.10
14.49
7.73
1.41
-5.22
-12.72
-21.19
-30.23
-39.13
-47.24
-54.27
-60.40
-66.23
-72.71
-80.92
-91.75
-105.26
-120.13
-133.37
-140.74
-137.96
-122.38
-94.34
-57.43
-17.53
19.18
48.19
67.72
78.61
83.20
83.90
82.32
79.18
74.80
69.68
64.72
60.96
58.98
58.62
59.04
59.20
58.42
56.65
54.35
52.01
49.77
47.30
43.99
39.38
33.52
26.90
20.21
13.91
7.99
2.03
-4.47
-11.85
-20.04
-28.58
-36.81
-44.12
-50.18
-55.18
-59.89
-65.53
-73.44
-84.53
-98.56
-113.65
-126.35
-132.35
-127.97
-111.52
-84.21
-49.97
-14.21
17.90
42.94
59.90
69.72
74.26
75.20
73.51
69.59
63.84
57.04
50.48
45.54
43.16
43.47
45.66
48.32
49.88
49.29
46.33
41.57
36.09
30.96
26.62
22.81
18.63
13.07
5.55
-3.85
-14.31
-24.62
-33.67
-40.79
-45.93
-49.73
-53.34
-58.15
-65.51
-76.14
-89.83
-104.90
-118.33
-126.33
-125.42
-113.58
-91.09
-60.66
-26.67
6.07
33.72
54.21
67.42
74.57
77.41
77.47
75.68
72.54
68.38
63.65
59.07
55.44
53.29
52.66
53.04
53.58
53.48
52.31
50.08
47.06
43.49
39.46
34.85
29.54
23.59
17.21
10.66
3.99
-3.02
-10.68
-19.11
-28.05
-36.89
-44.94
-51.80
-57.55
-62.81
-68.57
-75.90
-85.67
-98.00
-111.86
-124.73
-132.87
-132.38
-120.50
-96.98
-64.49
-27.96
7.04
36.11
57.13
70.39
77.63
80.87
81.53
80.22
77.17
72.80
67.96
63.83
61.36
60.89
61.93
63.45
64.36
63.98
62.41
60.29
58.33
56.86
55.57
53.62
50.16
44.92
38.40
31.73
26.15
22.38
20.26
18.83
16.73
12.85
6.83
-0.94
-9.49
-17.76
-25.11
-31.45
-37.30
-43.56
-51.08
-60.34
-71.11
-82.20
-91.58
-96.79
-95.70
-87.25
-72.08
-52.36
-31.31
-12.13
3.01
13.33
19.37
22.32
23.35
23.13
21.95
19.99
17.64
15.59
14.58
14.99
16.66
18.93
20.98
22.32
22.90
23.09
23.23
23.21
22.53
20.47
16.59
11.08
4.78
-1.22
-6.06
-9.60
-12.47
-15.68
-20.11
-25.98
-32.70
-39.21
-44.47
-48.01
-50.20
-52.11
-55.11
-60.38
-68.60
-79.59
-92.11
-103.77
-111.31
-111.28
-101.22
-80.70
-51.87
-18.99
12.88
39.48
58.53
69.90
74.98
75.60
73.19
68.59
62.39
55.24
48.18
42.30
38.42
36.79
37.05
38.38
39.83
40.57
40.04
38.05
34.72
30.53
26.08
21.83
17.95
14.08
9.53
3.65
-3.83
-12.53
-21.61
-30.05
-37.13
-42.66
-47.00
-50.89
-55.32
-61.31
-69.74
-81.02
-94.71
-109.18
-121.50
-127.94
-125.06
-111.02
-86.42
-54.45
-19.97
12.02
37.78
55.73
66.25
71.00
71.89
70.39
67.34
63.22
58.53
53.95
50.28
48.14
47.67
48.51
49.95
51.15
51.49
50.65
48.63
45.63
41.89
37.63
32.99
28.07
22.94
17.55
11.75
5.31
-1.94
-10.04
-18.77
-27.68
-36.18
-43.74
-50.06
-55.28
-60.11
-65.70
-73.39
-84.21
-98.10
-113.50
-127.19
-134.94
-132.83
-118.74
-93.30
-59.91
-23.70
10.10
37.66
57.34
69.51
75.68
77.60
76.64
73.71
69.57
65.07
61.21
58.81
58.25
59.20
60.80
62.04
62.25
61.30
59.61
57.62
55.49
52.93
49.35
44.32
37.88
30.61
23.36
16.77
11.00
5.60
-0.22
-7.10
-15.25
-24.30
-33.51
-42.04
-49.35
-55.36
-60.56
-65.90
-72.58
-81.73
-93.88
-108.40
-123.08
-134.24
-137.66
-129.98
-110.12
-80.04
-44.29
-8.51
22.36
45.52
60.57
68.90
72.47
72.82
70.84
66.98
61.77
56.12
51.16
47.91
46.81
47.58
49.29
50.77
51.08
49.78
47.00
43.30
39.31
35.40
31.60
27.59
22.87
17.00
9.78
1.41
-7.54
-16.24
-23.97
-30.34
-35.53
-40.19
-45.18
-51.30
-59.06
-68.73
-80.25
-93.06
-105.76
-115.82
-119.94
-114.95
-99.15
-73.35
-40.94
-6.99
23.57
47.35
63.29
72.19
75.68
75.18
71.46
64.96
56.35
46.93
38.54
32.94
30.96
32.18
35.05
37.58
38.25
36.61
33.35
29.69
26.60
24.19
21.68
17.77
11.46
2.56
-8.18
-19.36
-29.50
-37.70
-43.88
-48.72
-53.43
-59.35
-67.69
-79.26
-94.01
-110.65
-126.40
-137.28
-139.08
-128.90
-106.37
-74.20
-37.38
-1.60
28.54
50.73
65.06
73.13
76.81
77.43
75.52
71.35
65.46
59.02
53.57
50.44
50.11
51.89
54.25
55.43
54.28
50.63
45.27
39.51
34.36
30.13
26.26
21.74
15.53
7.17
-3.10
-14.37
-25.41
-35.17
-43.11
-49.40
-54.84
-60.64
-68.11
-78.38
-92.04
-108.67
-126.49
-142.22
-151.59
-150.52
-136.57
-110.09
-74.48
-35.17
2.07
32.90
55.50
70.38
79.38
84.44
86.82
86.99
85.12
81.65
77.51
73.86
71.71
71.39
72.46
73.93
74.73
74.10
71.86
68.29
63.96
59.39
54.85
50.29
45.43
39.87
33.22
25.27
16.06
5.93
-4.59
-14.93
-24.68
-33.73
-42.20
-50.46
-58.90
-68.01
-78.39
-90.74
-105.45
-122.07
-138.60
-151.42
-156.03
-148.57
-127.52
-94.68
-54.84
-14.25
21.43
48.81
67.29
78.37
84.30
86.92
87.09
84.99
80.79
75.14
69.24
64.53
62.12
62.28
64.40
67.18
69.21
69.42
67.40
63.49
58.46
53.18
48.14
43.26
37.93
31.39
23.12
13.25
2.49
-8.13
-17.79
-26.23
-33.72
-40.87
-48.25
-56.32
-65.43
-76.02
-88.52
-102.97
-118.20
-131.42
-138.57
-135.46
-119.56
-91.35
-54.60
-15.23
20.65
48.80
67.76
78.56
83.40
84.27
82.20
77.52
70.55
62.31
54.62
49.40
47.89
50.02
54.44
59.04
61.87
61.75
58.67
53.50
47.52
41.82
36.87
32.35
27.34
20.80
12.01
1.05
-11.18
-23.28
-33.90
-42.29
-48.65
-53.99
-59.80
-67.57
-78.37
-92.55
-109.26
-126.23
-139.79
-145.48
-139.34
-119.47
-87.04
-46.34
-3.43
35.80
67.44
90.40
105.89
116.11
122.94
127.17
128.74
127.36
123.33
117.75
112.22
108.23
106.58
107.04
108.47
109.28
107.85
103.00
94.18
81.55
65.85
48.26
30.16
12.86
-2.74
-16.37
-28.38
-39.52
-50.44
-61.46
-72.31
-82.46
-91.43
-99.13
-106.08
-113.16
-121.42
-131.74
-144.58
-159.60
-175.32
-188.83
-196.07
-192.91
-176.53
-146.82
-106.86
-62.15
-18.95
17.80
45.63
64.75
76.96
84.38
88.48
89.93
89.07
86.41
82.98
79.96
78.26
78.05
78.86
79.78
80.07
79.49
78.24
76.72
75.04
72.88
69.62
64.76
58.16
50.25
41.85
33.66
25.95
18.42
10.39
1.24
-9.13
-20.20
-31.01
-40.61
-48.57
-55.15
-61.27
-68.28
-77.53
-90.00
-105.68
-123.11
-139.10
-149.24
-148.97
-135.38
-108.53
-71.83
-31.16
7.19
38.48
60.77
74.76
82.60
86.49
87.70
86.63
83.28
78.14
72.34
67.47
64.81
64.79
66.76
69.23
70.62
69.85
66.69
61.72
55.91
50.14
44.86
40.05
35.28
30.03
23.81
16.35
7.63
-2.06
-12.06
-21.56
-29.81
-36.44
-41.71
-46.42
-51.72
-58.72
-68.25
-80.54
-94.98
-109.84
-122.18
-128.29
-124.69
-109.39
-83.01
-48.95
-12.45
21.08
47.75
66.06
76.64
81.22
81.54
78.73
73.39
66.16
58.05
50.54
45.12
42.73
43.38
46.12
49.39
51.62
51.80
49.71
45.81
40.93
35.78
30.71
25.60
20.07
13.65
6.02
-2.81
-12.50
-22.46
-31.94
-40.29
-47.18
-52.73
-57.54
-62.55
-68.82
-77.29
-88.55
-102.51
-117.99
-132.43
-142.08
-142.86
-131.78
-108.34
-75.10
-37.12
-0.31
30.51
52.96
67.22
75.22
79.21
80.78
80.59
78.71
75.32
70.98
66.66
63.33
61.55
61.31
62.07
63.07
63.64
63.30
61.79
59.00
54.84
49.33
42.60
35.04
27.13
19.34
11.92
4.79
-2.41
-10.02
-18.18
-26.69
-35.05
-42.70
-49.36
-55.11
-60.53
-66.55
-74.26
-84.50
-97.33
-111.49
-124.28
-131.85
-130.33
-117.19
-92.49
-59.16
-22.34
12.27
40.25
59.53
70.57
75.42
76.48
75.47
73.23
69.91
65.66
60.96
56.64
53.47
51.87
51.60
51.99
52.22
51.76
50.47
48.49
46.02
43.11
39.63
35.37
30.30
24.48
18.08
11.16
3.67
-4.44
-13.04
-21.69
-29.78
-36.74
-42.39
-46.99
-51.25
-56.14
-62.67
-71.70
-83.61
-97.88
-112.69
-124.82
-130.23
-125.25
-108.13
-80.00
-44.88
-8.50
23.58
47.70
62.83
70.27
72.29
70.97
67.51
62.39
55.97
49.07
42.98
39.03
37.84
38.99
41.14
42.62
42.29
39.94
36.28
32.40
29.17
26.66
24.16
20.52
14.77
6.62
-3.27
-13.61
-22.91
-30.16
-35.10
-38.43
-41.54
-46.13
-53.66
-64.97
-79.72
-96.14
-111.11
-120.59
-120.82
-109.51
-86.89
-55.93
-21.52
11.12
37.96
57.17
69.05
75.20
77.39
76.72
73.65
68.33
61.20
53.39
46.36
41.49
39.46
39.92
41.65
43.04
42.72
40.08
35.42
29.68
23.99
19.09
15.04
11.23
6.66
0.48
-7.57
-16.99
-26.73
-35.59
-42.72
-48.00
-52.08
-56.11
-61.37
-68.97
-79.56
-93.06
-108.38
-123.16
-133.91
-136.71
-128.43
-108.13
-77.73
-41.69
-5.66
25.45
48.82
64.11
72.86
77.20
78.81
78.52
76.52
72.99
68.47
63.87
60.16
57.99
57.34
57.61
57.86
57.24
55.24
51.84
47.35
42.26
37.00
31.76
26.57
21.20
15.40
8.95
1.84
-5.80
-13.61
-21.18
-28.19
-34.46
-40.09
-45.37
-50.80
-57.02
-64.76
-74.74
-87.26
-101.72
-116.00
-126.60
-129.35
-120.89
-100.18
-69.33
-33.19
2.28
32.03
53.44
66.58
73.31
75.96
76.14
74.55
71.37
66.95
62.00
57.58
54.49
53.01
52.74
52.88
52.60
51.36
49.03
45.84
42.18
38.44
34.89
31.53
28.08
24.07
18.94
12.33
4.17
-5.13
-14.83
-24.06
-32.13
-38.66
-43.73
-47.83
-51.76
-56.46
-62.91
-71.95
-83.80
-97.51
-110.69
-119.63
-120.34
-109.95
-88.04
-57.07
-21.73
12.53
41.31
62.26
75.24
81.55
82.90
80.60
75.53
68.41
60.25
52.55
46.92
44.54
45.57
49.06
53.25
56.31
57.14
55.72
52.95
50.13
48.18
47.21
46.43
44.61
40.68
34.35
26.28
17.87
10.65
5.55
2.55
0.71
-1.41
-5.19
-11.63
-21.24
-34.01
-49.31
-65.53
-79.91
-88.85
-89.00
-78.56
-58.39
-32.16
-5.16
17.46
32.48
39.27
39.43
35.50
29.79
23.52
16.97
10.03
2.77
-4.25
-10.15
-14.15
-15.99
-16.07
-15.32
-14.80
-15.25
-16.75
-18.73
-20.31
-20.74
-19.87
-18.32
-17.27
-18.04
-21.46
-27.55
-35.41
-43.63
-50.83
-56.17
-59.67
-62.01
-64.36
-67.90
-73.64
-82.22
-93.75
-107.46
-121.46
-132.64
-137.22
-131.79
-114.67
-86.86
-51.99
-15.29
17.98
44.18
62.03
72.43
77.49
79.34
79.45
78.36
76.19
73.08
69.52
66.30
64.19
63.53
64.03
64.92
65.27
64.37
61.98
58.28
53.70
48.59
43.18
37.54
31.66
25.51
19.05
12.17
4.74
-3.38
-12.14
-21.23
-30.14
-38.20
-45.02
-50.61
-55.54
-60.87
-67.94
-77.86
-90.96
-106.25
-121.08
-131.46
-133.05
-122.70
-99.74
-66.67
-28.48
8.94
40.64
63.96
78.74
86.46
89.08
88.12
84.45
78.62
71.45
64.12
58.00
54.11
52.77
53.43
55.01
56.29
56.40
54.98
52.13
48.28
43.82
38.97
33.76
28.01
21.47
13.97
5.50
-3.79
-13.47
-22.94
-31.50
-38.59
-44.02
-48.11
-51.67
-55.87
-61.90
-70.69
-82.57
-96.87
-111.63
-123.65
-128.97
-124.03
-106.98
-78.63
-42.53
-4.07
31.28
59.53
78.97
90.12
94.70
94.57
91.16
85.43
78.20
70.56
63.83
59.22
57.38
58.18
60.80
64.05
66.81
68.35
68.36
66.84
63.97
60.05
55.46
50.54
45.52
40.35
34.78
28.56
21.55
13.88
5.78
-2.63
-11.53
-21.40
-32.84
-46.35
-62.18
-80.34
-100.49
-121.71
-142.20
-159.05
-168.58
-167.33
-153.44
-127.63
-93.43
-56.19
-21.49
6.63
26.53
38.94
45.91
49.63
51.46
51.83
50.62
47.87
44.28
41.12
39.72
40.84
44.17
48.43
51.88
53.08
51.43
47.38
41.95
36.26
31.02
26.18
21.21
15.36
8.12
-0.59
-10.31
-20.25
-29.57
-37.61
-44.16
-49.52
-54.45
-59.92
-67.07
-76.85
-89.73
-105.26
-121.59
-135.43
-142.52
-138.81
-122.07
-92.96
-55.24
-14.64
22.92
53.21
74.45
87.16
93.12
94.19
91.77
86.83
80.37
73.64
67.94
64.22
62.67
62.69
63.26
63.43
62.66
60.91
58.44
55.59
52.51
49.16
45.34
40.83
35.50
29.37
22.52
15.01
6.84
-2.01
-11.42
-21.03
-30.29
-38.59
-45.64
-51.64
-57.36
-63.93
-72.52
-83.90
-98.03
-113.76
-128.64
-139.14
-141.32
-132.08
-110.42
-78.19
-39.81
-0.98
33.10
59.18
76.42
85.84
89.23
88.20
83.76
76.66
67.84
58.74
51.11
46.42
45.16
46.64
49.19
50.88
50.27
47.02
41.90
36.33
31.61
28.21
25.53
22.26
17.04
9.18
-0.94
-12.00
-22.40
-30.92
-37.23
-41.93
-46.28
-51.67
-59.25
-69.69
-83.05
-98.48
-113.91
-126.14
-131.21
-125.70
-108.00
-79.30
-43.50
-6.08
27.70
54.31
72.62
83.43
88.28
88.53
84.94
78.07
68.81
58.77
49.98
44.17
42.06
42.99
45.26
46.87
46.37
43.45
38.90
34.10
30.20
27.52
25.26
21.88
15.84
6.24
-6.58
-21.12
-35.32
-47.30
-56.10
-61.92
-66.02
-70.21
-76.37
-85.99
-99.64
-116.56
-134.26
-148.69
-155.09
-149.40
-129.84
-97.87
-57.99
-16.38
21.10
50.61
70.96
83.18
89.27
91.08
89.72
85.78
79.89
73.14
67.11
63.24
62.22
63.50
65.46
66.17
64.28
59.70
53.52
47.41
42.72
39.65
37.25
33.77
27.67
18.31
6.38
-6.53
-18.49
-28.13
-35.10
-40.16
-44.83
-50.91
-59.93
-72.80
-89.46
-108.55
-127.24
-141.47
-146.77
-139.69
-119.11
-86.99
-48.02
-8.24
26.86
53.83
71.82
82.03
86.52
87.13
84.95
80.56
74.55
67.95
62.16
58.38
57.22
58.22
60.09
61.28
60.60
57.71
53.19
48.09
43.46
39.75
36.58
32.89
27.46
19.46
8.92
-3.17
-15.25
-25.80
-33.98
-39.94
-44.65
-49.62
-56.35
-66.01
-79.16
-95.28
-112.46
-127.30
-135.53
-133.14
-117.92
-90.56
-54.70
-15.91
20.15
49.31
69.73
81.67
86.57
86.09
81.64
74.38
65.59
56.86
49.83
45.80
45.09
46.90
49.50
50.99
50.11
46.73
41.82
36.73
32.49
29.09
25.55
20.45
12.74
2.44
-9.31
-20.71
-30.20
-37.16
-42.09
-46.45
-52.06
-60.50
-72.73
-88.66
-106.87
-124.45
-137.23
-140.72
-131.52
-108.76
-74.82
-34.86
4.80
38.66
63.67
79.57
88.09
91.50
91.52
88.85
83.74
76.68
68.82
61.91
57.55
56.45
58.08
60.85
62.86
62.65
59.78
54.81
48.88
43.08
37.95
33.31
28.37
22.12
13.77
3.18
-9.02
-21.56
-32.99
-42.23
-49.00
-53.95
-58.53
-64.43
-73.21
-85.74
-101.88
-120.20
-137.69
-150.20
-153.22
-143.36
-119.72
-84.66
-43.28
-1.87
34.05
61.34
79.53
90.11
95.22
96.54
94.99
91.00
85.13
78.44
72.34
68.09
66.28
66.55
67.78
68.53
67.74
65.09
61.00
56.31
51.82
47.87
44.21
40.15
34.88
27.81
18.83
8.27
-3.03
-14.07
-23.93
-32.06
-38.48
-43.76
-48.87
-54.85
-62.66
-73.02
-86.18
-101.48
-116.99
-129.36
-134.46
-128.61
-110.15
-80.41
-43.59
-5.52
28.34
54.51
72.08
82.18
86.71
87.25
84.62
79.22
71.72
63.44
56.19
51.66
50.65
52.71
56.23
59.10
59.56
56.83
51.39
44.57
37.96
32.65
28.85
25.81
22.35
17.34
10.29
1.47
-8.25
-17.75
-26.10
-32.89
-38.30
-42.97
-47.91
-54.30
-63.18
-75.12
-89.68
-105.03
-117.91
-124.35
-120.75
-105.37
-79.12
-45.64
-10.23
21.95
47.33
64.72
74.87
79.48
80.07
77.44
71.98
64.22
55.39
47.25
41.59
39.43
40.57
43.66
46.81
48.36
47.42
44.11
39.30
34.06
29.20
24.81
20.32
14.71
7.11
-2.75
-14.17
-25.71
-35.79
-43.38
-48.56
-52.42
-56.64
-62.74
-71.66
-83.54
-97.70
-112.62
-125.87
-134.27
-134.40
-123.74
-101.66
-70.21
-33.68
2.58
33.87
57.38
72.61
80.80
83.86
83.47
80.66
75.96
69.84
63.00
56.51
51.51
48.72
48.24
49.37
50.97
51.91
51.42
49.29
45.83
41.58
37.00
32.32
27.45
22.10
15.95
8.87
0.94
-7.51
-16.04
-24.22
-31.77
-38.59
-44.76
-50.58
-56.48
-63.12
-71.27
-81.56
-94.04
-107.59
-119.71
-126.83
-125.28
-112.64
-88.86
-56.65
-20.75
13.52
41.93
62.41
75.07
81.46
83.49
82.58
79.52
74.81
69.03
63.08
57.99
54.47
52.75
52.39
52.61
52.53
51.58
49.52
46.50
42.89
39.09
35.39
31.83
28.12
23.70
18.07
10.97
2.57
-6.51
-15.52
-23.83
-31.11
-37.43
-43.06
-48.39
-53.94
-60.31
-68.22
-78.30
-90.54
-103.77
-115.43
-121.95
-119.84
-106.99
-83.76
-53.05
-19.56
11.79
37.25
55.21
66.05
71.31
72.68
71.23
67.42
61.50
54.08
46.40
40.05
36.42
36.05
38.36
41.84
44.65
45.28
43.12
38.52
32.53
26.41
21.09
16.77
12.94
8.62
2.95
-4.39
-12.92
-21.59
-29.21
-34.94
-38.76
-41.38
-44.01
-47.95
-54.22
-63.28
-74.82
-87.47
-98.78
-105.49
-104.31
-93.10
-71.85
-43.04
-11.07
19.19
43.85
61.06
70.91
74.73
74.07
70.03
63.31
54.62
45.22
36.85
31.26
29.46
31.20
34.97
38.58
40.11
38.67
34.59
29.12
23.73
19.38
16.14
13.25
9.58
4.17
-3.27
-12.28
-21.85
-30.82
-38.40
-44.30
-48.90
-53.04
-57.75
-64.02
-72.58
-83.72
-96.82
-110.20
-120.91
-125.38
-120.30
-104.14
-77.87
-45.09
-10.86
19.92
43.94
60.23
69.66
74.05
75.01
73.49
69.93
64.67
58.42
52.25
47.33
44.44
43.69
44.49
45.73
46.27
45.32
42.75
39.02
34.92
31.10
27.74
24.40
20.25
14.50
6.83
-2.35
-12.03
-21.00
-28.33
-33.81
-37.97
-41.89
-46.79
-53.71
-63.20
-75.22
-89.01
-102.89
-114.23
-119.73
-116.29
-102.07
-77.59
-45.92
-11.94
19.20
43.70
60.10
69.09
72.64
72.77
70.78
67.27
62.52
57.00
51.57
47.28
44.89
44.54
45.62
47.01
47.48
46.20
42.97
38.31
33.14
28.37
24.44
21.18
17.85
13.52
7.50
-0.26
-9.17
-18.22
-26.35
-32.88
-37.79
-41.66
-45.41
-50.03
-56.27
-64.66
-75.34
-87.84
-100.74
-111.47
-116.67
-113.14
-99.05
-75.05
-44.32
-11.70
17.94
41.17
56.76
65.34
68.48
67.65
63.89
57.93
50.69
43.44
37.64
34.35
33.77
35.14
37.04
38.07
37.46
35.29
32.32
29.51
27.42
25.81
23.76
20.05
13.80
4.95
-5.66
-16.51
-26.13
-33.54
-38.69
-42.41
-46.17
-51.52
-59.66
-71.02
-84.79
-98.84
-109.90
-114.29
-109.08
-93.14
-67.82
-36.67
-4.36
24.77
47.87
63.98
73.64
78.01
78.22
75.08
69.34
61.98
54.33
47.77
43.26
40.93
40.20
40.01
39.32
37.46
34.23
29.88
24.89
19.76
14.88
10.33
5.83
0.81
-5.25
-12.53
-20.67
-28.82
-36.04
-41.73
-45.97
-49.51
-53.43
-58.84
-66.54
-76.90
-89.72
-103.87
-117.19
-126.44
-128.08
-119.37
-99.53
-70.49
-36.50
-2.80
26.05
47.41
60.95
68.07
70.73
70.59
68.55
65.04
60.37
55.11
50.03
45.86
43.02
41.48
40.95
40.94
41.04
40.94
40.36
38.97
36.36
32.22
26.43
19.33
11.53
3.87
-3.04
-9.01
-14.28
-19.39
-24.83
-30.75
-36.90
-42.82
-48.05
-52.44
-56.30
-60.30
-65.46
-72.82
-83.12
-96.18
-110.41
-122.72
-129.12
-125.96
-111.31
-85.93
-53.20
-18.11
14.37
40.76
59.74
71.82
78.48
81.28
81.37
79.50
76.36
72.71
69.42
67.16
66.16
66.17
66.62
66.98
66.98
66.69
66.32
65.92
65.15
63.43
60.12
54.93
48.12
40.46
32.88
26.05
20.10
14.52
8.57
1.65
-6.35
-14.99
-23.51
-31.29
-38.11
-44.26
-50.52
-57.85
-67.14
-78.94
-93.03
-108.07
-121.51
-129.84
-129.49
-118.13
-95.74
-65.00
-30.58
2.34
29.73
49.59
62.08
68.65
71.00
70.43
67.67
63.16
57.55
51.80
46.99
44.01
43.22
44.39
46.85
49.70
52.09
53.34
53.06
51.14
47.79
43.38
38.33
32.92
27.14
20.74
13.34
4.80
-4.61
-14.15
-22.89
-30.12
-35.67
-40.14
-44.58
-50.10
-57.45
-66.92
-78.31
-91.03
-103.90
-115.01
-121.68
-120.87
-110.25
-89.28
-59.84
-26.03
7.03
34.91
55.13
67.53
73.70
75.80
75.58
74.01
71.45
68.19
64.70
61.64
59.52
58.48
58.14
57.91
57.31
56.25
55.01
53.94
53.11
52.14
50.26
46.78
41.38
34.40
26.71
19.31
12.85
7.34
2.18
-3.51
-10.45
-18.72
-27.74
-36.56
-44.26
-50.44
-55.40
-60.10
-65.84
-73.91
-85.03
-98.86
-113.57
-126.00
-132.23
-128.80
-114.01
-88.72
-56.35
-21.74
10.28
36.29
54.90
66.52
72.48
74.32
73.32
70.46
66.66
62.87
59.97
58.53
58.59
59.58
60.67
61.04
60.31
58.67
56.67
54.81
53.23
51.56
49.13
45.33
40.01
33.51
26.57
19.87
13.76
8.07
2.22
-4.45
-12.32
-21.23
-30.48
-39.01
-45.87
-50.75
-54.17
-57.47
-62.35
-70.20
-81.48
-95.16
-108.77
-118.74
-121.41
-114.12
-96.24
-69.57
-37.93
-5.98
22.17
43.98
58.76
67.23
70.75
70.68
68.12
64.05
59.48
55.43
52.65
51.38
51.24
51.56
51.67
51.36
50.84
50.58
50.84
51.39
51.45
50.09
46.58
40.87
33.59
25.85
18.71
12.82
8.14
4.09
-0.22
-5.60
-12.40
-20.47
-29.17
-37.61
-45.05
-51.09
-55.98
-60.59
-66.18
-73.92
-84.20
-96.05
-106.93
-113.23
-111.38
-99.29
-77.31
-48.40
-17.13
11.80
35.03
51.20
60.72
64.91
65.09
62.15
56.71
49.60
42.06
35.68
31.87
31.29
33.52
37.22
40.65
42.37
41.70
38.92
34.93
30.79
27.16
24.03
20.72
16.28
9.94
1.58
-8.17
-18.07
-26.86
-33.77
-38.88
-42.97
-47.17
-52.47
-59.54
-68.64
-79.68
-92.10
-104.48
-114.30
-118.23
-113.11
-97.27
-71.58
-39.54
-6.28
23.26
45.86
60.68
68.95
72.62
73.38
72.06
68.81
63.75
57.43
50.98
45.73
42.67
42.02
43.15
44.82
45.68
44.84
42.13
38.12
33.70
29.66
26.26
23.04
19.17
13.79
6.54
-2.27
-11.72
-20.69
-28.33
-34.33
-39.01
-43.06
-47.32
-52.50
-59.21
-67.94
-78.97
-92.03
-105.85
-117.96
-124.94
-123.37
-111.16
-88.52
-58.19
-24.74
7.02
33.36
52.59
64.93
71.73
74.58
74.69
72.76
69.33
65.05
60.74
57.29
55.23
54.59
54.89
55.41
55.57
55.08
54.02
52.59
50.85
48.62
45.52
41.20
35.64
29.10
22.15
15.31
8.84
2.64
-3.62
-10.30
-17.58
-25.35
-33.25
-40.80
-47.61
-53.61
-59.11
-64.96
-72.29
-82.08
-94.53
-108.35
-120.67
-127.46
-124.98
-111.17
-86.68
-54.90
-20.81
10.67
36.22
54.62
66.47
73.15
75.98
75.78
73.09
68.49
62.91
57.57
53.58
51.56
51.39
52.37
53.57
54.22
54.04
53.04
51.43
49.29
46.41
42.51
37.49
31.60
25.46
19.75
14.84
10.54
6.18
0.91
-5.83
-14.02
-22.99
-31.73
-39.25
-45.09
-49.47
-53.21
-57.53
-63.63
-72.39
-83.92
-97.21
-109.88
-118.33
-118.65
-107.88
-85.38
-53.43
-16.79
18.82
48.70
70.41
84.07
91.40
94.30
93.92
90.52
84.10
75.20
65.25
56.18
49.72
46.57
46.17
47.01
47.33
45.90
42.35
37.18
31.39
25.93
21.31
17.41
13.52
8.77
2.43
-5.65
-15.07
-24.92
-34.26
-42.35
-48.97
-54.30
-59.00
-63.96
-70.16
-78.52
-89.52
-102.76
-116.59
-128.03
-133.40
-129.38
-114.32
-89.06
-56.93
-22.72
8.74
34.10
52.02
62.97
68.36
69.65
67.85
63.61
57.60
50.82
44.56
40.01
37.83
37.94
39.59
41.68
43.21
43.50
42.31
39.68
35.82
30.97
25.36
19.20
12.76
6.31
0.06
-5.94
-11.90
-18.14
-24.95
-32.29
-39.82
-46.94
-53.16
-58.38
-63.11
-68.33
-75.29
-85.07
-98.03
-113.38
-128.76
-140.49
-144.34
-136.90
-116.92
-86.15
-48.98
-11.08
22.43
48.43
66.28
77.23
83.19
85.74
85.62
83.11
78.62
73.08
67.89
64.41
63.39
64.64
67.14
69.60
71.02
71.09
70.02
68.23
65.87
62.74
58.35
52.38
44.99
36.84
28.88
21.76
15.57
9.78
3.52
-3.86
-12.43
-21.62
-30.48
-38.23
-44.65
-50.17
-55.80
-62.75
-72.08
-84.40
-99.36
-115.40
-129.50
-137.66
-135.94
-122.01
-96.25
-62.03
-24.72
10.12
38.37
58.39
70.76
77.28
79.84
79.70
77.48
73.66
68.91
64.20
60.52
58.51
58.19
59.04
60.31
61.31
61.72
61.53
60.84
59.62
57.62
54.31
49.26
42.41
34.20
25.49
17.20
9.92
3.65
-2.17
-8.37
-15.54
-23.69
-32.31
-40.64
-48.09
-54.63
-60.89
-67.97
-77.11
-89.11
-103.80
-119.59
-133.34
-140.92
-138.39
-123.48
-96.68
-61.48
-23.33
12.11
40.67
60.62
72.47
77.94
78.88
76.50
71.51
64.55
56.64
49.28
44.05
41.98
43.06
46.23
49.76
51.92
51.71
49.17
45.14
40.85
37.13
34.04
30.83
26.32
19.61
10.51
-0.22
-11.22
-21.07
-28.94
-34.86
-39.63
-44.41
-50.25
-57.88
-67.67
-79.70
-93.53
-107.69
-119.50
-125.21
-121.11
-105.07
-77.73
-42.78
-5.79
27.63
53.65
71.13
81.20
85.93
87.16
85.74
81.79
75.46
67.44
59.15
52.34
48.40
47.71
49.57
52.51
54.89
55.54
54.01
50.55
45.80
40.39
34.76
28.93
22.69
15.62
7.44
-1.86
-11.84
-21.79
-30.94
-38.79
-45.30
-50.92
-56.38
-62.45
-69.87
-79.21
-90.84
-104.53
-119.01
-131.57
-138.40
-135.60
-120.71
-94.00
-58.78
-20.49
15.11
43.75
63.71
75.58
81.37
83.11
82.20
79.31
74.84
69.42
64.04
59.69
57.05
56.11
56.28
56.73
56.85
56.47
55.81
55.12
54.29
52.73
49.56
44.16
36.54
27.56
18.58
10.87
5.00
0.56
-3.54
-8.54
-15.22
-23.50
-32.61
-41.51
-49.37
-56.02
-61.89
-67.88
-75.13
-84.66
-96.91
-111.26
-125.61
-136.38
-139.39
-131.22
-110.71
-79.76
-42.92
-5.91
26.29
50.74
66.92
76.04
79.88
79.94
77.25
72.58
66.93
61.56
57.68
56.03
56.58
58.53
60.71
62.11
62.21
61.11
59.25
57.05
54.60
51.58
47.44
41.78
34.60
26.42
18.05
10.28
3.52
-2.33
-7.86
-13.76
-20.48
-28.00
-35.84
-43.23
-49.50
-54.40
-58.23
-61.86
-66.54
-73.52
-83.62
-96.66
-110.94
-123.31
-129.69
-126.32
-111.21
-85.09
-51.46
-15.53
17.40
43.57
61.54
71.92
76.41
76.75
74.14
69.26
62.76
55.63
49.18
44.72
43.05
44.11
46.96
50.19
52.38
52.53
50.41
46.42
41.45
36.34
31.63
27.30
22.81
17.48
10.80
2.76
-6.18
-15.22
-23.65
-31.00
-37.15
-42.33
-46.96
-51.61
-57.07
-64.17
-73.63
-85.63
-99.25
-112.21
-121.05
-122.00
-112.25
-91.19
-60.98
-26.03
8.29
37.35
58.46
71.17
76.83
77.52
75.17
71.12
66.17
60.88
55.73
51.23
47.85
45.83
45.15
45.52
46.48
47.48
48.00
47.67
46.20
43.47
39.49
34.37
28.38
21.85
15.08
8.28
1.44
-5.51
-12.69
-20.07
-27.47
-34.57
-41.12
-47.01
-52.41
-57.74
-63.64
-70.95
-80.47
-92.60
-106.71
-120.63
-130.76
-132.89
-123.69
-102.24
-70.72
-33.96
2.16
32.66
54.83
68.59
75.59
78.07
77.78
75.73
72.35
68.04
63.48
59.56
57.04
56.21
56.73
57.84
58.70
58.74
57.83
56.13
53.83
50.93
47.20
42.32
36.17
28.96
21.30
13.82
6.97
0.75
-5.24
-11.55
-18.53
-26.15
-34.02
-41.59
-48.42
-54.40
-59.87
-65.46
-71.99
-80.27
-90.66
-102.69
-114.56
-123.20
-124.96
-116.73
-97.38
-68.54
-34.35
-0.12
29.30
51.09
64.75
71.58
73.62
72.58
69.54
65.07
59.65
53.98
48.91
45.14
42.97
42.18
42.20
42.39
42.26
41.61
40.44
38.81
36.68
33.89
30.28
25.79
20.64
15.27
10.15
5.48
1.01
-3.90
-9.89
-17.24
-25.59
-34.02
-41.45
-47.16
-51.17
-54.31
-57.96
-63.55
-72.04
-83.36
-96.07
-107.29
-113.28
-110.48
-96.85
-72.94
-41.94
-8.92
21.00
44.17
59.25
67.00
69.19
67.55
63.15
56.59
48.46
39.90
32.46
27.62
26.17
27.85
31.44
35.23
37.70
38.00
36.14
32.84
29.14
25.90
23.39
21.17
18.20
13.42
6.18
-3.27
-13.87
-24.11
-32.66
-38.98
-43.47
-47.29
-51.82
-58.20
-67.06
-78.40
-91.50
-104.71
-115.39
-120.21
-115.98
-100.85
-75.40
-42.79
-7.96
23.92
49.13
66.29
76.14
80.52
81.27
79.52
75.71
70.07
63.19
56.11
50.11
46.30
45.10
46.15
48.43
50.56
51.36
50.13
46.86
42.05
36.46
30.70
25.07
19.48
13.66
7.28
0.14
-7.74
-16.16
-24.76
-33.09
-40.74
-47.49
-53.38
-58.79
-64.46
-71.34
-80.39
-92.15
-106.21
-120.71
-132.41
-137.27
-131.70
-114.13
-85.81
-50.68
-14.17
18.60
44.26
61.83
72.19
77.09
78.20
76.64
73.15
68.41
63.27
58.70
55.43
53.73
53.29
53.50
53.75
53.69
53.30
52.61
51.54
49.78
46.89
42.63
37.14
30.98
24.77
18.88
13.18
7.12
0.07
-8.17
-17.26
-26.39
-34.66
-41.55
-47.07
-51.78
-56.56
-62.44
-70.42
-81.15
-94.59
-109.40
-122.78
-130.75
-129.36
-116.12
-91.25
-57.96
-21.47
12.64
40.24
59.52
70.93
76.20
77.24
75.44
71.61
66.39
60.54
55.03
50.80
48.42
47.88
48.62
49.89
50.98
51.49
51.23
50.16
48.23
45.34
41.42
36.52
30.89
24.89
18.77
12.54
5.97
-1.37
-9.78
-19.06
-28.61
-37.49
-44.92
-50.62
-55.11
-59.53
-65.34
-73.84
-85.63
-100.24
-115.75
-128.91
-135.67
-132.34
-116.89
-89.98
-55.06
-17.50
17.10
44.54
63.04
73.19
76.98
76.63
73.65
68.80
62.41
55.07
47.95
42.59
40.27
41.37
45.01
49.29
52.07
51.93
48.67
43.27
37.30
32.02
27.80
24.06
19.61
13.39
5.04
-4.93
-15.33
-24.85
-32.68
-38.74
-43.73
-48.82
-55.24
-63.95
-75.50
-89.82
-105.98
-121.88
-134.24
-139.12
-133.03
-114.39
-84.41
-47.13
-8.26
26.65
53.81
72.08
82.44
86.93
87.38
84.88
79.86
72.75
64.48
56.54
50.55
47.64
47.91
50.36
53.29
54.94
54.16
50.76
45.36
39.02
32.71
26.90
21.39
15.51
8.46
-0.34
-10.94
-22.89
-35.36
-47.40
-58.27
-67.70
-75.90
-83.65
-92.05
-102.39
-115.80
-132.74
-152.50
-172.68
-189.44
-198.22
-195.27
-179.12
-151.47
-116.93
-81.66
-51.40
-29.88
-18.13
-14.93
-18.00
-25.22
-35.20
-47.22
-60.79
-75.17
-89.19
-101.51
-110.96
-116.77
-118.49
-115.86
-108.56
-96.15
-78.33
-55.12
-27.12
4.52
38.25
72.36
105.12
134.89
160.19
179.76
192.77
198.91
198.51
192.44
181.94
168.37
153.00
136.75
120.15
103.19
85.35
65.78
43.75
19.38
-5.59
-27.66
-42.23
-45.07
-34.08
-10.39
21.63
55.83
86.27
109.00
122.80
128.68
128.71
124.90
118.58
110.49
101.25
91.68
82.78
75.51
70.44
67.52
66.21
65.68
65.09
63.83
61.58
58.27
54.01
49.07
43.70
38.09
32.30
26.26
19.83
12.92
5.49
-2.30
-10.17
-17.91
-25.35
-32.48
-39.36
-46.03
-52.59
-59.31
-66.74
-75.68
-86.80
-99.77
-112.72
-122.16
-123.87
-114.45
-92.91
-61.48
-25.02
10.56
40.29
61.52
74.14
79.78
80.52
77.91
72.77
65.56
57.06
48.62
41.92
38.32
38.25
40.89
44.51
47.22
47.73
45.84
42.33
38.31
34.59
31.24
27.61
22.73
15.85
6.87
-3.60
-14.42
-24.35
-32.51
-38.64
-43.11
-46.81
-50.85
-56.29
-64.01
-74.47
-87.38
-101.34
-113.66
-120.77
-119.04
-106.15
-82.09
-49.64
-13.61
20.57
48.57
68.24
79.79
84.95
85.88
84.20
80.66
75.44
68.71
61.23
54.29
49.37
47.45
48.50
51.48
54.75
56.79
56.77
54.67
51.14
46.97
42.80
38.83
34.93
30.72
25.82
19.91
12.84
4.66
-4.31
-13.56
-22.55
-30.91
-38.57
-45.73
-52.90
-60.70
-69.85
-80.86
-93.67
-107.26
-119.32
-126.52
-125.43
-113.79
-91.69
-61.85
-28.90
2.20
27.69
45.97
57.45
63.65
66.22
66.32
64.59
61.49
57.68
53.94
51.02
49.21
48.32
47.80
47.11
46.02
44.62
43.18
41.81
40.36
38.40
35.44
31.23
25.83
19.61
13.05
6.58
0.38
-5.58
-11.47
-17.40
-23.37
-29.21
-34.69
-39.64
-44.05
-48.15
-52.43
-57.60
-64.40
-73.25
-83.84
-94.69
-103.18
-106.07
-100.55
-85.34
-61.49
-32.29
-2.27
24.19
44.21
56.92
63.13
64.52
62.75
58.96
53.82
47.85
41.68
36.12
31.99
29.79
29.55
30.69
32.30
33.40
33.37
32.08
29.93
27.49
25.24
23.29
21.30
18.73
15.11
10.22
4.20
-2.55
-9.50
-16.10
-21.95
-26.83
-30.83
-34.31
-37.86
-42.15
-47.76
-55.10
-64.19
-74.33
-83.97
-90.68
-91.70
-84.80
-69.33
-46.70
-20.19
6.05
28.36
44.60
54.46
58.93
59.43
57.08
52.46
45.90
38.01
29.91
23.09
18.90
17.92
19.66
22.73
25.48
26.67
25.90
23.59
20.57
17.57
14.78
11.79
7.91
2.56
-4.41
-12.55
-20.97
-28.57
-34.51
-38.44
-40.66
-42.04
-43.82
-47.23
-53.21
-62.08
-73.21
-84.86
-94.29
-98.37
-94.38
-81.17
-59.64
-32.77
-4.71
20.55
40.25
53.47
60.74
63.32
62.44
58.95
53.44
46.63
39.59
33.57
29.63
28.19
28.82
30.47
31.80
31.79
30.04
26.78
22.76
18.91
15.87
13.78
12.17
10.09
6.63
1.30
-5.67
-13.45
-20.87
-27.09
-31.83
-35.51
-39.05
-43.40
-49.35
-57.24
-66.93
-77.69
-88.02
-95.76
-98.38
-93.63
-80.43
-59.45
-33.26
-5.56
19.77
39.86
53.49
60.99
63.67
63.11
60.49
56.53
51.65
46.29
41.06
36.69
33.79
32.59
32.87
33.96
35.01
35.25
34.23
31.88
28.54
24.71
20.83
17.04
13.14
8.72
3.33
-3.10
-10.26
-17.52
-24.16
-29.71
-34.14
-37.77
-41.11
-44.74
-49.23
-55.08
-62.65
-71.95
-82.19
-91.50
-97.09
-95.93
-86.01
-67.29
-42.08
-14.36
11.52
32.25
46.40
54.23
57.05
56.26
52.90
47.69
41.40
35.07
29.89
26.86
26.20
27.26
28.79
29.52
28.75
26.56
23.66
20.96
18.97
17.55
15.97
13.26
8.72
2.18
-5.77
-14.17
-21.94
-28.32
-33.10
-36.69
-39.95
-43.89
-49.42
-57.07
-66.66
-77.11
-86.42
-91.94
-91.06
-82.04
-64.80
-41.24
-14.75
10.77
32.13
47.62
57.19
61.88
62.99
61.47
57.71
51.95
44.77
37.32
31.06
27.24
26.21
27.30
29.01
29.81
28.88
26.38
23.21
20.49
18.74
17.62
16.07
12.83
7.08
-1.10
-10.77
-20.46
-28.80
-35.05
-39.32
-42.53
-46.02
-51.19
-59.08
-70.09
-83.57
-97.63
-109.21
-114.69
-110.95
-96.57
-72.69
-42.85
-11.94
15.49
36.52
50.44
58.32
61.98
62.96
62.09
59.66
55.88
51.38
47.14
44.18
42.99
43.33
44.25
44.61
43.58
41.05
37.52
33.82
30.59
28.00
25.61
22.62
18.15
11.71
3.32
-6.40
-16.37
-25.44
-32.82
-38.33
-42.43
-46.06
-50.25
-55.95
-63.79
-73.97
-85.96
-98.26
-108.23
-112.58
-108.26
-93.79
-70.09
-40.41
-9.29
18.92
41.42
57.42
67.62
73.29
75.45
74.65
71.29
65.99
59.89
54.36
50.55
48.95
49.24
50.61
52.10
53.05
53.10
52.25
50.56
48.08
44.72
40.38
35.12
29.13
22.81
16.45
10.24
4.09
-2.22
-8.90
-16.03
-23.37
-30.55
-37.12
-42.90
-47.95
-52.83
-58.38
-65.57
-75.17
-87.15
-100.34
-112.09
-118.78
-116.87
-104.24
-81.37
-51.39
-19.24
10.09
33.10
48.69
57.82
62.49
64.40
64.37
62.54
58.92
54.07
49.08
45.25
43.40
43.54
44.90
46.40
47.21
46.97
45.85
44.22
42.35
40.24
37.71
34.52
30.49
25.55
19.67
12.90
5.41
-2.44
-10.14
-17.16
-23.16
-28.08
-32.26
-36.31
-40.95
-46.88
-54.66
-64.46
-75.73
-86.97
-95.71
-98.98
-94.22
-80.36
-58.38
-31.25
-3.06
22.26
42.06
55.43
62.88
65.71
65.20
62.23
57.39
51.25
44.60
38.56
34.23
32.31
32.79
34.90
37.40
39.06
39.11
37.43
34.40
30.66
26.72
22.73
18.45
13.47
7.40
0.16
-7.97
-16.39
-24.38
-31.33
-37.01
-41.57
-45.57
-49.74
-54.92
-61.90
-71.20
-82.76
-95.51
-107.10
-114.25
-113.60
-102.94
-82.31
-54.23
-23.05
6.53
30.85
48.31
59.17
64.77
66.58
65.60
62.30
57.14
50.96
45.04
40.78
39.06
39.90
42.44
45.36
47.43
47.92
46.76
44.33
41.15
37.61
33.85
29.79
25.21
19.84
13.48
6.04
-2.24
-10.89
-19.29
-26.84
-33.26
-38.62
-43.35
-48.10
-53.53
-60.31
-68.89
-79.38
-91.10
-102.29
-110.09
-111.23
-103.00
-84.58
-57.59
-25.83
5.92
33.46
54.25
67.79
75.08
77.67
76.96
73.92
69.35
64.13
59.26
55.66
53.87
53.84
55.08
56.91
58.78
60.36
61.50
62.06
61.80
60.47
57.98
54.53
50.67
47.09
44.25
42.20
40.54
38.56
35.65
31.52
26.30
20.40
14.26
8.17
2.17
-3.82
-10.04
-16.88
-24.95
-34.90
-47.01
-60.67
-74.12
-84.62
-89.27
-86.14
-75.09
-58.02
-38.19
-19.23
-3.91
6.47
12.01
13.71
12.74
10.07
6.27
1.80
-2.76
-6.55
-8.64
-8.42
-5.91
-1.91
2.35
5.66
7.35
7.44
6.50
5.30
4.31
3.56
2.77
1.55
-0.25
-2.58
-5.30
-8.37
-11.92
-16.05
-20.70
-25.45
-29.69
-32.81
-34.57
-35.32
-35.96
-37.67
-41.60
-48.32
-57.48
-67.62
-76.29
-80.54
-77.83
-66.89
-48.30
-24.53
0.87
24.24
42.87
55.50
62.21
63.97
61.97
57.35
50.98
43.70
36.42
30.02
25.26
22.51
21.72
22.39
23.84
25.30
26.14
25.86
24.24
21.39
17.64
13.51
9.48
5.80
2.36
-1.21
-5.37
-10.49
-16.55
-23.28
-30.24
-37.02
-43.40
-49.29
-54.76
-60.10
-65.80
-72.55
-80.96
-91.02
-101.55
-110.13
-113.48
-108.57
-93.86
-70.21
-40.70
-9.78
18.29
40.63
56.21
65.60
70.06
70.86
68.97
65.12
60.05
54.66
49.93
46.59
45.01
45.05
46.15
47.57
48.51
48.33
46.75
43.82
39.95
35.69
31.48
27.42
23.32
18.82
13.59
7.48
0.55
-6.99
-14.84
-22.58
-29.84
-36.32
-42.04
-47.30
-52.74
-59.17
-67.33
-77.62
-89.61
-101.79
-111.44
-115.20
-109.97
-94.23
-68.96
-37.59
-4.99
24.05
46.38
61.07
69.07
72.18
72.07
69.71
65.60
60.21
54.33
49.10
45.59
44.37
45.20
47.23
49.35
50.70
50.95
50.20
48.76
46.73
43.90
39.86
34.41
27.78
20.66
13.81
7.67
2.12
-3.51
-9.92
-17.50
-25.93
-34.39
-41.97
-48.05
-52.75
-56.78
-61.33
-67.62
-76.58
-88.24
-101.42
-113.58
-121.18
-120.66
-109.64
-88.07
-58.45
-25.21
6.73
33.49
53.09
65.48
71.81
73.49
71.56
66.75
59.71
51.42
43.28
36.76
32.98
32.17
33.68
36.07
37.78
37.73
35.66
32.25
28.68
25.95
24.31
23.12
21.08
16.95
10.19
1.22
-8.71
-18.12
-25.86
-31.56
-35.67
-39.22
-43.44
-49.50
-58.16
-69.54
-82.81
-96.02
-106.20
-109.99
-104.63
-89.08
-64.59
-34.55
-3.44
24.59
46.73
61.98
70.80
74.24
73.38
69.07
62.08
53.52
44.89
37.84
33.59
32.49
33.87
36.28
38.11
38.29
36.59
33.63
30.40
27.64
25.36
22.73
18.53
11.75
2.19
-9.32
-21.16
-31.60
-39.46
-44.59
-47.97
-51.39
-56.76
-65.61
-78.41
-94.28
-110.81
-124.39
-131.05
-127.49
-112.33
-86.67
-53.94
-18.88
13.85
40.87
60.65
73.30
79.92
81.81
80.12
75.81
69.83
63.27
57.31
52.93
50.69
50.45
51.54
52.90
53.49
52.72
50.56
47.47
44.19
41.19
38.36
35.01
30.08
22.75
12.87
1.17
-10.97
-22.07
-31.16
-38.11
-43.60
-48.79
-54.99
-63.24
-74.19
-87.85
-103.29
-118.42
-130.03
-134.28
-127.96
-109.68
-80.74
-45.04
-7.89
25.56
51.87
69.88
80.38
85.02
85.51
83.08
78.54
72.75
66.77
61.82
58.84
58.07
59.01
60.65
61.99
62.43
61.93
60.80
59.30
57.45
54.86
51.02
45.62
38.81
31.19
23.63
16.83
10.98
5.65
0.08
-6.41
-14.02
-22.37
-30.70
-38.27
-44.80
-50.56
-56.31
-63.12
-71.94
-83.43
-97.44
-112.54
-125.90
-133.62
-131.86
-118.25
-93.14
-59.73
-23.28
10.72
38.19
57.44
68.97
74.50
75.91
74.54
71.19
66.42
61.04
56.05
52.48
50.97
51.50
53.46
55.79
57.53
58.02
57.17
55.27
52.74
49.93
46.88
43.41
39.32
34.38
28.62
22.14
15.18
7.96
0.58
-6.82
-14.09
-21.04
-27.42
-33.09
-38.08
-42.73
-47.65
-53.67
-61.60
-71.87
-83.94
-96.03
-105.16
-107.84
-101.16
-84.09
-58.07
-26.85
4.61
31.73
51.57
63.44
68.49
68.71
66.01
61.58
56.05
49.89
43.77
38.68
35.60
35.11
37.01
40.32
43.65
45.72
45.79
43.85
40.46
36.37
32.21
28.21
24.27
20.07
15.21
9.40
2.51
-5.31
-13.63
-21.74
-28.95
-34.75
-39.20
-42.83
-46.63
-51.65
-58.83
-68.58
-80.52
-93.23
-104.09
-109.72
-106.83
-93.47
-69.99
-39.30
-6.01
25.02
50.18
67.97
78.78
84.14
85.78
85.11
83.20
80.95
79.17
78.46
78.98
80.32
81.72
82.50
82.41
81.74
81.04
80.74
80.71
80.23
78.16
73.38
65.30
54.01
40.41
25.87
11.84
-0.65
-11.22
-20.20
-28.40
-36.66
-45.42
-54.56
-63.54
-71.70
-78.79
-85.02
-91.11
-97.92
-106.13
-115.93
-126.67
-136.79
-143.80
-144.80
-137.28
-120.19
-94.65
-63.87
-32.28
-4.03
18.30
34.17
44.69
51.51
55.93
58.48
59.15
58.09
55.88
53.51
51.93
51.49
51.75
51.77
50.68
48.19
44.78
41.47
39.22
38.35
38.37
38.17
36.49
32.61
26.61
19.46
12.50
6.89
3.11
0.75
-1.28
-4.25
-9.02
-15.66
-23.43
-31.11
-37.58
-42.30
-45.53
-48.19
-51.58
-56.86
-64.74
-75.10
-86.84
-97.82
-105.17
-106.02
-98.40
-82.08
-58.83
-32.00
-5.47
17.43
34.83
46.27
52.41
54.38
53.26
49.98
45.45
40.62
36.47
33.72
32.64
33.01
34.18
35.44
36.37
36.85
37.09
37.29
37.39
37.07
35.79
33.12
28.94
23.59
17.70
11.95
6.86
2.60
-1.04
-4.46
-8.17
-12.53
-17.58
-23.10
-28.63
-33.71
-38.12
-42.04
-46.02
-50.83
-57.18
-65.34
-74.84
-84.16
-90.93
-92.41
-86.37
-72.08
-50.76
-25.45
-0.00
22.10
38.79
49.64
55.43
57.35
56.38
53.13
48.12
42.17
36.41
32.01
29.69
29.37
30.32
31.51
32.12
31.92
31.17
30.29
29.49
28.56
26.94
24.07
19.71
14.13
7.97
2.05
-3.07
-7.29
-10.98
-14.77
-19.17
-24.36
-30.04
-35.64
-40.64
-44.90
-48.76
-52.99
-58.52
-66.08
-75.92
-87.43
-98.91
-107.68
-110.64
-105.15
-90.23
-67.08
-39.06
-10.61
14.21
32.91
45.08
51.90
55.20
56.47
56.44
55.28
53.03
50.01
46.92
44.54
43.42
43.60
44.61
45.80
46.66
47.07
47.26
47.51
47.81
47.68
46.39
43.21
37.95
31.04
23.41
16.10
9.83
4.74
0.40
-4.00
-9.22
-15.71
-23.34
-31.47
-39.17
-45.65
-50.66
-54.65
-58.68
-64.14
-72.14
-82.95
-95.54
-107.51
-115.56
-116.32
-107.55
-89.00
-62.77
-32.72
-3.29
21.81
40.59
52.87
59.81
62.94
63.61
62.59
60.35
57.27
53.91
50.94
48.90
48.00
48.01
48.41
48.61
48.25
47.28
45.97
44.65
43.45
42.20
40.40
37.51
33.18
27.45
20.82
13.96
7.47
1.56
-3.98
-9.67
-16.04
-23.30
-31.25
-39.27
-46.65
-52.87
-57.89
-62.30
-67.12
-73.50
-82.19
-93.02
-104.61
-114.33
-118.93
-115.45
-102.29
-80.00
-51.28
-20.26
8.75
32.50
49.46
59.84
64.87
66.05
64.65
61.50
57.22
52.43
47.85
44.21
42.02
41.43
42.17
43.71
45.34
46.43
46.53
45.41
43.09
39.75
35.62
30.94
25.80
20.28
14.40
8.22
1.83
-4.72
-11.42
-18.26
-25.16
-31.92
-38.28
-43.95
-48.84
-53.24
-57.84
-63.64
-71.52
-81.69
-93.21
-103.81
-110.22
-109.18
-98.62
-78.55
-51.33
-20.98
8.07
32.27
49.80
60.54
65.49
66.09
63.58
58.96
53.06
46.77
41.04
36.77
34.60
34.69
36.68
39.76
42.94
45.22
45.86
44.49
41.20
36.43
30.81
24.98
19.29
13.74
7.97
1.50
-6.00
-14.46
-23.39
-32.09
-39.92
-46.68
-52.66
-58.50
-64.95
-72.62
-81.94
-93.11
-105.90
-119.25
-131.01
-137.93
-136.46
-124.11
-100.70
-68.93
-33.64
-0.22
27.22
46.97
59.59
66.88
70.67
72.05
71.44
69.15
65.80
62.39
59.91
58.85
59.05
59.93
60.85
61.40
61.46
60.98
59.81
57.68
54.29
49.51
43.51
36.68
29.46
22.18
14.92
7.59
-0.00
-8.01
-16.42
-25.05
-33.55
-41.51
-48.66
-54.98
-60.84
-67.08
-74.90
-85.44
-99.18
-115.27
-131.13
-142.70
-145.62
-136.63
-115.08
-83.28
-45.98
-8.69
23.88
49.07
66.40
76.93
82.27
83.86
82.78
79.84
75.95
72.09
69.15
67.74
67.93
69.30
71.12
72.70
73.58
73.63
72.92
71.54
69.38
66.08
61.24
54.62
46.43
37.38
28.49
20.64
14.20
8.85
3.67
-2.34
-9.80
-18.61
-28.00
-36.88
-44.39
-50.30
-55.20
-60.38
-67.44
-77.74
-91.70
-108.14
-124.15
-135.46
-137.62
-127.57
-105.01
-72.74
-35.97
-0.50
29.08
50.51
63.98
71.17
74.04
73.97
71.67
67.55
62.25
56.80
52.41
50.00
49.85
51.49
54.01
56.47
58.19
58.90
58.60
57.36
55.11
51.72
47.08
41.30
34.76
27.97
21.30
14.74
7.94
0.41
-8.13
-17.45
-26.83
-35.36
-42.40
-47.83
-52.24
-56.74
-62.66
-71.21
-82.91
-97.17
-111.91
-123.69
-128.42
-122.66
-104.96
-76.66
-41.70
-5.53
26.73
51.64
68.09
76.96
80.07
79.33
76.08
71.21
65.55
60.02
55.63
53.11
52.65
53.77
55.59
57.22
58.14
58.23
57.56
56.19
53.95
50.51
45.60
39.27
31.92
24.17
16.60
9.49
2.74
-4.04
-11.23
-19.01
-27.18
-35.26
-42.71
-49.21
-54.89
-60.35
-66.57
-74.69
-85.65
-99.65
-115.71
-131.36
-142.91
-146.27
-138.33
-118.22
-87.89
-51.68
-15.02
17.32
42.54
60.11
71.18
77.54
80.62
81.20
79.63
76.37
72.31
68.64
66.34
65.77
66.51
67.62
68.25
68.05
67.30
66.51
66.01
65.51
64.11
60.83
55.08
47.14
38.09
29.30
21.79
15.73
10.41
4.67
-2.45
-11.16
-20.80
-30.21
-38.36
-44.78
-49.76
-54.22
-59.30
-66.12
-75.49
-87.56
-101.50
-115.16
-125.17
-127.72
-119.83
-100.61
-71.89
-37.89
-3.74
26.05
48.92
64.41
73.66
78.30
79.75
78.96
76.56
73.19
69.59
66.56
64.61
63.83
63.87
64.19
64.35
64.15
63.73
63.34
63.17
63.15
62.85
61.65
58.95
54.53
48.59
41.91
35.35
29.62
24.94
20.99
17.23
13.21
8.97
4.94
1.72
-0.38
-1.62
-2.80
-5.08
-9.68
-17.48
-28.69
-42.41
-56.53
-67.96
-73.43
-70.50
-58.56
-39.23
-15.85
7.51
27.40
41.67
49.79
52.38
50.49
45.21
37.40
27.89
17.61
7.66
-0.88
-7.18
-10.97
-12.53
-12.62
-12.16
-11.91
-12.34
-13.58
-15.55
-18.12
-21.13
-24.45
-27.96
-31.56
-35.20
-38.90
-42.78
-46.92
-51.37
-56.02
-60.59
-64.72
-68.15
-70.86
-73.16
-75.76
-79.65
-85.82
-94.77
-106.01
-117.65
-126.61
-129.24
-122.53
-105.30
-78.86
-46.77
-13.73
15.91
39.34
55.72
65.77
70.87
72.40
71.36
68.52
64.61
60.50
57.07
54.92
54.28
54.90
56.23
57.64
58.53
58.50
57.34
55.04
51.73
47.59
42.81
37.59
31.99
26.07
19.80
13.16
6.15
-1.19
-8.72
-16.16
-23.14
-29.31
-34.53
-39.02
-43.34
-48.26
-54.53
-62.71
-73.03
-85.10
-97.82
-109.05
-115.88
-115.19
-104.71
-84.06
-55.34
-22.72
8.80
34.98
53.58
64.60
69.65
70.87
69.97
67.85
64.86
61.26
57.50
54.25
52.06
51.10
51.13
51.58
51.94
51.89
51.46
50.67
49.53
47.84
45.20
41.22
35.78
29.18
22.04
15.03
8.58
2.72
-2.95
-8.89
-15.36
-22.22
-29.02
-35.30
-40.81
-45.77
-50.76
-56.59
-64.03
-73.46
-84.55
-95.92
-105.17
-109.21
-105.23
-91.69
-69.21
-40.57
-9.96
18.33
41.20
57.33
67.07
71.70
72.54
70.60
66.56
60.98
54.81
49.28
45.69
44.93
47.07
51.24
55.96
59.61
61.09
60.13
57.31
53.73
50.43
47.98
46.23
44.47
41.68
36.95
29.74
20.05
8.31
-4.68
-18.08
-31.15
-43.46
-54.95
-65.97
-76.97
-88.40
-100.27
-111.82
-121.53
-127.26
-126.91
-119.06
-103.67
-82.14
-57.13
-31.78
-8.87
9.70
23.20
31.80
36.20
37.22
35.66
32.27
27.95
23.70
20.53
19.18
19.88
22.22
25.20
27.58
28.38
27.21
24.39
20.78
17.30
14.44
11.97
9.04
4.61
-1.97
-10.57
-20.30
-29.84
-37.99
-44.22
-48.76
-52.51
-56.72
-62.62
-71.22
-82.91
-97.19
-112.27
-125.19
-132.28
-130.31
-117.62
-94.93
-65.24
-32.91
-2.32
23.33
42.60
55.64
63.53
67.55
68.69
67.64
64.92
61.14
57.14
53.91
52.21
52.34
53.92
56.08
57.78
58.23
57.14
54.76
51.58
48.08
44.49
40.68
36.26
30.69
23.55
14.77
4.75
-5.64
-15.36
-23.63
-30.29
-35.92
-41.62
-48.52
-57.47
-68.93
-82.79
-98.25
-113.65
-126.27
-132.68
-129.62
-115.30
-90.32
-57.94
-23.14
8.98
34.72
52.72
63.69
69.60
72.44
73.51
73.30
71.91
69.42
66.30
63.30
61.16
60.24
60.36
60.86
60.89
59.79
57.34
53.74
49.50
45.03
40.49
35.79
30.61
24.68
17.82
10.05
1.48
-7.61
-16.83
-25.72
-33.75
-40.58
-46.18
-51.00
-55.93
-62.08
-70.41
-81.40
-94.63
-108.53
-120.36
-126.62
-123.98
-110.52
-86.63
-55.28
-21.21
10.52
36.14
54.17
65.26
71.26
74.00
74.51
72.97
69.31
63.91
57.86
52.72
49.86
49.82
52.08
55.33
57.92
58.61
56.91
53.17
48.22
42.95
37.83
32.82
27.52
21.38
14.13
5.89
-2.91
-11.66
-19.81
-27.08
-33.44
-39.19
-44.79
-50.86
-58.13
-67.31
-78.88
-92.63
-107.27
-120.31
-128.34
-128.00
-117.09
-95.62
-66.07
-32.72
-0.31
27.41
48.60
63.35
72.90
78.75
81.92
82.84
81.72
79.00
75.47
72.15
69.87
68.84
68.69
68.61
67.91
66.32
64.14
61.92
60.08
58.55
56.69
53.58
48.57
41.63
33.50
25.28
17.98
11.94
6.80
1.63
-4.43
-11.75
-20.04
-28.48
-36.21
-42.69
-47.95
-52.55
-57.39
-63.54
-72.01
-83.39
-97.34
-112.16
-124.67
-130.85
-127.06
-111.56
-85.41
-52.43
-17.95
13.00
37.22
53.99
64.44
70.54
73.91
75.37
75.09
73.20
70.20
66.96
64.47
63.24
63.20
63.70
63.95
63.38
61.90
59.85
57.72
55.85
54.24
52.54
50.22
46.78
41.94
35.78
28.71
21.46
14.81
9.33
5.20
2.00
-1.13
-5.12
-10.66
-17.72
-25.60
-33.22
-39.62
-44.44
-48.06
-51.50
-55.96
-62.46
-71.54
-83.06
-96.03
-108.58
-117.96
-121.05
-115.22
-99.49
-75.11
-45.51
-15.23
11.53
32.13
46.06
54.41
58.90
60.96
61.26
60.03
57.39
53.87
50.40
47.91
46.96
47.48
48.80
50.07
50.64
50.31
49.38
48.24
47.05
45.58
43.20
39.28
33.57
26.40
18.61
11.19
4.85
-0.35
-4.89
-9.59
-15.10
-21.55
-28.45
-34.97
-40.35
-44.34
-47.42
-50.56
-54.98
-61.66
-70.99
-82.45
-94.55
-104.81
-110.22
-107.99
-96.60
-76.56
-50.44
-22.24
4.04
25.54
41.31
51.98
58.88
63.18
65.37
65.47
63.51
59.98
55.83
52.23
50.05
49.52
50.27
51.48
52.34
52.34
51.42
49.83
47.92
45.92
43.74
41.07
37.55
32.96
27.38
21.26
15.19
9.76
5.29
1.75
-1.27
-4.42
-8.36
-13.58
-20.11
-27.56
-35.19
-42.15
-47.84
-52.12
-55.42
-58.59
-62.74
-68.87
-77.53
-88.39
-99.99
-109.71
-114.32
-110.88
-97.86
-75.96
-48.10
-18.60
8.24
29.43
43.99
52.66
57.12
59.02
59.45
58.91
57.58
55.70
53.62
51.75
50.34
49.42
48.74
48.05
47.19
46.16
45.13
44.27
43.58
42.90
41.86
39.98
36.85
32.27
26.36
19.58
12.69
6.48
1.55
-1.99
-4.57
-7.10
-10.49
-15.35
-21.62
-28.57
-35.16
-40.43
-44.01
-46.24
-48.09
-50.65
-54.88
-61.21
-69.62
-79.47
-89.61
-98.24
-103.08
-101.81
-92.77
-75.82
-52.60
-26.26
-0.57
21.37
37.85
48.72
54.78
57.10
56.61
53.98
49.93
45.32
41.15
38.20
36.82
36.72
37.28
37.80
37.83
37.31
36.40
35.43
34.61
33.92
33.04
31.47
28.62
24.19
18.39
11.91
5.72
0.58
-3.30
-6.35
-9.40
-13.19
-18.03
-23.61
-29.26
-34.28
-38.33
-41.58
-44.59
-48.18
-53.14
-60.03
-68.91
-79.13
-89.04
-96.23
-98.00
-92.20
-78.17
-57.19
-32.25
-7.08
14.99
31.98
43.54
50.48
53.99
54.97
53.83
50.74
46.12
40.86
36.21
33.28
32.61
33.94
36.37
38.75
40.20
40.32
39.30
37.65
35.96
34.54
33.27
31.58
28.72
24.16
17.96
10.83
3.92
-1.71
-5.69
-8.51
-11.31
-15.25
-20.92
-27.99
-35.44
-42.02
-47.01
-50.41
-52.93
-55.61
-59.39
-64.90
-72.42
-81.80
-92.28
-102.30
-109.41
-110.81
-104.14
-88.60
-65.48
-37.99
-10.24
14.07
32.74
45.39
53.02
57.12
58.86
58.90
57.47
54.85
51.59
48.54
46.53
45.93
46.54
47.68
48.46
48.27
47.00
45.03
42.99
41.36
40.17
38.91
36.78
33.14
27.84
21.37
14.75
8.93
4.33
0.60
-3.08
-7.64
-13.43
-20.15
-26.94
-32.94
-37.75
-41.61
-45.28
-49.70
-55.64
-63.52
-73.35
-84.55
-95.85
-105.13
-109.76
-107.21
-96.00
-76.40
-50.66
-22.38
4.60
27.29
44.30
55.77
62.77
66.55
68.00
67.63
65.81
63.14
60.45
58.60
58.17
59.12
60.85
62.47
63.33
63.19
62.38
61.40
60.64
60.07
59.25
57.56
54.53
50.07
44.45
38.21
31.84
25.68
19.80
14.02
8.02
1.54
-5.51
-12.98
-20.53
-27.84
-34.84
-41.90
-49.76
-59.20
-70.61
-83.67
-97.12
-108.97
-116.94
-119.03
-114.17
-102.47
-85.31
-65.00
-44.16
-25.18
-9.64
1.80
9.27
13.33
14.73
14.20
12.47
10.29
8.49
7.85
8.86
11.59
15.60
20.04
23.91
26.25
26.49
24.63
21.17
16.97
12.85
9.25
6.09
2.84
-1.30
-6.91
-14.17
-22.70
-31.68
-40.15
-47.23
-52.48
-55.98
-58.45
-61.12
-65.47
-72.84
-83.75
-97.50
-111.96
-123.83
-129.43
-125.78
-111.65
-88.15
-58.56
-27.35
1.16
23.95
39.93
49.70
54.81
56.90
57.13
56.17
54.43
52.37
50.48
49.25
48.93
49.39
50.20
50.83
50.77
49.79
47.91
45.34
42.39
39.30
36.11
32.58
28.29
22.77
15.75
7.33
-2.04
-11.72
-21.10
-29.77
-37.60
-44.70
-51.36
-58.06
-65.44
-74.28
-85.23
-98.35
-112.63
-125.72
-134.18
-134.47
-124.19
-103.19
-73.83
-40.36
-7.53
20.85
42.77
58.16
68.09
74.02
77.10
78.00
77.27
75.49
73.42
71.84
71.21
71.53
72.35
73.02
72.92
71.75
69.57
66.65
63.32
59.82
56.21
52.44
48.36
43.69
38.07
31.09
22.53
12.54
1.77
-8.80
-18.15
-25.71
-31.58
-36.56
-41.80
-48.43
-57.31
-68.77
-82.50
-97.23
-110.56
-119.11
-119.20
-108.14
-85.41
-53.36
-16.67
19.08
49.33
71.84
86.82
96.07
101.55
104.44
104.94
102.86
98.48
92.88
87.68
84.19
82.75
82.42
81.49
78.26
71.91
62.80
52.28
41.95
32.99
25.65
19.22
12.38
3.88
-6.97
-19.93
-33.93
-47.48
-59.25
-68.53
-75.47
-80.91
-86.12
-92.43
-100.90
-112.08
-125.67
-140.12
-152.69
-159.73
-157.69
-144.35
-119.75
-86.53
-49.20
-12.81
18.53
42.58
59.06
69.07
74.19
75.76
74.76
71.85
67.81
63.60
60.24
58.45
58.50
60.03
62.24
64.21
65.15
64.59
62.36
58.60
53.61
47.79
41.48
34.94
28.21
21.16
13.53
5.14
-4.00
-13.56
-22.96
-31.66
-39.30
-45.99
-52.28
-59.03
-67.24
-77.77
-91.05
-106.84
-123.76
-139.19
-149.49
-150.82
-140.35
-117.53
-84.64
-46.27
-8.02
25.26
50.80
68.29
79.16
85.52
89.01
90.46
90.07
88.03
84.98
82.01
80.24
80.20
81.57
83.26
84.10
83.39
81.30
78.71
76.53
75.16
74.12
72.25
68.32
61.68
52.75
42.82
33.58
26.29
21.21
17.49
13.61
8.02
-0.02
-10.25
-21.40
-31.88
-40.52
-47.07
-52.34
-57.88
-65.38
-76.04
-90.12
-106.58
-123.12
-136.36
-142.58
-138.67
-123.20
-97.13
-63.78
-27.98
5.41
32.91
53.14
66.61
74.79
79.15
80.61
79.72
77.06
73.54
70.36
68.47
68.25
69.27
70.68
71.58
71.49
70.46
68.89
67.21
65.54
63.61
60.84
56.66
50.79
43.50
35.56
27.99
21.62
16.70
12.75
8.76
3.70
-3.01
-11.21
-20.05
-28.38
-35.33
-40.66
-44.92
-49.28
-55.03
-63.20
-74.13
-87.20
-100.77
-112.21
-118.41
-116.51
-104.90
-83.88
-55.88
-24.83
4.97
30.13
48.86
61.03
67.59
69.80
68.80
65.45
60.64
