1705913600.00
64.000000
-0.00
-0.00
-0.00
-0.00
-0.00
-0.00
-0.00
-0.00
-0.00
-0.00
0.00
0.01
0.01
-0.00
-0.03
-0.05
-0.05
0.00
0.13
0.36
0.66
1.01
1.37
1.72
2.06
2.40
2.79
3.24
3.80
4.42
5.06
5.66
6.20
6.68
7.15
7.68
8.31
9.14
10.09
11.04
11.88
12.56
13.14
13.76
14.65
15.96
17.91
20.32
22.90
25.38
27.58
29.57
31.68
34.32
37.81
42.54
48.15
54.10
59.83
64.97
69.58
74.14
79.34
85.71
93.76
103.00
112.62
121.73
129.77
136.75
143.30
150.75
157.77
166.64
177.95
191.79
206.97
220.57
228.25
225.36
208.53
176.87
132.76
80.05
23.07
-34.94
-92.44
-149.16
-205.23
-260.37
-313.74
-363.87
-409.83
-450.91
-486.50
-515.74
-537.23
-549.22
-549.96
-538.37
-514.21
-478.67
-433.88
-382.45
-327.02
-269.84
-212.63
-156.66
-102.95
-52.37
-5.90
35.58
71.43
101.35
125.50
144.38
158.69
169.15
176.37
180.75
182.57
182.07
179.51
175.23
169.65
163.18
156.15
148.81
141.30
133.69
126.02
118.33
110.69
103.16
95.80
88.68
81.83
75.25
68.95
62.95
57.25
51.86
46.78
42.03
37.59
33.46
29.62
26.09
22.84
19.87
17.18
14.76
12.60
10.69
9.02
7.58
6.34
5.29
4.41
3.68
3.08
2.59
2.21
1.91
1.68
1.52
1.40
1.34
1.31
1.31
1.34
1.40
1.48
1.59
1.71
1.87
2.04
2.23
2.45
2.70
2.97
3.27
3.60
3.96
4.36
4.79
5.26
5.76
6.30
6.89
7.51
8.18
8.89
9.65
10.45
11.30
12.19
13.12
14.11
15.17
16.28
17.47
18.70
19.97
21.24
22.43
23.47
24.25
24.66
24.56
23.85
22.44
20.32
17.48
14.02
10.01
5.64
1.12
-3.34
-7.53
-11.26
-14.39
-16.81
-18.48
-19.42
-19.68
-19.33
-18.52
-17.35
-15.92
-14.35
-12.68
-10.97
-9.22
-7.42
-5.57
-3.70
-1.76
0.26
2.37
4.62
7.02
9.59
12.40
15.34
18.37
21.47
24.62
27.82
31.10
34.51
38.12
42.05
46.15
50.37
54.68
59.08
63.57
68.19
72.98
78.04
83.54
89.23
94.99
100.78
106.59
112.42
118.31
124.34
130.60
137.28
143.98
150.41
156.33
161.43
165.32
167.44
167.01
162.76
157.08
150.66
143.87
136.94
129.96
123.02
116.14
109.44
103.05
97.24
91.69
86.19
80.58
74.67
68.28
61.29
53.68
45.61
37.36
28.82
19.95
10.70
0.94
-9.39
-20.27
-31.40
-42.27
-52.17
-60.70
-67.65
-73.08
-77.41
-81.18
-84.84
-88.56
-92.13
-95.10
-97.21
-98.49
-99.49
-101.14
-104.44
-110.09
-118.18
-128.09
-138.87
-149.59
-159.74
-169.41
-179.18
-189.95
-202.80
-218.75
-238.46
-261.61
-286.20
-308.45
-323.43
-326.57
-315.42
-290.82
-256.65
-218.46
-181.42
-148.90
-122.11
-100.79
-84.27
-72.10
-64.06
-59.60
-57.50
-55.94
-53.21
-48.38
-41.65
-34.20
-27.70
-23.48
-22.10
-23.19
-25.59
-27.88
-29.02
-28.73
-27.69
-27.16
-28.42
-32.16
-38.18
-45.35
-52.07
-56.58
-57.44
-53.67
-44.95
-31.58
-14.54
4.68
24.32
42.68
58.50
71.09
80.30
86.24
89.08
88.89
85.70
79.77
71.77
62.92
54.57
47.96
43.60
41.20
39.76
38.10
35.33
31.26
26.27
20.94
15.67
10.29
4.27
-3.04
-12.01
-22.59
-34.33
-46.52
-58.35
-68.80
-76.61
-80.32
-78.65
-70.93
-57.62
-40.34
-21.42
-3.11
12.97
26.18
36.57
44.38
49.69
52.40
52.54
50.64
47.85
45.58
44.89
45.93
47.72
48.59
46.78
41.34
32.40
21.24
9.62
-0.73
-8.83
-14.58
-18.61
-21.99
-25.83
-31.02
-37.98
-46.59
-56.06
-65.02
-71.67
-74.18
-71.20
-62.20
-47.67
-29.11
-8.56
11.77
29.94
44.51
54.66
60.03
60.75
57.34
50.67
41.93
32.46
23.63
16.47
11.56
8.89
7.95
7.99
8.26
8.26
7.84
7.00
5.69
3.63
0.18
-5.46
-14.10
-26.10
-41.12
-57.99
-74.64
-88.53
-97.17
-98.88
-93.22
-81.23
-64.98
-46.91
-29.05
-12.70
1.59
13.57
22.89
29.06
31.65
30.73
27.15
22.43
18.17
15.47
14.54
14.65
14.63
13.51
10.92
7.23
3.25
-0.25
-2.92
-4.94
-6.93
-9.65
-13.77
-19.82
-27.96
-37.87
-48.50
-58.04
-64.07
-64.27
-57.12
-42.44
-21.60
3.00
28.54
52.53
73.16
89.39
100.65
106.75
107.88
104.59
97.93
89.39
80.65
73.21
67.99
65.09
63.79
62.90
61.19
57.84
52.76
46.55
40.07
33.96
28.31
22.50
15.45
5.98
-6.75
-22.95
-41.85
-61.63
-79.62
-92.74
-98.35
-95.04
-83.07
-64.32
-41.69
-18.21
3.66
22.31
36.85
46.79
51.87
52.09
47.98
40.75
32.15
24.09
18.07
14.76
13.94
14.65
15.70
16.13
15.49
13.81
11.41
8.71
5.99
3.32
0.51
-2.89
-7.63
-14.66
-24.75
-37.96
-53.13
-67.77
-78.58
-82.49
-77.72
-64.45
-44.76
-21.80
1.29
22.18
39.63
53.16
62.58
67.65
68.19
64.40
57.20
48.27
39.64
33.05
29.48
28.83
30.19
32.24
33.81
34.18
33.21
31.13
28.30
24.96
21.13
16.57
10.89
3.62
-5.56
-16.74
-29.53
-42.88
-55.03
-63.79
-66.99
-63.16
-52.07
-34.91
-14.03
7.78
27.94
44.64
56.90
64.44
67.32
65.91
60.78
52.93
43.72
34.74
27.42
22.74
20.91
21.41
23.11
24.77
25.40
24.61
22.62
20.03
17.44
15.03
12.53
9.24
4.48
-2.28
-11.15
-21.84
-33.55
-44.96
-54.27
-59.44
-58.77
-51.50
-38.25
-20.96
-2.34
14.94
29.01
38.98
44.76
46.59
44.72
39.43
31.23
21.12
10.59
1.27
-5.59
-9.46
-10.66
-10.04
-8.60
-7.05
-5.76
-4.86
-4.45
-4.70
-5.85
-8.07
-11.36
-15.59
-20.58
-26.04
-31.60
-36.54
-39.77
-39.96
-35.86
-26.71
-12.62
5.48
26.04
47.22
67.23
84.46
97.48
105.17
106.98
103.15
94.93
84.41
73.95
65.58
60.44
58.53
58.91
60.15
60.78
59.70
56.40
50.90
43.68
35.41
26.68
17.88
8.92
-0.73
-11.86
-25.08
-40.43
-56.84
-72.27
-84.09
-89.81
-87.93
-78.44
-62.75
-43.27
-22.71
-3.40
13.00
25.53
33.77
37.64
37.35
33.51
27.14
19.62
12.48
7.07
4.13
3.66
4.85
6.48
7.38
6.84
4.80
1.74
-1.65
-4.91
-7.96
-11.16
-15.11
-20.45
-27.62
-36.66
-46.98
-57.28
-65.64
-69.90
-68.27
-60.03
-45.76
-27.28
-7.12
12.19
28.72
41.34
49.64
53.70
53.87
50.69
44.94
37.70
30.22
23.74
19.21
17.03
16.92
18.06
19.45
20.31
20.36
19.88
19.43
19.37
19.55
19.26
17.44
13.19
5.97
-4.15
-16.59
-30.33
-43.90
-55.42
-62.76
-64.01
-58.02
-44.97
-26.40
-4.88
16.70
35.85
50.94
61.23
66.59
67.31
63.84
56.85
47.29
36.33
25.27
15.28
7.18
1.36
-2.28
-4.22
-5.15
-5.79
-6.77
-8.43
-10.80
-13.65
-16.67
-19.60
-22.46
-25.56
-29.41
-34.56
-41.35
-49.68
-58.81
-67.33
-73.37
-74.96
-70.69
-60.16
-44.23
-24.87
-4.61
14.15
29.61
40.83
47.55
49.92
48.30
43.22
35.46
26.16
16.78
8.79
3.32
0.86
1.06
2.92
5.19
6.79
7.12
6.19
4.39
2.27
0.20
-1.73
-3.74
-6.21
-9.57
-14.21
-20.46
-28.32
-37.41
-46.76
-54.78
-59.55
-59.28
-52.95
-40.73
-24.07
-5.26
13.23
29.39
42.01
50.69
55.46
56.43
53.76
47.73
39.01
28.82
18.73
10.29
4.54
1.70
1.15
1.76
2.32
2.01
0.57
-1.73
-4.31
-6.69
-8.72
-10.70
-13.26
-17.20
-23.18
-31.55
-42.10
-53.96
-65.60
-74.84
-79.45
-77.57
-68.50
-52.90
-32.80
-10.97
9.83
27.54
41.01
49.93
54.43
54.76
51.30
44.65
35.81
26.13
17.10
10.01
5.52
3.62
3.68
4.68
5.59
5.64
4.48
2.19
-0.86
-4.23
-7.65
-11.12
-14.93
-19.57
-25.62
-33.54
-43.52
-55.22
-67.55
-78.61
-86.05
-87.57
-81.76
-68.58
-49.56
-27.37
-5.09
14.57
29.89
40.21
45.76
47.29
45.63
41.55
35.67
28.60
21.09
14.02
8.31
4.64
3.22
3.66
5.12
6.60
7.32
6.98
5.71
3.88
1.79
-0.46
-3.07
-6.41
-10.89
-16.83
-24.45
-33.73
-44.24
-54.87
-63.83
-68.95
-68.22
-60.64
-46.58
-27.81
-6.97
13.28
30.85
44.60
54.14
59.51
60.94
58.70
53.28
45.51
36.57
27.76
20.23
14.78
11.65
10.60
11.04
12.21
13.35
13.90
13.51
12.13
9.94
7.21
4.18
0.93
-2.69
-7.04
-12.56
-19.66
-28.46
-38.55
-48.76
-57.24
-61.75
-60.40
-52.22
-37.67
-18.54
2.55
22.93
40.45
53.90
62.82
67.24
67.40
63.72
56.85
47.79
37.88
28.50
20.85
15.60
12.79
11.86
11.96
12.10
11.58
10.01
7.36
3.87
-0.11
-4.24
-8.28
-12.15
-16.00
-20.20
-25.28
-31.86
-40.34
-50.47
-61.07
-70.04
-74.87
-73.37
-64.54
-48.93
-28.51
-6.04
15.74
34.68
49.48
59.55
64.77
65.30
61.65
54.66
45.63
36.05
27.38
20.67
16.40
14.47
14.30
15.12
16.12
16.65
16.32
14.93
12.49
9.11
4.92
0.09
-5.29
-11.17
-17.66
-24.96
-33.39
-43.13
-53.89
-64.68
-73.73
-78.80
-77.92
-70.07
-55.68
-36.65
-15.72
4.25
21.08
33.53
41.28
44.52
43.67
39.23
31.87
22.61
12.80
3.88
-2.95
-7.09
-8.70
-8.56
-7.75
-7.23
-7.56
-8.83
-10.78
-13.07
-15.52
-18.23
-21.51
-25.77
-31.40
-38.56
-47.20
-56.85
-66.58
-74.95
-80.19
-80.51
-74.69
-62.46
-44.78
-23.68
-1.71
18.70
35.72
48.34
56.27
59.62
58.75
54.19
46.77
37.66
28.29
20.11
14.20
10.93
9.93
10.27
10.89
10.96
10.17
8.64
6.73
4.74
2.69
0.32
-2.84
-7.26
-13.32
-21.15
-30.59
-40.90
-50.75
-58.20
-61.15
-57.81
-47.43
-30.55
-9.03
14.50
37.39
57.51
73.62
85.19
92.22
94.95
93.92
89.94
84.14
77.85
72.39
68.78
67.61
68.97
72.42
77.00
81.40
84.09
83.74
79.47
71.05
58.85
43.63
26.24
7.47
-12.00
-31.55
-50.55
-68.48
-84.77
-98.74
-109.35
-115.08
-114.05
-104.60
-85.94
-58.68
-24.93
12.15
49.13
83.11
112.02
134.70
150.57
159.33
160.96
155.89
145.31
131.14
115.81
101.57
89.93
81.21
74.68
68.95
62.65
54.88
45.42
34.72
23.56
12.78
3.01
-5.47
-12.79
-19.48
-26.31
-34.12
-43.48
-54.40
-66.16
-77.38
-86.45
-91.98
-93.26
-90.44
-84.41
-76.35
-67.44
-58.58
-50.36
-43.26
-37.69
-34.04
-32.48
-32.82
-34.40
-36.24
-37.30
-36.95
-35.16
-32.62
-30.41
-29.59
-30.70
-33.63
-37.63
-41.79
-45.44
-48.40
-50.93
-53.54
-56.66
-60.50
-65.03
-70.04
-75.21
-80.02
-83.71
-85.34
-84.10
-79.54
-71.80
-61.55
-49.63
-36.82
-23.56
-10.04
3.56
16.76
28.73
38.49
45.35
49.17
50.50
50.26
49.42
48.58
47.85
46.90
45.23
42.39
38.20
32.75
26.40
19.64
12.94
6.71
1.09
-3.97
-8.79
-13.83
-19.45
-25.79
-32.56
-38.94
-43.75
-45.75
-44.00
-38.24
-28.96
-17.28
-4.58
7.83
18.94
28.07
34.72
38.63
39.72
38.27
34.99
30.87
26.86
23.61
21.23
19.29
17.06
13.90
9.50
4.05
-1.90
-7.67
-12.74
-16.95
-20.49
-23.88
-27.66
-32.33
-38.12
-44.98
-52.51
-59.89
-66.02
-69.56
-69.37
-64.80
-56.00
-43.88
-29.87
-15.48
-1.84
10.36
20.80
29.24
35.33
38.67
39.03
36.64
32.28
27.04
22.05
17.99
14.98
12.64
10.34
7.60
4.28
0.62
-2.98
-6.13
-8.74
-10.97
-13.23
-16.03
-19.85
-25.08
-31.88
-40.15
-49.23
-58.04
-64.98
-68.46
-67.27
-61.05
-50.52
-37.15
-22.75
-8.85
3.57
14.12
22.75
29.46
34.21
36.86
37.40
36.08
33.39
29.98
26.47
23.31
20.61
18.18
15.59
12.40
8.34
3.34
-2.49
-8.98
-15.95
-23.16
-30.08
-35.89
-39.77
-41.32
-40.90
-39.61
-38.72
-38.91
-39.83
-40.20
-38.57
-34.10
-26.99
-18.32
-9.36
-1.02
6.46
13.20
19.29
24.48
28.28
30.26
30.38
29.18
27.50
26.20
25.84
26.40
27.35
27.82
26.92
24.07
19.26
13.08
6.63
1.09
-2.63
-4.22
-4.05
-3.03
-2.21
-2.57
-4.65
-8.47
-13.48
-18.60
-22.26
-22.76
-18.76
-9.80
3.40
19.08
35.01
49.31
60.95
69.82
76.26
80.50
82.31
81.12
76.59
69.01
59.53
49.67
40.80
33.55
27.73
22.57
17.27
11.37
4.95
-1.51
-7.43
-12.36
-16.16
-19.02
-21.33
-23.58
-26.37
-30.22
-35.48
-42.17
-49.74
-57.02
-62.36
-64.12
-61.20
-53.43
-41.79
-28.03
-14.01
-1.01
10.70
21.75
33.13
45.43
58.31
70.54
80.49
86.89
89.40
88.74
86.22
83.06
79.78
76.11
71.26
64.54
55.83
45.71
35.17
25.18
16.21
8.07
0.03
-8.79
-19.09
-31.11
-44.60
-58.84
-72.69
-84.66
-93.04
-96.25
-93.40
-84.81
-72.21
-58.28
-45.75
-36.23
-29.74
-24.86
-19.63
-12.71
-3.87
6.00
15.67
24.19
31.37
37.43
42.61
46.76
49.34
49.80
48.01
44.49
40.18
36.12
32.89
30.43
28.11
25.13
20.97
15.57
9.34
2.83
-3.60
-9.92
-16.14
-22.06
-27.05
-30.08
-30.14
-26.66
-19.82
-10.47
0.08
10.51
19.83
27.42
33.02
36.59
38.27
38.36
37.31
35.66
33.85
32.11
30.27
27.87
24.28
19.02
12.00
3.60
-5.47
-14.36
-22.43
-29.38
-35.39
-40.86
-46.35
-52.33
-59.03
-66.23
-73.19
-78.72
-81.48
-80.36
-74.85
-65.33
-52.84
-38.82
-24.63
-11.27
0.65
10.82
18.92
24.67
27.84
28.52
27.19
24.72
22.07
19.96
18.68
18.03
17.50
16.57
14.94
12.64
9.90
7.05
4.26
1.50
-1.39
-4.75
-8.90
-14.12
-20.54
-28.01
-36.00
-43.55
-49.37
-52.18
-51.07
-45.84
-37.10
-25.99
-13.85
-1.84
9.28
19.15
27.54
34.23
38.96
41.49
41.86
40.42
37.90
35.11
32.74
31.12
30.08
29.15
27.69
25.27
21.81
17.57
13.09
8.83
4.95
1.24
-2.73
-7.45
-13.21
-20.06
-27.77
-35.87
-43.62
-50.00
-53.81
-53.88
-49.56
-40.97
-29.07
-15.39
-1.44
11.76
23.78
34.61
44.28
52.52
58.80
62.56
63.58
62.21
59.27
55.74
52.42
49.65
47.32
45.02
42.27
38.80
34.57
29.77
24.71
19.64
14.65
9.69
4.59
-0.89
-7.02
-14.04
-22.10
-31.14
-40.62
-49.47
-56.24
-59.42
-57.93
-51.63
-41.36
-28.78
-15.75
-3.88
5.91
13.35
18.61
22.00
23.74
24.01
22.96
20.97
18.52
16.06
13.82
11.68
9.31
6.35
2.60
-1.81
-6.54
-11.10
-14.96
-17.69
-19.02
-19.00
-18.13
-17.37
-17.99
-21.28
-27.98
-37.95
-49.84
-61.34
-69.68
-72.45
-68.26
-57.26
-40.99
-21.84
-2.33
15.57
30.62
42.27
50.24
54.45
54.97
52.29
47.43
41.75
36.55
32.63
30.12
28.53
27.16
25.51
23.48
21.31
19.40
18.04
17.24
16.78
16.15
14.66
11.64
6.40
-1.48
-12.02
-24.61
-37.92
-49.99
-58.65
-62.09
-59.48
-51.19
-38.69
-24.01
-9.12
4.62
16.48
26.22
33.75
38.82
41.22
40.85
38.09
33.74
28.90
24.55
21.32
19.28
18.01
16.80
15.02
12.37
8.92
5.05
1.14
-2.64
-6.47
-10.73
-15.81
-21.90
-28.94
-36.65
-44.56
-51.96
-57.83
-60.92
-59.90
-53.87
-42.78
-27.63
-10.15
7.58
23.71
37.05
47.04
53.56
56.68
56.56
53.50
48.03
41.05
33.66
26.98
21.76
18.15
15.65
13.30
10.17
5.72
0.08
-6.00
-11.47
-15.52
-17.89
-18.99
-19.67
-20.85
-23.20
-27.00
-32.12
-38.16
-44.48
-50.18
-54.12
-55.11
-52.25
-45.25
-34.59
-21.45
-7.35
6.29
18.38
28.26
35.60
40.25
42.21
41.65
39.07
35.19
30.85
26.71
23.17
20.18
17.32
14.07
9.94
4.78
-1.19
-7.37
-13.10
-17.78
-21.25
-23.78
-26.06
-28.95
-33.12
-38.85
-45.81
-53.17
-59.75
-64.29
-65.73
-63.41
-57.23
-47.66
-35.63
-22.21
-8.49
4.76
17.16
28.62
39.17
48.72
56.95
63.41
67.75
69.92
70.30
69.49
68.05
66.19
63.72
60.22
55.37
49.19
42.07
34.52
26.99
19.59
12.19
4.59
-3.28
-11.35
-19.56
-27.92
-36.64
-45.83
-55.26
-64.10
-71.02
-74.63
-73.99
-69.02
-60.50
-49.76
-38.16
-26.70
-15.97
-6.30
1.95
8.33
12.44
14.15
13.87
12.40
10.73
9.65
9.44
9.91
10.44
10.33
9.03
6.32
2.39
-2.35
-7.35
-12.24
-16.83
-21.27
-25.91
-31.19
-37.44
-44.73
-52.71
-60.54
-67.00
-70.69
-70.42
-65.58
-56.42
-43.98
-29.78
-15.38
-1.98
9.70
19.33
26.71
31.74
34.29
34.46
32.62
29.51
26.00
22.87
20.51
18.86
17.55
16.11
14.27
12.03
9.60
7.16
4.71
1.99
-1.32
-5.41
-10.32
-15.91
-22.07
-28.72
-35.72
-42.56
-48.24
-51.34
-50.42
-44.62
-33.94
-19.52
-3.18
12.91
26.82
37.13
43.09
44.68
42.41
37.33
30.70
23.88
17.93
13.43
10.35
8.16
6.05
3.30
-0.44
-5.09
-10.22
-15.39
-20.33
-25.16
-30.30
-36.30
-43.63
-52.34
-61.88
-71.02
-78.01
-80.87
-78.13
-69.18
-54.61
-35.96
-15.14
6.06
26.42
45.06
61.26
74.28
83.49
88.90
91.54
93.44
97.13
104.77
117.37
134.48
154.35
174.61
193.03
208.07
219.12
226.30
229.96
230.04
225.77
215.78
198.70
174.07
142.90
107.64
71.43
36.93
5.48
-23.24
-50.71
-78.78
-109.08
-142.49
-178.87
-216.77
-253.32
-284.45
-305.80
-314.20
-308.90
-292.01
-267.74
-240.72
-214.08
-188.59
-163.00
-135.56
-105.74
-75.15
-47.08
-25.06
-11.12
-4.92
-3.99
-5.12
-5.78
-5.13
-3.84
-3.02
-3.12
-3.50
-2.80
-0.03
4.68
9.87
13.44
13.59
9.63
2.07
-7.64
-17.71
-26.47
-32.70
-35.56
-34.67
-30.03
-21.98
-11.11
1.69
15.43
29.09
41.76
52.87
62.23
69.96
76.33
81.48
85.39
87.95
89.22
89.48
89.34
89.35
89.79
90.44
90.67
89.68
86.81
81.71
74.50
65.64
55.81
45.65
35.63
25.87
16.18
6.21
-4.38
-15.72
-27.60
-39.47
-50.48
-59.48
-65.32
-66.94
-63.68
-55.58
-43.31
-28.17
-11.68
4.59
19.44
32.00
41.84
48.93
53.51
56.01
56.90
56.63
55.55
54.02
52.31
50.76
49.54
48.59
47.58
45.99
43.37
39.42
34.19
27.92
20.92
13.43
5.59
-2.50
-10.67
-18.72
-26.56
-34.28
-42.24
-50.86
-60.27
-69.97
-78.65
-84.46
-85.46
-80.44
-69.30
-53.22
-34.32
-15.02
2.64
17.31
28.39
35.90
40.15
41.66
41.06
38.94
35.81
31.90
27.17
21.47
14.87
7.84
1.22
-4.15
-7.87
-10.30
-12.61
-16.38
-23.16
-33.98
-49.06
-67.34
-86.41
-102.68
-112.29
-112.44
-102.81
-86.04
-67.01
-50.91
-40.95
-37.14
-36.56
-35.06
-29.30
-18.16
-2.77
14.53
31.51
46.81
59.89
70.58
78.51
83.12
83.86
80.69
74.35
66.29
58.30
51.84
47.53
44.93
42.74
39.35
33.60
25.24
14.99
4.13
-6.07
-14.86
-22.12
-28.18
-33.42
-37.97
-41.76
-44.68
-46.82
-48.60
-50.59
-53.21
-56.42
-59.43
-60.92
-59.31
-53.46
-43.17
-29.28
-13.48
2.34
16.63
28.57
38.02
45.21
50.40
53.69
55.05
54.44
52.06
48.30
43.79
39.18
34.92
31.22
27.96
24.85
21.54
17.81
13.54
8.74
3.49
-2.15
-8.09
-14.15
-20.12
-25.79
-31.13
-36.37
-42.08
-48.94
-57.50
-67.74
-78.80
-88.90
-95.57
-96.38
-89.76
-75.63
-55.60
-32.36
-8.84
12.91
32.30
50.10
67.84
86.88
107.72
129.93
152.45
174.15
194.23
212.14
227.29
238.76
245.25
245.44
238.50
224.38
203.73
177.54
146.74
112.01
73.90
33.22
-8.79
-50.60
-90.71
-127.96
-161.66
-191.52
-217.46
-239.47
-257.64
-272.10
-282.90
-289.84
-292.37
-289.63
-280.82
-265.46
-243.36
-214.58
-179.41
-138.66
-94.19
-49.23
-8.00
25.55
49.32
64.06
73.01
80.36
89.07
99.65
110.09
117.33
119.03
114.74
105.86
94.61
82.83
71.29
59.67
47.25
33.49
18.32
2.10
-14.57
-31.03
-46.55
-60.21
-70.95
-77.65
-79.33
-75.39
-65.81
-51.22
-32.94
-12.83
6.94
24.35
37.89
47.00
52.03
54.01
54.25
53.77
53.20
52.60
51.80
50.49
48.43
45.48
41.62
36.88
31.36
25.23
18.61
11.65
4.40
-3.14
-11.01
-19.27
-27.94
-37.00
-46.38
-55.87
-65.09
-73.34
-79.79
-83.56
-83.97
-80.74
-74.04
-64.40
-52.39
-38.44
-22.76
-5.54
12.84
31.42
48.75
63.16
73.19
78.13
78.15
74.19
67.60
59.74
51.75
44.56
38.94
35.56
34.79
36.38
39.37
42.14
42.90
40.19
33.41
22.93
9.84
-4.52
-19.13
-33.36
-46.93
-59.50
-70.21
-77.57
-79.84
-75.64
-64.66
-47.95
-27.57
-5.94
14.99
34.11
51.14
66.05
78.60
88.17
94.01
95.68
93.40
88.06
80.93
73.22
65.72
58.69
51.95
45.05
37.55
29.21
20.05
10.41
0.81
-8.25
-16.44
-23.74
-30.43
-37.00
-44.00
-51.82
-60.59
-70.06
-79.55
-87.94
-93.83
-95.89
-93.18
-85.44
-73.23
-57.72
-40.33
-22.44
-5.22
10.46
23.84
34.33
41.48
45.19
45.81
44.19
41.42
38.53
36.17
34.36
32.68
30.45
27.14
22.54
16.91
10.75
4.57
-1.29
-6.84
-12.30
-18.02
-24.33
-31.43
-39.35
-47.98
-56.96
-65.59
-72.74
-77.03
-77.17
-72.31
-62.46
-48.42
-31.59
-13.56
4.38
21.29
36.58
49.80
60.44
68.04
72.39
73.71
72.73
70.52
68.10
65.99
64.09
61.83
58.51
53.76
47.79
41.26
34.94
29.30
24.27
19.28
13.54
6.32
-2.85
-14.17
-27.53
-42.47
-58.09
-72.97
-85.23
-93.00
-94.93
-90.67
-81.03
-67.64
-52.44
-36.97
-22.15
-8.33
4.33
15.57
24.90
31.85
36.29
38.60
39.66
40.45
41.80
44.14
47.70
52.78
59.91
69.95
83.69
101.46
122.69
145.77
168.27
187.51
201.15
207.60
206.23
197.12
180.80
157.98
129.36
95.79
58.28
18.17
-22.93
-63.31
-101.21
-134.87
-162.50
-182.32
-192.82
-193.19
-183.79
-166.33
-143.71
-119.41
-96.61
-77.43
-62.66
-51.85
-43.93
-37.74
-32.47
-27.72
-23.45
-19.60
-16.13
-13.04
-10.39
-8.53
-7.96
-9.15
-12.33
-17.45
-24.17
-32.19
-41.33
-51.55
-62.62
-73.87
-83.98
-91.24
-94.07
-91.60
-84.07
-72.63
-58.72
-43.34
-26.63
-8.01
13.14
36.51
60.51
82.39
99.17
108.77
110.76
106.40
97.99
87.84
77.51
67.56
57.89
48.36
39.19
30.98
24.39
19.63
16.31
13.62
10.66
6.91
2.36
-2.69
-8.01
-13.60
-19.75
-26.67
-34.04
-40.79
-45.48
-46.72
-43.85
-37.20
-27.84
-17.11
-6.11
4.53
14.45
23.34
30.77
36.21
39.33
40.27
39.64
38.33
37.09
36.25
35.74
35.08
33.78
31.50
28.22
24.28
20.21
16.51
13.49
11.07
8.78
5.93
1.72
-4.43
-12.82
-23.35
-35.47
-48.14
-59.78
-68.56
-72.69
-70.98
-63.31
-50.65
-34.80
-17.77
-1.24
13.76
26.69
37.28
45.26
50.29
52.17
51.09
47.68
42.97
38.04
33.75
30.53
28.27
26.52
24.70
22.32
19.16
15.33
11.12
6.83
2.65
-1.53
-6.02
-11.20
-17.35
-24.60
-32.89
-41.95
-51.32
-60.13
-67.22
-71.21
-70.91
-65.77
-56.17
-43.31
-28.83
-14.32
-0.87
10.94
20.84
28.55
33.70
36.01
35.60
33.16
29.83
26.84
25.06
24.62
24.97
25.11
24.08
21.31
16.87
11.30
5.43
-0.03
-4.68
-8.60
-12.23
-16.25
-21.32
-27.94
-36.15
-45.51
-54.89
-62.74
-67.32
-67.23
-61.91
-51.85
-38.49
-23.79
-9.59
2.86
13.05
21.02
27.01
31.15
33.39
33.69
32.29
29.81
27.11
24.88
23.38
22.27
20.95
18.98
16.38
13.70
11.72
11.00
11.54
12.73
13.62
13.18
10.62
5.41
-2.77
-14.01
-27.98
-43.72
-59.44
-72.74
-81.21
-83.10
-77.93
-66.66
-51.27
-34.12
-17.18
-1.69
11.79
23.12
32.23
39.01
43.42
45.67
46.23
45.76
44.85
43.73
42.25
40.00
36.57
31.84
26.08
19.84
13.63
7.62
1.53
-5.19
-13.06
-22.15
-31.95
-41.47
-49.53
-55.30
-58.48
-59.29
-58.22
-55.68
-51.81
-46.51
-39.60
-31.18
-21.63
-11.59
-1.69
7.70
16.60
25.22
33.66
41.62
48.31
52.74
54.15
52.36
47.88
41.46
33.80
25.07
15.08
3.49
-9.68
-23.85
-38.01
-51.04
-62.20
-71.29
-78.56
-84.40
-89.05
-92.62
-95.23
-97.26
-99.27
-101.80
-104.89
-107.76
-108.77
-105.98
-97.75
-83.50
-64.01
-41.20
-17.65
4.08
21.90
34.45
41.15
42.13
38.18
30.52
20.65
10.05
0.09
-8.28
-14.54
-18.69
-21.19
-22.76
-24.21
-26.01
-28.20
-30.23
-31.23
-30.42
-27.49
-22.84
-17.39
-12.23
-8.28
-6.05
-5.58
-6.45
-7.76
-8.23
-6.34
-0.75
9.15
22.94
39.21
56.08
71.95
86.05
98.43
109.44
119.11
126.74
131.22
131.61
127.85
121.00
112.84
105.26
99.52
95.95
93.98
92.56
90.65
87.56
83.10
77.47
71.08
64.29
57.36
50.26
42.96
35.31
27.22
18.59
9.25
-0.97
-11.97
-23.15
-33.22
-40.36
-42.76
-39.27
-29.76
-15.22
2.67
21.95
40.67
57.09
69.64
77.07
78.72
74.81
66.55
55.88
44.89
35.19
27.56
21.93
17.73
14.26
11.08
8.04
5.23
2.78
0.70
-1.21
-3.31
-6.13
-10.20
-15.94
-23.56
-32.85
-43.14
-53.15
-61.19
-65.51
-64.73
-58.32
-46.79
-31.53
-14.42
2.71
18.50
32.05
42.82
50.43
54.54
55.01
52.08
46.48
39.38
32.10
25.72
20.82
17.42
15.11
13.31
11.53
9.49
7.17
4.64
1.96
-0.92
-4.22
-8.24
-13.43
-20.14
-28.54
-38.40
-48.86
-58.40
-65.17
-67.41
-64.03
-55.03
-41.41
-24.88
-7.29
9.84
25.41
38.70
49.12
56.11
59.31
58.64
54.58
48.08
40.40
32.71
25.82
19.99
15.05
10.59
6.25
1.91
-2.35
-6.32
-9.95
-13.45
-17.26
-21.92
-27.97
-35.77
-45.44
-56.76
-69.08
-81.29
-91.80
-98.84
-100.84
-97.00
-87.51
-73.53
-56.79
-39.09
-21.90
-6.20
7.33
18.17
25.86
30.12
31.07
29.41
26.40
23.41
21.49
20.99
21.40
21.82
21.42
19.97
17.87
15.99
15.14
15.73
17.70
20.69
24.22
27.78
30.77
32.36
31.71
28.31
22.41
15.24
8.65
4.50
4.03
7.53
14.49
24.06
35.38
47.64
59.84
70.64
78.36
81.46
79.15
71.81
60.94
48.63
36.86
26.95
19.34
13.82
9.98
7.50
6.25
6.13
6.87
7.87
8.23
7.03
3.52
-2.67
-11.44
-22.33
-34.48
-46.63
-57.10
-64.05
-65.86
-61.58
-51.32
-36.32
-18.50
0.06
17.65
33.14
45.88
55.50
61.65
64.09
62.77
58.07
50.75
41.79
32.21
22.85
14.28
6.82
0.65
-4.22
-7.85
-10.42
-12.22
-13.63
-15.09
-17.08
-20.20
-25.09
-32.26
-41.83
-53.17
-64.84
-74.77
-80.78
-81.20
-75.39
-63.82
-47.88
-29.43
-10.36
7.60
23.06
34.95
42.53
45.52
44.21
39.37
32.22
24.10
16.30
9.69
4.65
1.06
-1.54
-3.72
-5.82
-7.88
-9.71
-11.08
-12.09
-13.22
-15.33
-19.39
-26.11
-35.70
-47.59
-60.37
-71.97
-80.09
-82.69
-78.67
-68.27
-53.04
-35.44
-18.12
-3.37
7.27
12.95
13.47
8.98
0.10
-12.14
-26.25
-40.56
-53.61
-64.43
-72.82
-79.15
-84.19
-88.68
-93.17
-97.82
-102.58
-107.23
-111.59
-115.45
-118.59
-120.75
-121.71
-121.26
-119.36
-115.92
-110.65
-102.82
-91.33
-75.11
-53.69
-27.65
1.37
31.21
59.82
85.87
108.71
127.92
143.00
153.15
157.65
156.47
150.40
140.92
129.51
116.97
103.18
87.42
69.08
48.41
26.69
5.87
-12.15
-26.29
-36.65
-44.31
-50.64
-56.61
-62.28
-66.76
-68.64
-66.56
-59.78
-48.30
-32.79
-14.30
6.11
27.45
48.83
69.31
87.86
103.33
114.63
121.05
122.46
119.62
114.00
107.54
102.12
99.01
98.58
100.32
103.13
105.61
106.46
104.54
99.12
89.90
77.20
61.99
45.63
29.51
14.58
1.04
-11.51
-23.58
-35.28
-45.90
-54.01
-57.82
-55.81
-47.29
-32.81
-14.36
4.82
20.74
29.67
29.07
18.46
-0.34
-23.71
-47.26
-67.15
-80.96
-88.14
-89.65
-87.45
-83.81
-80.75
-79.62
-80.87
-84.11
-88.28
-92.18
-94.83
-95.89
-95.71
-95.15
-95.19
-96.48
-99.11
-102.60
-106.09
-108.74
-110.01
-109.85
-108.51
-106.24
-102.82
-97.38
-88.47
-74.49
-54.36
-28.07
2.76
34.94
64.08
85.59
95.91
93.58
79.69
57.41
31.07
4.76
-18.49
-36.98
-50.02
-57.47
-59.59
-57.03
-51.14
-43.96
-37.91
-35.04
-36.38
-41.53
-48.75
-55.38
-58.64
-56.34
-47.40
-32.06
-11.59
12.11
37.01
61.26
83.38
102.20
116.86
126.79
131.76
132.00
128.13
121.09
112.00
101.99
92.06
82.90
74.78
67.46
60.37
52.84
44.42
35.12
25.39
15.90
7.19
-0.65
-8.04
-15.85
-24.98
-35.89
-48.24
-60.78
-71.58
-78.50
-79.78
-74.55
-63.02
-46.41
-26.62
-5.84
13.87
30.82
43.85
52.31
56.11
55.65
51.78
45.65
38.57
31.68
25.80
21.26
17.97
15.67
14.16
13.45
13.69
14.82
16.40
17.47
16.69
12.85
5.31
-5.62
-18.66
-31.73
-42.48
-48.74
-49.05
-42.94
-31.08
-15.04
3.05
21.07
37.35
50.93
61.58
69.55
75.30
79.19
81.34
81.77
80.45
77.45
72.93
67.13
60.27
52.54
44.22
35.73
27.65
20.61
15.06
11.10
8.47
6.60
4.92
2.97
0.55
-2.31
-5.45
-8.64
-11.61
-14.03
-15.51
-15.69
-14.42
-11.80
-8.29
-4.54
-1.26
0.96
1.78
1.16
-0.67
-3.27
-6.13
-8.77
-10.89
-12.43
-13.61
-14.83
-16.52
-19.01
-22.32
-26.30
-30.57
-34.88
-39.20
-43.94
-49.85
-57.87
-68.76
-82.66
-98.79
-115.29
-129.46
-138.29
-139.27
-131.16
-114.44
-91.29
-64.98
-39.02
-16.32
1.29
13.12
19.36
20.76
18.33
13.18
6.41
-0.98
-8.18
-14.69
-20.26
-24.85
-28.48
-31.22
-33.17
-34.64
-36.24
-38.93
-43.75
-51.47
-62.03
-74.07
-85.13
-91.96
-91.55
-81.92
-62.66
-35.02
-1.46
34.95
71.06
104.07
131.73
152.52
165.83
172.04
172.45
168.88
163.25
157.00
150.88
144.88
138.48
131.03
122.07
111.44
99.28
85.81
71.19
55.43
38.45
20.33
1.34
-17.87
-36.34
-52.72
-65.46
-72.86
-73.52
-66.71
-52.67
-32.78
-9.26
15.26
38.33
57.96
72.89
82.44
86.53
85.58
80.41
72.10
61.70
49.98
37.25
23.52
8.72
-7.06
-23.39
-39.54
-54.47
-67.03
-76.05
-80.60
-80.25
-75.34
-67.03
-57.09
-47.42
-39.52
-34.13
-31.19
-30.10
-30.05
-30.36
-30.56
-30.31
-29.38
-27.51
-24.49
-20.28
-15.03
-9.17
-3.26
2.17
6.70
10.07
12.10
12.54
11.15
7.85
3.00
-2.46
-7.20
-9.86
-9.65
-6.60
-1.62
3.84
8.20
10.14
8.89
4.42
-2.22
-9.04
-13.30
-12.26
-4.11
11.19
31.73
54.24
74.95
90.72
99.69
101.31
96.11
85.21
70.15
52.63
34.35
16.76
0.79
-13.38
-26.11
-37.96
-49.20
-59.55
-68.33
-74.80
-78.64
-80.16
-80.29
-80.28
-81.30
-83.95
-88.02
-92.47
-95.61
-95.67
-91.29
-81.86
-67.71
-49.86
-29.85
-9.27
10.24
27.40
41.40
52.14
60.24
66.79
72.76
78.43
83.26
86.11
85.95
82.37
75.77
67.01
56.90
46.06
34.99
24.46
15.77
10.44
9.45
12.51
17.70
21.97
22.37
17.29
7.22
-5.48
-17.50
-25.88
-29.05
-27.03
-21.02
-12.63
-3.18
6.40
15.44
23.20
28.70
30.98
29.36
23.86
15.20
4.78
-5.86
-15.28
-22.53
-27.28
-29.69
-30.40
-30.33
-30.43
-31.47
-33.95
-37.89
-42.93
-48.27
-52.70
-54.81
-53.33
-47.55
-37.70
-25.08
-11.74
0.12
8.78
13.49
14.45
12.51
8.66
3.68
-2.05
-8.38
-15.22
-22.40
-29.65
-36.65
-43.11
-48.79
-53.44
-56.78
-58.55
-58.52
-56.76
-53.66
-50.03
-46.89
-45.20
-45.51
-47.72
-51.10
-54.37
-56.22
-55.53
-51.68
-44.64
-34.93
-23.42
-11.18
0.69
11.24
19.71
25.59
28.61
28.74
26.15
21.31
14.87
7.71
0.76
-5.15
-9.49
-12.15
-13.47
-14.01
-14.36
-14.92
-15.83
-17.03
-18.48
-20.21
-22.30
-24.72
-27.06
-28.56
-28.22
-25.16
-19.04
-10.21
0.47
11.85
22.83
32.66
40.78
46.82
50.49
51.58
50.08
46.26
40.67
34.04
27.09
20.33
14.04
8.29
3.07
-1.48
-5.10
-7.44
-8.26
-7.62
-5.92
-3.88
-2.34
-1.98
-3.17
-5.76
-9.16
-12.40
-14.30
-13.82
-10.31
-3.78
5.09
15.10
24.88
33.23
39.34
42.86
43.78
42.33
38.85
33.78
27.62
20.95
14.43
8.70
4.28
1.53
0.49
0.90
2.18
3.67
4.72
4.97
4.29
2.67
0.06
-3.66
-8.59
-14.51
-20.62
-25.59
-27.91
-26.35
-20.59
-11.37
-0.29
10.76
20.25
27.58
33.23
38.42
44.41
51.95
60.76
69.59
76.66
80.25
79.12
72.77
61.37
45.56
26.41
5.46
-15.19
-32.99
-45.36
-50.41
-47.72
-38.62
-25.91
-12.79
-1.66
6.87
13.90
21.45
31.28
43.98
58.89
74.58
89.58
102.70
112.93
119.11
119.90
114.14
101.60
83.32
61.56
38.99
17.79
-1.06
-17.75
-33.11
-48.00
-62.69
-76.89
-89.81
-100.60
-108.74
-114.14
-117.30
-119.12
-120.70
-122.98
-126.42
-130.84
-135.32
-138.54
-139.08
-135.89
-128.61
-117.63
-103.96
-88.94
-73.93
-60.18
-48.75
-40.42
-35.60
-34.15
-35.40
-38.23
-41.45
-44.03
-45.35
-45.09
-43.04
-38.96
-32.52
-23.56
-12.40
0.06
12.37
22.79
29.75
32.17
29.75
23.17
14.01
4.44
-3.30
-7.60
-7.88
-4.66
0.85
7.35
13.85
19.81
24.94
28.93
31.32
31.72
30.15
27.07
23.39
20.13
18.02
17.39
18.17
19.92
22.03
23.75
24.31
23.04
19.40
13.11
4.17
-7.19
-20.56
-35.10
-49.63
-62.57
-72.22
-77.21
-76.83
-71.31
-61.66
-49.28
-35.57
-21.64
-8.38
3.53
13.44
20.90
25.73
28.12
28.53
27.53
25.47
22.54
18.93
14.98
11.44
9.15
8.79
10.46
13.48
16.51
17.95
16.55
11.79
4.15
-5.02
-13.83
-20.37
-23.25
-21.84
-16.43
-7.97
2.26
12.97
23.04
31.66
38.16
42.09
43.22
41.64
37.78
32.33
26.12
19.81
13.95
8.78
4.37
0.72
-2.26
-4.64
-6.58
-8.36
-10.38
-13.17
-17.32
-23.33
-31.29
-40.62
-49.99
-57.48
-61.08
-59.31
-51.70
-38.94
-22.68
-4.99
12.10
27.02
38.79
46.93
51.40
52.42
50.41
45.97
39.87
32.96
26.04
19.81
14.68
10.79
7.99
6.00
4.48
3.12
1.60
-0.47
-3.59
-8.33
-15.02
-23.51
-32.84
-41.32
-46.84
-47.54
-42.37
-31.43
-15.95
2.19
20.88
38.21
52.62
63.02
68.77
69.89
67.00
61.28
54.11
46.72
39.91
33.86
28.48
23.56
19.02
14.97
11.55
8.79
6.53
4.41
1.87
-1.73
-7.11
-14.73
-24.55
-35.79
-46.80
-55.32
-59.17
-56.88
-48.18
-34.03
-16.28
2.98
21.90
39.06
53.44
64.28
71.01
73.40
71.73
66.84
60.01
52.59
45.62
39.59
34.50
30.03
25.85
21.81
17.98
14.51
11.50
8.86
6.26
3.20
-0.95
-6.86
-15.03
-25.53
-37.61
-49.67
-59.36
-64.21
-62.42
-53.54
-38.63
-19.89
0.15
19.30
36.21
50.22
61.09
68.63
72.61
72.92
69.87
64.27
57.32
50.31
44.22
39.54
36.20
33.75
31.60
29.29
26.64
23.72
20.77
17.93
15.15
12.07
8.18
2.89
-4.22
-13.34
-24.25
-36.21
-47.89
-57.46
-62.89
-62.54
-55.69
-42.93
-25.96
-7.13
11.34
27.78
41.30
51.61
58.65
62.50
63.24
61.16
56.81
51.02
44.76
38.92
34.09
30.47
27.89
25.94
24.19
22.31
20.22
18.03
15.89
13.81
11.58
8.83
5.13
0.23
-6.02
-13.64
-22.62
-32.83
-43.81
-54.56
-63.38
-68.29
-67.47
-60.08
-46.58
-28.68
-8.87
10.40
27.31
40.87
50.79
57.21
60.34
60.46
57.90
53.26
47.33
41.01
35.07
30.06
26.27
23.69
22.14
21.27
20.59
19.64
18.06
15.62
12.29
8.19
3.50
-1.62
-7.05
-12.81
-19.07
-26.13
-34.33
-43.74
-53.87
-63.49
-70.75
-73.66
-70.75
-61.60
-47.01
-28.79
-9.16
9.72
26.21
39.28
48.47
53.77
55.56
54.50
51.41
47.12
42.30
37.41
32.76
28.61
25.20
22.65
20.96
19.82
18.81
17.46
15.43
12.66
9.29
5.58
1.73
-2.20
-6.31
-10.77
-15.82
-21.75
-28.78
-36.99
-46.05
-55.07
-62.57
-66.78
-66.11
-59.70
-47.84
-31.88
-13.93
3.75
19.39
31.91
40.95
46.61
49.24
49.22
46.93
42.91
37.78
32.27
27.05
22.63
19.25
16.90
15.36
14.29
13.32
12.09
10.35
7.96
4.96
1.51
-2.15
-5.88
-9.71
-13.90
-18.90
-25.16
-32.95
-42.14
-52.07
-61.47
-68.63
-71.84
-69.75
-61.97
-49.12
-32.78
-15.02
2.20
17.36
29.61
38.63
44.48
47.28
47.27
44.78
40.30
34.56
28.41
22.71
18.14
15.05
13.39
12.78
12.54
11.99
10.64
8.32
5.22
1.75
-1.67
-4.90
-8.09
-11.67
-16.18
-22.07
-29.53
-38.35
-47.79
-56.60
-63.17
-65.81
-63.33
-55.43
-42.86
-27.30
-10.79
4.84
18.39
29.28
37.40
42.80
45.49
45.45
42.86
38.25
32.47
26.53
21.36
17.54
15.16
13.86
13.03
12.03
10.41
8.01
4.96
1.56
-1.90
-5.22
-8.43
-11.72
-15.46
-20.08
-25.97
-33.35
-42.02
-51.32
-60.04
-66.62
-69.47
-67.50
-60.44
-49.06
-34.93
-19.97
-5.94
5.92
14.95
20.99
24.04
24.22
21.71
16.85
10.34
3.11
-3.85
-9.78
-14.34
-17.64
-20.06
-22.10
-24.04
-25.91
-27.44
-28.19
-27.69
-25.73
-22.36
-18.05
-13.51
-9.45
-6.37
-4.43
-3.37
-2.53
-0.96
2.54
9.29
20.38
36.33
56.68
79.87
103.48
124.78
141.26
151.13
153.41
147.83
134.69
114.79
89.54
60.93
31.36
3.15
-21.87
-42.79
-59.57
-72.80
-83.28
-91.57
-97.86
-101.95
-103.49
-102.21
-98.15
-91.79
-83.98
-75.88
-68.74
-63.59
-60.94
-60.59
-61.46
-61.85
-59.84
-53.84
-43.22
-28.51
-11.35
5.97
21.24
33.00
40.84
45.39
47.90
49.68
51.73
54.50
58.06
62.21
66.73
71.22
75.02
77.09
76.10
70.88
60.87
46.48
29.07
10.59
-7.06
-22.60
-35.66
-46.77
-57.05
-67.69
-79.35
-91.76
-103.47
-112.23
-115.56
-111.52
-99.48
-80.26
-55.88
-29.01
-2.28
22.19
42.89
58.81
69.41
74.48
74.33
69.87
62.49
53.80
45.29
37.89
31.89
26.93
22.30
17.32
11.71
5.71
0.01
-4.68
-8.00
-10.17
-12.06
-14.86
-19.67
-27.15
-37.18
-48.77
-60.16
-69.21
-73.85
-72.68
-65.39
-52.89
-36.96
-19.76
-3.19
11.45
23.52
32.77
39.07
42.27
42.33
39.52
34.59
28.63
22.82
18.03
14.54
12.08
10.07
8.01
5.73
3.43
1.49
0.16
-0.71
-1.64
-3.43
-6.83
-12.34
-20.04
-29.48
-39.63
-48.92
-55.44
-57.37
-53.47
-43.55
-28.65
-10.80
7.65
24.63
38.79
49.55
56.75
60.42
60.54
57.29
51.23
43.45
35.32
28.09
22.45
18.33
15.10
11.98
8.50
4.70
0.98
-2.18
-4.61
-6.56
-8.71
-11.86
-16.72
-23.72
-32.87
-43.59
-54.66
-64.30
-70.46
-71.30
-65.91
-54.51
-38.49
-19.96
-1.03
16.56
31.67
43.54
51.65
55.66
55.54
51.83
45.66
38.50
31.72
26.24
22.27
19.50
17.35
15.31
13.14
10.87
8.72
6.83
5.14
3.35
0.92
-2.78
-8.28
-15.87
-25.28
-35.59
-45.16
-51.95
-54.02
-50.18
-40.40
-25.91
-8.77
8.74
24.70
37.94
47.87
54.33
57.25
56.71
53.11
47.21
40.18
33.24
27.28
22.62
18.97
15.77
12.51
8.97
5.35
2.01
-0.80
-3.07
-5.14
-7.55
-10.98
-16.04
-23.07
-31.98
-41.93
-51.36
-58.18
-60.34
-56.51
-46.65
-32.06
-14.94
2.32
17.80
30.28
39.26
44.60
46.35
44.71
40.25
33.91
26.91
20.42
15.15
11.24
8.35
5.98
3.75
1.58
-0.39
-1.98
-3.17
-4.22
-5.62
-8.02
-12.03
-18.02
-25.89
-34.96
-43.86
-50.75
-53.82
-51.75
-44.20
-31.96
-16.69
-0.45
14.80
27.60
37.09
42.90
44.99
43.63
39.34
32.96
25.59
18.32
12.06
7.26
3.87
1.48
-0.43
-2.29
-4.28
-6.41
-8.57
-10.78
-13.19
-16.22
-20.34
-26.02
-33.40
-42.02
-50.69
-57.66
-60.94
-58.93
-51.02
-37.88
-21.28
-3.59
12.92
26.61
36.62
42.76
45.28
44.61
41.33
36.17
30.02
23.81
18.21
13.55
9.73
6.42
3.27
0.15
-2.87
-5.64
-8.14
-10.63
-13.62
-17.75
-23.65
-31.61
-41.39
-52.03
-61.81
-68.57
-70.26
-65.67
-54.88
-39.36
-21.46
-3.68
12.00
24.50
33.54
39.28
42.03
42.09
39.83
35.82
30.83
25.64
20.86
16.76
13.25
10.08
7.03
4.04
1.25
-1.20
-3.31
-5.37
-7.91
-11.67
-17.30
-25.09
-34.79
-45.33
-54.90
-61.31
-62.62
-57.83
-47.27
-32.51
-15.83
0.56
15.10
27.01
36.07
42.25
45.48
45.76
43.34
38.95
33.66
28.59
24.46
21.44
19.07
16.71
13.83
10.33
6.48
2.80
-0.34
-2.89
-5.19
-7.92
-11.84
-17.60
-25.39
-34.74
-44.37
-52.38
-56.65
-55.50
-48.27
-35.65
-19.41
-1.81
15.08
29.84
41.78
50.63
56.28
58.58
57.52
53.44
47.20
40.11
33.59
28.68
25.69
24.20
23.27
21.91
19.56
16.19
12.26
8.32
4.76
1.50
-1.85
-5.90
-11.19
-18.13
-26.82
-37.00
-47.79
-57.64
-64.43
-66.02
-61.01
-49.37
-32.60
-13.23
6.04
23.16
37.17
47.98
55.82
60.76
62.62
61.21
56.80
50.30
43.09
36.60
31.78
28.85
27.36
26.52
25.53
23.85
21.32
18.10
14.49
10.78
7.08
3.37
-0.60
-5.20
-10.86
-17.98
-26.77
-37.07
-48.04
-58.13
-65.25
-67.36
-63.15
-52.58
-37.03
-18.78
-0.31
16.40
30.26
40.88
48.24
52.38
53.29
51.11
46.36
40.03
33.43
27.82
24.07
22.37
22.23
22.77
23.04
22.42
20.73
18.19
15.16
11.90
8.46
4.64
0.20
-5.10
-11.40
-18.79
-27.27
-36.62
-46.23
-54.92
-61.08
-63.01
-59.51
-50.35
-36.43
-19.55
-1.93
14.48
28.29
38.86
46.06
50.04
51.02
49.29
45.29
39.68
33.40
27.47
22.74
19.66
18.15
17.60
17.24
16.33
14.45
11.64
8.19
4.54
0.97
-2.49
-6.03
-9.91
-14.45
-19.88
-26.43
-34.24
-43.09
-52.18
-60.05
-64.75
-64.46
-58.17
-46.13
-29.83
-11.51
6.54
22.58
35.67
45.41
51.72
54.60
54.15
50.74
45.08
38.23
31.32
25.39
21.08
18.58
17.56
17.36
17.21
16.45
14.77
12.21
9.10
5.76
2.42
-0.98
-4.65
-8.82
-13.71
-19.43
-26.11
-33.81
-42.44
-51.36
-59.32
-64.54
-65.18
-60.06
-49.16
-33.77
-16.03
1.66
17.38
30.06
39.36
45.38
48.33
48.42
45.88
41.22
35.28
29.14
23.84
20.09
18.06
17.36
17.25
16.93
15.82
13.72
10.80
7.44
4.02
0.78
-2.29
-5.40
-8.83
-12.86
-17.74
-23.66
-30.80
-39.09
-48.03
-56.40
-62.43
-64.21
-60.40
-50.83
-36.68
-20.11
-3.48
11.37
23.47
32.64
39.09
42.96
44.25
42.93
39.27
33.89
27.81
22.08
17.57
14.66
13.24
12.79
12.62
12.11
10.92
8.99
6.55
3.92
1.30
-1.33
-4.17
-7.54
-11.76
-17.04
-23.53
-31.26
-39.98
-49.04
-57.18
-62.71
-63.93
-59.71
-50.00
-35.99
-19.70
-3.38
11.23
23.21
32.38
38.92
42.95
44.46
43.40
39.95
34.72
28.69
22.97
18.41
15.42
13.84
13.12
12.56
11.56
9.82
7.31
4.25
0.95
-2.35
-5.49
-8.49
-11.50
-14.78
-18.67
-23.56
-29.71
-37.13
-45.31
-53.10
-58.87
-60.88
-57.90
-49.61
-36.86
-21.38
-5.25
9.70
22.26
31.93
38.69
42.73
44.23
43.38
40.44
35.93
30.55
25.22
20.74
17.60
15.83
15.02
14.48
13.54
11.79
9.24
6.16
2.96
-0.13
-3.08
-6.11
-9.52
-13.55
-18.37
-24.13
-30.99
-38.99
-47.81
-56.52
-63.55
-67.08
-65.57
-58.39
-46.15
-30.57
-13.88
1.84
15.22
25.67
33.18
37.98
40.20
39.84
37.02
32.13
25.99
19.77
14.63
11.36
10.10
10.28
10.89
10.90
9.65
7.07
3.60
-0.10
-3.49
-6.37
-8.99
-11.84
-15.49
-20.37
-26.73
-34.46
-43.04
-51.38
-57.93
-60.99
-59.18
-52.01
-40.14
-25.21
-9.33
5.56
18.18
27.97
34.89
38.98
40.25
38.76
34.79
29.08
22.70
16.83
12.38
9.68
8.44
7.94
7.42
6.30
4.42
1.99
-0.64
-3.16
-5.55
-8.04
-11.05
-15.06
-20.42
-27.30
-35.63
-44.95
-54.33
-62.29
-67.05
-66.98
-61.23
-50.10
-35.02
-18.12
-1.51
13.29
25.53
35.07
41.95
46.05
47.18
45.28
40.76
34.57
28.03
22.36
18.28
15.84
14.48
13.39
11.93
9.75
6.93
3.77
0.60
-2.47
-5.56
-9.00
-13.17
-18.36
-24.86
-32.75
-41.94
-51.98
-61.93
-70.28
-75.15
-74.84
-68.40
-56.11
-39.48
-20.82
-2.52
13.61
26.66
36.51
43.42
47.63
49.20
48.15
44.70
39.50
33.58
28.04
23.68
20.80
19.13
18.07
17.00
15.52
13.50
11.07
8.36
5.45
2.27
-1.31
-5.46
-10.30
-15.94
-22.54
-30.30
-39.31
-49.28
-59.32
-67.76
-72.55
-71.82
-64.65
-51.52
-34.17
-15.14
3.17
19.07
31.79
41.30
47.85
51.69
52.93
51.76
48.59
44.07
39.08
34.39
30.58
27.81
25.95
24.62
23.40
21.92
19.99
17.56
14.72
11.57
8.13
4.31
-0.04
-5.05
-10.81
-17.28
-24.48
-32.45
-41.16
-50.33
-59.04
-65.77
-68.61
-65.97
-57.21
-43.06
-25.48
-6.94
10.31
24.84
36.14
44.34
49.76
52.67
53.21
51.61
48.33
44.08
39.62
35.63
32.46
30.17
28.54
27.23
25.92
24.36
22.42
20.07
17.32
14.19
10.67
6.74
2.41
-2.32
-7.42
-12.96
-19.20
-26.47
-35.07
-44.87
-55.02
-63.89
-69.40
-69.60
-63.48
-51.35
-34.76
-16.08
2.27
18.42
31.27
40.50
46.32
49.15
49.48
47.85
44.78
40.88
36.74
32.90
29.79
27.55
26.11
25.12
24.19
22.91
21.06
18.58
15.50
11.91
7.91
3.58
-0.97
-5.58
-10.19
-14.83
-19.72
-25.32
-32.10
-40.35
-49.70
-58.91
-65.99
-68.74
-65.47
-55.80
-40.85
-22.94
-4.77
11.43
24.42
33.94
40.31
43.98
45.21
44.24
41.32
36.98
31.95
27.01
22.81
19.69
17.71
16.67
16.21
15.95
15.56
14.84
13.70
12.11
10.12
7.71
4.83
1.39
-2.68
-7.50
-13.19
-19.96
-27.99
-37.15
-46.78
-55.56
-61.67
-63.30
-59.31
-49.66
-35.56
-19.08
-2.46
12.47
24.67
33.75
39.77
42.81
42.97
40.36
35.36
28.81
21.82
15.61
11.07
8.52
7.61
7.62
7.74
7.41
6.44
4.91
3.01
0.86
-1.54
-4.26
-7.37
-10.93
-15.02
-19.80
-25.61
-32.63
-40.74
-49.17
-56.39
-60.48
-59.67
-53.04
-41.00
-25.22
-8.06
8.12
21.74
32.16
39.50
44.12
46.27
46.02
43.43
38.84
33.03
27.06
21.95
18.30
16.11
14.91
13.92
12.50
10.28
7.26
3.70
-0.07
-3.86
-7.65
-11.56
-15.79
-20.51
-25.85
-31.94
-38.98
-47.12
-56.10
-65.07
-72.43
-76.14
-74.42
-66.44
-52.74
-35.20
-16.36
1.35
16.37
28.09
36.71
42.63
46.19
47.47
46.48
43.43
38.88
33.67
28.72
24.73
21.94
20.19
18.98
17.79
16.22
14.12
11.53
8.63
5.58
2.41
-1.01
-4.95
-9.65
-15.32
-22.05
-29.83
-38.58
-47.98
-57.24
-65.05
-69.64
-69.29
-62.91
-50.64
-33.89
-15.01
3.45
19.57
32.36
41.73
48.03
51.64
52.75
51.49
48.15
43.32
37.82
32.56
28.13
24.81
22.45
20.65
19.05
17.30
15.22
12.69
9.68
6.22
2.43
-1.55
-5.62
-9.75
-14.13
-19.10
-25.14
-32.62
-41.62
-51.55
-61.10
-68.31
-71.09
-67.96
-58.58
-44.04
-26.53
-8.59
7.67
21.07
31.39
38.90
43.93
46.57
46.80
44.70
40.73
35.73
30.68
26.39
23.24
21.18
19.85
18.80
17.63
16.05
13.95
11.34
8.30
5.00
1.59
-1.90
-5.51
-9.44
-13.88
-19.07
-25.23
-32.51
-40.93
-49.99
-58.57
-64.90
-67.02
-63.44
-53.79
-39.14
-21.62
-3.74
12.40
25.59
35.49
42.28
46.25
47.63
46.58
43.48
38.96
33.87
29.09
25.27
22.61
21.00
20.02
19.20
18.18
16.80
15.05
13.00
10.67
8.00
4.88
1.12
-3.31
-8.44
-14.25
-20.80
-28.21
-36.57
-45.65
-54.62
-62.06
-66.18
-65.39
-58.93
-47.21
-31.73
-14.68
1.85
16.37
28.13
36.99
43.07
46.44
47.16
45.42
41.75
37.03
32.29
28.41
25.86
24.59
24.20
24.14
23.92
23.22
21.90
19.94
17.36
14.20
10.51
6.36
1.83
-2.93
-7.86
-13.01
-18.65
-25.19
-32.90
-41.61
-50.42
-57.66
-61.28
-59.60
-51.97
-39.17
-23.08
-6.17
9.39
22.21
31.80
38.25
41.85
42.85
41.43
37.91
32.89
27.25
21.97
17.88
15.39
14.45
14.55
14.96
15.02
14.32
12.87
10.94
8.90
6.96
5.01
2.73
-0.33
-4.49
-9.87
-16.43
-24.03
-32.45
-41.21
-49.36
-55.52
-58.06
-55.72
-48.15
-36.12
-21.42
-6.13
7.96
19.78
28.98
35.51
39.35
40.38
38.52
34.07
27.91
21.29
15.57
11.71
10.00
9.96
10.69
11.16
10.70
9.15
6.82
4.28
2.01
0.17
-1.48
-3.49
-6.45
-10.84
-16.88
-24.48
-33.25
-42.28
-50.26
-55.60
-56.79
-52.97
-44.21
-31.55
-16.70
-1.53
12.43
24.19
33.29
39.48
42.63
42.78
40.20
35.56
29.89
24.32
19.81
16.85
15.38
14.91
14.71
14.13
12.76
10.55
7.70
4.57
1.46
-1.48
-4.43
-7.75
-11.93
-17.47
-24.67
-33.50
-43.43
-53.33
-61.59
-66.39
-66.25
-60.44
-49.43
-34.65
-18.18
-2.05
12.33
24.28
33.71
40.74
45.36
47.39
46.68
43.43
38.30
32.36
26.78
22.41
19.58
17.97
16.86
15.49
13.35
10.36
6.86
3.29
-0.00
-2.92
-5.69
-8.70
-12.36
-17.03
-22.98
-30.33
-39.01
-48.47
-57.49
-64.32
-67.01
-64.07
-55.15
-41.22
-24.36
-6.99
8.85
22.04
32.35
40.09
45.64
49.08
50.33
49.32
46.31
41.94
37.12
32.70
29.24
26.86
25.26
23.97
22.49
20.47
17.79
14.54
10.92
7.15
3.39
-0.37
-4.23
-8.41
-13.22
-18.94
-25.84
-33.98
-43.02
-52.01
-59.45
-63.51
-62.66
-56.21
-44.63
-29.53
-13.05
2.74
16.39
27.27
35.32
40.81
43.95
44.91
43.90
41.29
37.65
33.68
30.03
27.13
25.14
23.94
23.19
22.50
21.47
19.85
17.49
14.43
10.82
6.87
2.77
-1.35
-5.52
-9.91
-14.81
-20.55
-27.43
-35.48
-44.40
-53.32
-60.77
-64.97
-64.31
-57.94
-46.16
-30.45
-13.00
3.93
18.63
30.22
38.55
43.89
46.61
47.01
45.38
42.07
37.63
32.77
28.20
24.48
21.89
20.35
19.51
18.84
17.87
16.35
14.19
11.50
8.46
5.17
1.68
-2.03
-5.98
-10.26
-15.04
-20.57
-27.15
-34.92
-43.61
-52.35
-59.67
-63.80
-63.17
-57.04
-45.79
-30.94
-14.65
0.93
14.25
24.64
32.09
36.90
39.25
39.22
36.85
32.50
26.93
21.19
16.30
12.89
11.00
10.14
9.60
8.76
7.34
5.42
3.32
1.38
-0.30
-1.89
-3.83
-6.57
-10.47
-15.69
-22.22
-29.86
-38.24
-46.56
-53.57
-57.65
-57.27
-51.58
-40.89
-26.66
-11.04
3.85
16.61
26.71
34.26
39.50
42.41
42.79
40.49
35.85
29.79
23.55
18.28
14.63
12.51
11.32
10.22
8.60
6.22
3.27
0.21
-2.58
-4.86
-6.76
-8.67
-11.13
-14.74
-19.96
-27.06
-35.85
-45.56
-54.73
-61.50
-64.03
-61.06
-52.47
-39.35
-23.65
-7.54
7.18
19.48
29.04
35.96
40.41
42.43
42.08
39.51
35.23
30.04
24.91
20.62
17.57
15.63
14.22
12.68
10.53
7.74
4.63
1.67
-0.84
-2.98
-5.16
-7.90
-11.64
-16.64
-22.97
-30.62
-39.31
-48.28
-56.21
-61.31
-61.88
-56.96
-46.83
-32.96
-17.55
-2.64
10.40
21.12
29.69
36.35
41.05
43.46
43.26
40.47
35.72
30.12
24.94
21.12
18.99
18.19
17.93
17.35
15.95
13.68
10.88
8.00
5.32
2.78
0.05
-3.28
-7.58
-13.04
-19.75
-27.76
-36.89
-46.49
-55.31
-61.59
-63.49
-59.84
-50.60
-36.98
-21.04
-4.96
9.60
21.77
31.40
38.62
43.53
46.14
46.44
44.65
41.32
37.26
33.29
29.98
27.52
25.71
24.13
22.36
20.14
17.46
14.48
11.47
8.57
5.79
2.94
-0.26
-4.07
-8.71
-14.26
-20.79
-28.32
-36.75
-45.61
-53.92
-60.15
-62.58
-59.84
-51.47
-38.23
-21.90
-4.75
11.20
24.61
34.97
42.31
46.87
48.87
48.46
45.94
41.81
36.87
31.96
27.79
24.72
22.73
21.52
20.61
19.58
18.13
16.13
13.61
10.72
7.61
4.38
1.00
-2.63
-6.72
-11.50
-17.17
-23.94
-31.82
-40.47
-49.02
-56.01
-59.74
-58.71
-52.20
-40.68
-25.67
-9.32
6.28
19.61
30.01
37.41
42.08
44.25
44.14
41.91
37.99
33.02
27.80
23.11
19.46
17.03
15.60
14.75
13.96
12.82
11.12
8.85
6.21
3.43
0.67
-2.13
-5.17
-8.81
-13.32
-18.93
-25.63
-33.23
-41.18
-48.56
-54.12
-56.43
-54.35
-47.42
-36.23
-22.28
-7.54
6.17
17.64
26.35
32.32
35.73
36.70
35.34
31.98
27.29
22.35
18.22
15.60
14.58
14.58
14.71
14.14
12.45
9.75
6.56
3.43
0.73
-1.56
-3.84
-6.61
-10.40
-15.50
-21.94
-29.51
-37.66
-45.48
-51.68
-54.85
-53.79
-47.95
-37.75
-24.46
-9.88
4.27
16.74
26.89
34.51
39.47
41.66
40.95
37.53
32.06
25.67
19.61
14.88
11.91
10.43
9.70
8.89
7.38
4.98
1.93
-1.33
-4.37
-7.01
-9.42
-12.02
-15.42
-20.14
-26.51
-34.47
-43.45
-52.31
-59.42
-63.05
-61.86
-55.37
-44.20
-29.90
-14.39
0.56
13.84
24.94
33.76
40.28
44.38
45.88
44.78
41.52
36.91
31.98
27.69
24.62
22.79
21.77
20.84
19.33
16.86
13.42
9.36
5.14
1.09
-2.78
-6.73
-11.23
-16.71
-23.46
-31.54
-40.68
-50.22
-59.05
-65.68
-68.45
-66.11
-58.20
-45.43
-29.50
-12.62
3.18
16.57
27.07
34.85
40.27
43.61
44.96
44.33
41.88
38.09
33.67
29.41
25.92
23.49
21.98
21.00
20.03
18.61
16.54
13.84
10.65
7.24
3.74
0.15
-3.68
-8.01
-13.14
-19.37
-26.83
-35.41
-44.53
-53.05
-59.36
-61.77
-59.09
-51.00
-38.38
-22.94
-6.78
8.27
21.01
31.03
38.37
43.30
46.04
46.70
45.42
42.51
38.53
34.19
30.24
27.21
25.29
24.32
23.85
23.31
22.29
20.57
18.19
15.34
12.18
8.81
5.22
1.32
-3.03
-7.93
-13.51
-19.96
-27.44
-35.95
-45.06
-53.72
-60.30
-62.97
-60.31
-51.95
-38.76
-22.65
-5.99
9.23
21.81
31.48
38.53
43.37
46.20
47.04
45.87
42.92
38.81
34.37
30.38
27.34
25.34
24.13
23.35
22.62
21.69
20.35
18.44
15.84
12.54
8.66
4.43
0.21
-3.80
-7.59
-11.41
-15.76
-21.15
-27.98
-36.23
-45.36
-54.15
-60.98
-64.11
-62.26
-55.10
-43.35
-28.68
-13.10
1.53
13.99
23.81
30.95
35.60
37.88
37.90
35.84
32.17
27.65
23.19
19.58
17.26
16.25
16.17
16.40
16.34
15.54
13.84
11.31
8.24
4.96
1.76
-1.20
-3.97
-6.79
-10.04
-14.21
-19.71
-26.72
-34.91
-43.34
-50.49
-54.58
-54.09
-48.33
-37.76
-23.89
-8.77
5.60
17.81
27.30
34.02
38.20
39.95
39.30
36.34
31.52
25.75
20.18
15.84
13.25
12.27
12.28
12.38
11.87
10.42
8.02
5.00
1.72
-1.55
-4.65
-7.66
-10.76
-14.28
-18.58
-24.00
-30.74
-38.69
-47.29
-55.37
-61.30
-63.36
-60.30
-51.83
-38.86
-23.20
-7.01
7.90
20.46
30.35
37.71
42.73
45.44
45.76
43.72
39.66
34.31
28.62
23.52
19.56
16.87
15.08
13.56
11.73
9.25
6.14
2.70
-0.68
-3.75
-6.47
-9.06
-11.91
-15.42
-19.94
-25.72
-32.84
-41.10
-49.84
-57.83
-63.40
-64.88
-61.11
-51.98
-38.58
-22.81
-6.84
7.56
19.46
28.73
35.62
40.46
43.32
44.11
42.77
39.50
34.88
29.74
25.01
21.36
19.09
18.00
17.50
16.84
15.43
13.04
9.85
6.34
2.97
-0.04
-2.82
-5.76
-9.34
-13.97
-19.87
-27.07
-35.40
-44.37
-52.98
-59.83
-63.26
-61.89
-55.16
-43.57
-28.64
-12.44
3.02
16.33
26.82
34.47
39.54
42.35
43.13
42.10
39.54
35.88
31.70
27.63
24.24
21.82
20.41
19.73
19.35
18.81
17.75
16.01
13.58
10.54
7.00
3.07
-1.15
-5.57
-10.17
-15.03
-20.43
-26.68
-34.01
-42.16
-50.24
-56.76
-59.96
-58.41
-51.56
-40.00
-25.33
-9.60
5.29
18.09
28.27
35.81
40.93
43.72
44.19
42.41
38.73
33.85
28.69
24.12
20.70
18.54
17.35
16.57
15.67
14.25
12.18
9.55
6.58
3.53
0.57
-2.27
-5.10
-8.16
-11.75
-16.14
-21.55
-28.05
-35.53
-43.51
-51.09
-56.95
-59.56
-57.71
-50.92
-39.72
-25.61
-10.53
3.71
15.95
25.63
32.72
37.27
39.27
38.71
35.75
30.95
25.27
19.81
15.50
12.82
11.74
11.73
12.03
11.90
10.86
8.80
5.97
2.84
-0.19
-2.96
-5.67
-8.71
-12.49
-17.36
-23.43
-30.59
-38.49
-46.32
-52.88
-56.71
-56.41
-51.23
-41.41
-28.14
-13.27
1.36
14.35
24.97
32.99
38.36
41.07
41.05
38.47
33.85
28.12
22.41
17.69
14.51
12.85
12.17
11.72
10.80
8.98
6.22
2.84
-0.74
-4.10
-7.10
-9.92
-12.98
-16.87
-22.14
-29.14
-37.84
-47.75
-57.72
-66.07
-70.91
-70.65
-64.61
-53.33
-38.43
-22.03
-6.09
8.10
20.07
29.77
37.19
42.13
44.28
43.53
40.30
35.51
30.38
25.99
22.96
21.27
20.46
19.86
18.87
17.15
14.65
11.56
8.15
4.64
1.14
-2.39
-6.14
-10.40
-15.57
-22.07
-30.15
-39.67
-49.90
-59.41
-66.33
-68.86
-65.80
-57.09
-43.78
-27.78
-11.18
4.27
17.53
28.28
36.57
42.55
46.26
47.63
46.64
43.60
39.14
34.14
29.52
25.91
23.53
22.13
21.22
20.23
18.79
16.76
14.16
11.13
7.80
4.28
0.58
-3.32
-7.56
-12.40
-18.19
-25.25
-33.69
-43.05
-52.21
-59.45
-62.87
-61.02
-53.45
-40.95
-25.32
-8.81
6.59
19.61
29.86
37.50
42.85
46.08
47.17
46.13
43.20
39.02
34.40
30.16
26.83
24.58
23.24
22.41
21.65
20.54
18.83
16.39
13.27
9.67
5.87
2.10
-1.61
-5.40
-9.59
-14.60
-20.82
-28.47
-37.44
-47.11
-56.22
-63.07
-65.88
-63.36
-55.23
-42.35
-26.53
-9.88
5.74
19.11
29.75
37.64
42.93
45.81
46.41
44.99
41.96
37.96
33.76
30.06
27.38
25.86
25.26
25.05
24.57
23.28
20.95
17.66
13.75
9.62
5.62
1.82
-1.88
-5.79
-10.29
-15.77
-22.52
-30.61
-39.77
-49.18
-57.49
-62.98
-63.96
-59.42
-49.37
-35.02
-18.38
-1.71
13.22
25.41
34.64
41.13
45.11
46.73
46.03
43.20
38.76
33.54
28.49
24.44
21.86
20.73
20.64
20.89
20.79
19.82
17.80
14.91
11.54
8.14
4.97
2.06
-0.88
-4.24
-8.44
-13.83
-20.56
-28.59
-37.42
-46.10
-53.14
-56.95
-56.17
-50.30
-39.83
-26.20
-11.28
3.19
15.96
26.32
34.00
38.88
40.94
40.28
37.26
32.58
27.18
22.04
17.98
15.40
14.28
14.23
14.57
14.66
14.00
12.43
10.13
7.46
4.79
2.27
-0.24
-3.07
-6.65
-11.36
-17.41
-24.80
-33.18
-41.72
-49.06
-53.59
-53.82
-48.99
-39.37
-26.24
-11.53
2.89
15.63
26.04
33.99
39.59
42.87
43.77
42.26
38.60
33.45
27.78
22.58
18.61
16.15
14.96
14.38
13.69
12.34
10.14
7.27
4.08
0.86
-2.29
-5.52
-9.14
-13.45
-18.70
-25.03
-32.51
-41.03
-50.17
-58.91
-65.67
-68.65
-66.41
-58.48
-45.65
-29.75
-13.06
2.44
15.54
25.91
33.72
39.20
42.43
43.29
41.80
38.34
33.70
28.87
24.73
21.76
19.95
18.84
17.86
16.51
14.55
12.00
9.06
5.94
2.83
-0.26
-3.39
-6.72
-10.46
-14.85
-20.18
-26.74
-34.69
-43.84
-53.36
-61.73
-66.97
-67.26
-61.67
-50.56
-35.53
-18.88
-2.77
11.33
22.83
31.75
38.26
42.37
43.99
43.10
40.06
35.66
30.92
26.76
23.71
21.81
20.74
19.99
19.08
17.73
15.85
13.52
10.89
8.07
5.15
2.08
-1.23
-4.96
-9.33
-14.63
-21.11
-28.93
-37.88
-47.17
-55.41
-60.80
-61.60
-56.82
-46.59
-32.27
-16.00
-0.02
13.99
25.22
33.61
39.45
43.08
44.60
44.08
41.72
38.01
33.74
29.73
26.55
24.40
23.08
22.17
21.28
20.17
18.82
17.27
15.59
13.72
11.46
8.54
4.74
-0.03
-5.69
-12.06
-19.00
-26.55
-34.85
-43.91
-53.36
-62.08
-68.39
-70.51
-67.26
-58.55
-45.61
-30.46
-15.30
-1.81
9.18
17.52
23.42
27.04
28.42
27.54
24.57
19.90
14.18
8.13
2.40
-2.57
-6.55
-9.53
-11.69
-13.36
-14.98
-16.98
-19.71
-23.36
-27.91
-33.20
-39.08
-45.37
-52.05
-59.17
-66.81
-75.12
-84.22
-94.06
-104.25
-113.87
-121.53
-125.65
-125.06
-119.47
-109.72
-97.46
-84.50
-71.98
-60.06
-47.99
-34.64
-19.18
-1.58
17.27
35.78
52.13
64.82
73.15
77.31
78.29
77.31
75.40
73.11
70.64
68.25
66.54
66.64
69.59
75.76
84.39
93.65
101.19
104.92
103.64
97.06
85.66
70.51
53.21
35.84
20.84
10.55
6.50
8.95
16.76
28.02
40.76
53.73
66.47
78.89
90.66
100.88
108.33
111.98
111.70
108.37
103.55
98.80
95.02
92.16
89.47
86.05
81.34
75.43
68.93
62.58
56.90
51.95
47.32
42.40
36.62
29.67
21.49
12.25
2.26
-7.98
-17.67
-25.75
-31.03
-32.45
-29.51
-22.45
-12.30
-0.60
11.07
21.42
29.65
35.34
38.32
38.50
35.91
30.82
23.83
15.96
8.37
2.05
-2.50
-5.43
-7.34
-8.98
-10.88
-13.19
-15.75
-18.45
-21.46
-25.41
-31.14
-39.47
-50.88
-65.31
-82.19
-100.45
-118.52
-134.34
-145.64
-150.40
-147.52
-137.24
-121.14
-101.57
-80.85
-60.68
-41.97
-25.15
-10.62
1.07
9.40
14.24
16.16
16.29
16.03
16.58
18.66
22.49
27.93
34.65
42.30
50.55
59.27
68.41
78.02
88.12
98.50
108.73
118.31
126.79
133.99
140.00
144.81
148.07
149.00
146.62
140.18
129.72
116.15
101.04
85.90
71.51
57.71
43.56
28.04
10.76
-7.80
-26.55
-44.34
-60.70
-76.01
-91.23
-107.28
-124.34
-141.67
-157.77
-171.12
-180.81
-186.85
-190.04
-191.22
-190.84
-188.58
-183.67
-175.38
-163.73
-149.71
-135.20
-122.46
-113.38
-109.08
-109.70
-114.36
-121.38
-128.40
-132.63
-131.34
-122.41
-105.00
-79.91
-49.44
-16.78
14.80
42.77
65.65
82.91
94.64
101.13
102.69
99.81
93.33
84.51
74.91
66.12
59.33
55.06
53.09
52.55
52.29
51.24
48.61
44.05
37.53
29.23
19.31
7.92
-4.81
-18.77
-33.90
-50.06
-66.89
-83.55
-98.42
-109.32
-113.92
-110.51
-98.75
-79.93
-56.62
-31.99
-8.88
10.72
25.76
35.95
41.37
42.35
39.49
33.72
26.38
18.99
12.96
9.21
7.91
8.43
9.74
10.78
10.87
9.91
8.24
6.38
4.58
2.78
0.57
-2.65
-7.53
-14.63
-24.35
-36.68
-50.92
-65.59
-78.44
-87.02
-89.38
-84.72
-73.65
-57.89
-39.77
-21.51
-4.89
8.83
18.82
24.49
25.61
22.36
15.53
6.49
-3.11
-11.61
-17.88
-21.48
-22.72
-22.35
-21.29
-20.15
-19.22
-18.41
-17.53
-16.51
-15.49
-14.80
-14.86
-16.05
-18.66
-22.82
-28.43
-35.06
-41.74
-46.99
-48.96
-45.93
-36.87
-21.78
-1.84
20.89
43.98
65.21
82.84
95.86
103.82
106.74
105.03
99.44
91.08
81.33
71.62
63.21
56.90
52.88
50.80
49.92
49.36
48.43
46.74
44.26
41.14
37.57
33.57
28.94
23.34
16.34
7.69
-2.68
-14.54
-27.29
-39.87
-50.81
-58.30
-60.54
-56.35
-45.57
-29.24
-9.49
11.12
30.13
45.79
57.14
63.97
66.51
65.15
60.52
53.42
44.91
36.20
28.46
22.60
18.99
17.45
17.35
17.87
18.28
18.17
17.41
16.09
14.23
11.70
8.14
3.16
-3.60
-12.28
-22.85
-35.00
-48.18
-61.37
-73.02
-81.25
-84.23
-80.77
-70.77
-55.27
-36.10
-15.42
4.81
23.01
37.90
48.49
54.10
54.56
50.49
43.32
34.98
27.42
22.05
19.42
19.32
20.93
23.34
25.73
27.65
28.92
29.68
30.09
30.27
30.10
29.22
26.99
22.74
15.93
6.46
-5.05
-17.31
-28.48
-36.54
-39.81
-37.40
-29.42
-16.94
-1.66
14.58
30.10
43.54
53.91
60.55
63.07
61.56
56.57
49.15
40.61
32.23
24.89
18.95
14.27
10.39
6.88
3.48
0.14
-3.02
-5.91
-8.66
-11.59
-15.22
-20.09
-26.63
-34.99
-44.86
-55.43
-65.32
-72.83
-76.25
-74.41
-67.07
-54.99
-39.79
-23.40
-7.60
6.31
17.50
25.57
30.31
31.72
30.07
25.99
20.40
14.30
8.52
3.53
-0.57
-3.93
-6.73
-8.97
-10.60
-11.56
-11.94
-12.09
-12.52
-13.83
-16.60
-21.30
-28.20
-37.27
-48.00
-59.29
-69.48
-76.67
-79.19
-76.06
-67.37
-54.18
-38.25
-21.49
-5.62
8.01
18.47
25.15
27.84
26.86
23.19
18.33
13.89
11.14
10.62
12.07
14.78
18.02
21.53
25.49
30.22
35.75
41.48
46.10
48.04
45.95
39.22
28.27
14.54
0.21
-12.32
-20.90
-24.19
-21.90
-14.80
-4.42
7.37
18.79
28.47
35.55
39.67
40.80
39.28
35.69
30.85
25.57
20.53
16.00
11.90
7.91
3.69
-0.86
-5.54
-9.98
-13.76
-16.67
-18.76
-20.31
-21.74
-23.52
-26.07
-29.67
-34.43
-40.10
-45.91
-50.72
-53.13
-51.91
-46.40
-36.69
-23.60
-8.42
7.42
22.67
36.27
47.35
55.14
59.09
59.05
55.43
49.23
41.81
34.40
27.83
22.39
18.00
14.48
11.83
10.28
10.07
11.17
13.11
15.00
15.80
14.57
10.82
4.54
-3.70
-12.90
-21.65
-28.38
-31.53
-29.91
-23.06
-11.46
3.47
19.66
34.83
47.03
55.02
58.44
57.68
53.64
47.43
40.09
32.48
25.14
18.35
12.19
6.62
1.57
-2.98
-6.90
-10.03
-12.25
-13.73
-15.02
-17.02
-20.74
-26.85
-35.24
-44.66
-52.85
-57.15
-55.43
-46.92
-32.66
-15.16
2.55
17.99
30.04
39.04
46.20
52.52
58.06
61.74
61.87
57.25
47.85
35.12
21.67
10.56
4.49
5.17
12.77
25.55
39.87
50.72
52.88
42.65
19.28
-14.24
-52.07
-87.33
-114.49
-130.97
-137.33
-136.16
-130.40
-121.97
-111.45
-98.58
-83.27
-66.20
-48.80
-32.69
-18.86
-7.41
2.26
10.75
18.03
23.27
25.29
23.30
17.57
9.60
1.62
-4.21
-6.64
-5.69
-2.46
1.49
4.82
6.86
7.67
7.74
7.58
7.44
7.13
6.11
3.56
-1.21
-8.49
-17.82
-27.91
-36.78
-42.17
-42.30
-36.30
-24.58
-8.62
9.53
27.83
44.73
59.28
70.95
79.54
85.02
87.55
87.55
85.71
82.81
79.49
76.06
72.46
68.39
63.49
57.55
50.67
43.20
35.66
28.56
22.16
16.34
10.61
4.24
-3.48
-12.96
-24.17
-36.54
-49.00
-60.10
-68.27
-72.18
-71.03
-64.86
-54.49
-41.45
-27.45
-14.07
-2.40
6.87
13.32
16.71
16.91
14.11
8.89
2.39
-4.06
-9.20
-12.28
-13.29
-12.82
-11.79
-11.00
-10.88
-11.43
-12.42
-13.66
-15.12
-17.00
-19.61
-23.28
-28.28
-34.71
-42.38
-50.67
-58.35
-63.75
-65.19
-61.52
-52.56
-39.31
-23.60
-7.58
6.93
18.78
27.48
33.02
35.59
35.45
32.90
28.43
22.76
16.84
11.59
7.72
5.47
4.62
4.63
4.91
5.04
4.84
4.30
3.40
1.92
-0.53
-4.41
-10.13
-17.82
-27.37
-38.28
-49.68
-60.27
-68.39
-72.40
-71.06
-63.99
-51.75
-35.75
-17.72
0.62
17.87
32.90
44.71
52.34
55.06
52.59
45.37
34.71
22.52
10.85
1.40
-4.90
-8.02
-8.66
-7.90
-6.78
-5.96
-5.73
-6.06
-6.84
-8.02
-9.75
-12.28
-15.87
-20.81
-27.25
-35.19
-44.14
-53.05
-60.33
-64.08
-62.75
-55.55
-42.91
-26.34
-8.00
9.93
25.76
38.49
47.75
53.42
55.59
54.37
50.17
43.71
36.07
28.51
22.14
17.67
15.19
14.24
14.02
13.72
12.77
10.95
8.44
5.57
2.63
-0.30
-3.36
-6.89
-11.21
-16.55
-23.02
-30.56
-38.88
-47.36
-54.91
-60.00
-61.06
-56.90
-47.21
-32.72
-15.15
3.31
20.55
34.95
45.55
52.00
54.31
52.76
47.92
40.63
32.02
23.38
15.94
10.58
7.68
7.06
8.07
9.87
11.68
12.87
13.17
12.57
11.21
9.32
7.02
4.32
1.01
-3.22
-8.75
-15.89
-24.61
-34.42
-44.23
-52.41
-57.17
-57.02
-51.29
-40.37
-25.65
-9.03
7.57
22.56
34.84
43.68
48.65
49.52
46.50
40.24
31.90
22.94
14.78
8.41
4.27
2.23
1.70
1.92
2.13
1.85
0.87
-0.68
-2.51
-4.36
-6.20
-8.28
-11.11
-15.41
-21.79
-30.48
-41.10
-52.52
-62.91
-70.17
-72.38
-68.42
-58.31
-43.26
-25.25
-6.49
11.06
26.05
37.67
45.46
49.16
48.66
44.22
36.55
26.98
17.10
8.50
2.25
-1.20
-2.18
-1.46
0.07
1.57
2.51
2.60
1.79
0.12
-2.26
-5.26
-8.95
-13.57
-19.53
-27.27
-37.00
-48.38
-60.34
-71.13
-78.64
-80.94
-76.80
-66.21
-50.29
-31.07
-10.91
8.06
24.31
37.02
45.85
50.75
51.80
49.27
43.74
36.19
27.95
20.40
14.68
11.32
10.23
10.76
12.03
13.21
13.81
13.67
12.90
11.67
10.09
8.11
5.56
2.27
-1.96
-7.38
-14.29
-22.94
-33.11
-43.88
-53.36
-59.10
-58.83
-51.33
-36.98
-17.70
3.71
24.48
42.57
56.91
67.16
73.37
75.68
74.32
69.74
62.73
54.40
45.94
38.40
32.46
28.43
26.15
25.18
24.86
24.55
23.76
22.31
20.26
17.82
15.11
12.03
8.30
3.59
-2.37
-9.71
-18.48
-28.64
-39.82
-51.04
-60.53
-65.98
-65.20
-56.94
-41.58
-21.09
1.51
23.14
41.48
55.26
64.26
68.75
69.23
66.25
60.48
52.84
44.45
36.53
30.07
25.74
23.71
23.71
25.09
27.01
28.60
29.16
28.38
26.34
23.39
19.95
16.27
12.34
7.92
2.69
-3.65
-11.40
-20.81
-31.93
-44.31
-56.67
-66.78
-72.02
-70.22
-60.67
-44.48
-24.32
-3.47
15.24
30.19
40.94
47.85
51.43
52.00
49.73
44.84
37.92
29.88
21.87
14.92
9.83
6.93
6.09
6.76
8.13
9.37
9.82
9.16
7.33
4.47
0.78
-3.62
-8.58
-14.04
-19.93
-26.28
-33.33
-41.41
-50.66
-60.61
-69.93
-76.57
-78.36
-73.78
-62.62
-46.14
-26.63
-6.71
11.43
26.32
37.37
44.41
47.54
46.95
42.99
36.30
27.89
19.06
11.18
5.39
2.34
2.01
3.74
6.49
9.10
10.73
10.97
9.89
7.88
5.35
2.46
-0.88
-5.05
-10.55
-17.77
-26.79
-37.17
-47.82
-57.09
-63.02
-63.79
-58.34
-46.76
-30.35
-11.31
7.87
25.12
39.07
49.12
55.18
57.35
55.83
50.96
43.44
34.37
25.20
17.31
11.68
8.65
7.84
8.41
9.37
9.85
9.37
7.83
5.40
2.41
-0.89
-4.45
-8.42
-13.12
-18.94
-26.27
-35.26
-45.57
-56.19
-65.37
-70.99
-71.05
-64.42
-51.29
-33.20
-12.62
7.83
26.00
40.62
51.18
57.69
60.39
59.55
55.56
49.03
40.95
32.54
25.14
19.83
17.17
17.00
18.59
20.87
22.81
23.76
23.54
22.37
20.62
18.54
16.14
13.17
9.25
4.06
-2.65
-10.97
-20.67
-31.03
-40.65
-47.46
-49.08
-43.50
-29.90
-9.17
16.10
42.25
65.53
83.17
93.99
98.39
97.96
94.69
90.30
85.87
81.80
78.11
74.62
71.25
67.90
64.37
60.22
54.87
47.84
39.02
28.83
18.15
7.89
-1.34
-9.43
-16.77
-23.95
-31.51
-39.67
-48.49
-57.96
-68.07
-78.64
-89.07
-97.99
-103.48
-103.53
-96.78
-83.20
-64.22
-42.32
-20.30
-0.54
15.49
27.12
34.38
37.64
37.43
34.40
29.39
23.29
17.05
11.53
7.36
4.88
4.10
4.73
6.20
7.85
8.99
9.15
8.14
6.00
2.98
-0.70
-4.95
-9.74
-15.10
-20.98
-27.30
-34.04
-41.37
-49.50
-58.40
-67.34
-74.75
-78.47
-76.50
-67.81
-52.95
-33.95
-13.68
5.03
20.26
31.23
38.04
41.22
41.31
38.81
34.24
28.35
22.11
16.56
12.49
10.27
9.75
10.42
11.73
13.22
14.57
15.54
15.87
15.25
13.43
10.31
6.03
0.94
-4.52
-9.97
-15.25
-20.43
-25.90
-32.17
-39.64
-48.21
-56.99
-64.28
-67.91
-65.89
-57.34
-42.74
-24.01
-3.86
15.08
30.91
42.69
50.30
54.11
54.59
52.23
47.60
41.41
34.53
27.92
22.41
18.59
16.71
16.61
17.81
19.61
21.18
21.85
21.18
19.09
15.82
11.70
7.01
1.92
-3.57
-9.49
-15.87
-22.79
-30.33
-38.67
-47.72
-56.87
-64.82
-69.69
-69.54
-63.18
-50.65
-33.40
-13.86
5.32
21.96
34.74
43.25
47.68
48.58
46.61
42.50
37.07
31.13
25.44
20.61
17.04
14.84
13.95
14.11
14.98
16.24
17.71
19.28
20.85
22.31
23.39
23.77
23.17
21.49
18.84
15.45
11.38
6.38
-0.14
-8.93
-20.47
-34.50
-49.79
-64.17
-74.95
-79.71
-77.10
-67.29
-51.97
-33.83
-15.70
0.20
12.62
21.24
26.32
28.35
27.87
25.41
21.68
17.46
13.52
10.46
8.55
7.77
7.93
8.81
10.22
11.98
13.81
15.33
16.06
15.57
13.60
10.13
5.44
-0.09
-6.00
-11.91
-17.54
-22.81
-27.88
-33.15
-39.18
-46.42
-54.91
-63.97
-72.08
-77.18
-77.29
-71.12
-58.63
-41.11
-20.78
-0.23
18.35
33.43
44.34
51.01
53.75
53.08
49.65
44.27
37.86
31.41
25.75
21.43
18.62
17.17
16.74
16.90
17.37
17.93
18.42
18.60
18.13
16.59
13.64
9.21
3.53
-2.81
-9.13
-14.83
-19.69
-23.89
-28.03
-32.91
-39.25
-47.35
-56.78
-66.32
-74.00
-77.68
-75.53
-66.81
-52.08
-33.22
-12.87
6.35
22.44
34.36
41.94
45.60
45.94
43.62
39.32
33.83
28.03
22.77
18.69
16.06
14.73
14.32
14.41
14.69
14.96
15.07
14.82
13.95
12.22
9.51
5.90
1.64
-2.99
-7.75
-12.50
-17.27
-22.17
-27.47
-33.56
-40.79
-49.15
-57.91
-65.51
-69.75
-68.52
-60.59
-46.14
-26.95
-5.77
14.56
31.89
45.09
54.00
58.93
60.26
58.36
53.65
46.87
39.00
31.22
24.53
19.55
16.39
14.84
14.50
14.92
15.71
16.36
16.36
15.22
12.63
8.58
3.37
-2.50
-8.53
-14.38
-20.00
-25.60
-31.61
-38.58
-46.94
-56.72
-67.26
-77.01
-83.83
-85.44
-80.32
-68.25
-50.49
-29.49
-8.06
11.38
27.25
38.92
46.44
50.16
50.56
48.17
43.67
37.92
31.87
26.35
21.95
18.96
17.35
16.93
17.40
18.38
19.47
20.22
20.21
19.11
16.76
13.18
8.58
3.25
-2.53
-8.55
-14.76
-21.26
-28.32
-36.25
-45.21
-54.89
-64.23
-71.52
-74.71
-72.03
-62.73
-47.41
-28.01
-7.21
12.32
28.62
40.68
48.41
52.20
52.64
50.32
45.82
39.88
33.33
27.02
21.64
17.62
15.02
13.69
13.35
13.68
14.38
15.10
15.37
14.70
12.69
9.21
4.48
-1.04
-6.76
-12.25
-17.37
-22.31
-27.53
-33.63
-41.07
-49.95
-59.63
-68.69
-75.02
-76.36
-70.96
-58.42
-39.90
-17.94
4.37
24.26
39.95
50.76
56.88
58.94
57.67
53.78
48.04
41.27
34.30
27.92
22.64
18.77
16.37
15.35
15.48
16.42
17.63
18.49
18.37
16.82
13.71
9.28
4.01
-1.51
-6.83
-11.77
-16.44
-21.25
-26.72
-33.39
-41.59
-51.11
-61.02
-69.56
-74.48
-73.63
-65.79
-51.22
-31.70
-10.06
10.70
28.23
41.31
49.78
54.16
55.17
53.46
49.59
44.09
37.58
30.85
24.68
19.73
16.44
14.91
14.94
16.07
17.66
18.98
19.38
18.39
15.85
11.85
6.74
0.90
-5.27
-11.43
-17.40
-23.14
-28.92
-35.22
-42.64
-51.52
-61.47
-71.17
-78.42
-80.77
-76.38
-64.74
-47.00
-25.64
-3.68
16.23
32.40
44.22
51.88
55.85
56.52
54.18
49.25
42.38
34.65
27.30
21.44
17.68
16.05
16.07
16.99
18.11
18.88
19.02
18.39
16.99
14.90
12.21
9.07
5.59
1.82
-2.24
-6.67
-11.64
-17.47
-24.54
-33.14
-43.09
-53.50
-62.60
-68.12
-67.95
-60.91
-47.37
-29.10
-8.85
10.51
26.80
38.80
46.28
49.63
49.49
46.59
41.69
35.64
29.32
23.56
18.95
15.78
13.93
13.13
13.03
13.37
13.98
14.71
15.28
15.30
14.32
12.01
8.28
3.33
-2.41
-8.42
-14.29
-19.78
-24.97
-30.23
-36.12
-43.19
-51.61
-60.83
-69.41
-75.25
-76.15
-70.53
-58.12
-40.07
-18.66
3.33
23.40
39.84
51.84
59.33
62.64
62.31
59.03
53.62
47.03
40.31
34.37
29.79
26.71
24.97
24.16
23.95
24.13
24.50
24.84
24.74
23.68
21.22
17.26
12.09
6.33
0.63
-4.59
-9.26
-13.72
-18.52
-24.26
-31.41
-40.04
-49.68
-59.03
-66.12
-68.79
-65.32
-55.22
-39.46
-20.35
-0.70
16.92
30.86
40.51
46.10
48.20
47.41
44.23
39.13
32.66
25.56
18.70
12.89
8.79
6.69
6.52
7.80
9.80
11.71
12.79
12.54
10.81
7.70
3.53
-1.22
-6.14
-10.93
-15.50
-19.94
-24.64
-30.10
-36.79
-44.81
-53.57
-61.64
-66.95
-67.42
-61.59
-49.35
-32.01
-11.95
8.06
25.68
39.46
48.88
54.11
55.64
53.97
49.62
43.18
35.39
27.20
19.61
13.45
9.25
7.14
6.78
7.64
9.04
10.27
10.73
9.98
7.84
4.33
-0.28
-5.65
-11.40
-17.22
-22.98
-28.72
-34.67
-41.22
-48.78
-57.50
-66.91
-75.69
-81.79
-82.98
-77.65
-65.53
-47.91
-27.29
-6.56
11.84
26.48
36.95
43.53
46.73
47.03
44.82
40.60
35.04
29.01
23.39
18.91
16.00
14.76
14.96
16.14
17.70
18.97
19.35
18.47
16.24
12.91
8.91
4.70
0.58
-3.43
-7.48
-11.88
-16.94
-22.94
-30.08
-38.32
-47.21
-55.65
-61.95
-64.09
-60.37
-50.10
-33.99
-14.07
6.92
26.29
42.20
53.79
61.13
64.71
65.11
62.84
58.32
52.14
45.06
37.99
31.78
27.04
24.03
22.67
22.66
23.51
24.71
25.68
25.89
24.88
22.39
18.43
13.28
7.43
1.40
-4.46
-10.04
-15.56
-21.50
-28.49
-36.91
-46.71
-57.03
-66.17
-71.89
-72.10
-65.55
-52.44
-34.49
-14.38
5.03
21.54
34.02
42.30
46.79
48.00
46.36
42.22
36.11
28.85
21.46
15.02
10.36
7.87
7.43
8.50
10.31
12.07
13.14
13.15
11.98
9.66
6.34
2.20
-2.55
-7.72
-13.11
-18.69
-24.59
-31.18
-38.75
-47.28
-56.06
-63.61
-67.95
-67.20
-60.25
-47.30
-29.83
-10.18
9.08
25.89
38.95
47.80
52.52
53.48
51.19
46.30
39.60
32.05
24.66
18.30
13.59
10.77
9.70
9.90
10.67
11.25
10.99
9.48
6.66
2.75
-1.81
-6.56
-11.14
-15.23
-18.63
-21.22
-23.04
-24.45
-26.08
-28.53
-31.96
-35.61
-37.93
-36.98
-31.32
-20.72
-6.37
9.45
24.30
36.28
44.51
48.99
50.16
48.57
44.65
38.83
31.74
24.18
17.07
11.14
6.83
4.21
3.03
2.90
3.33
3.86
4.05
3.56
2.18
-0.17
-3.43
-7.46
-12.08
-17.07
-22.26
-27.51
-32.88
-38.69
-45.43
-53.57
-63.10
-73.14
-81.82
-86.69
-85.40
-76.71
-60.94
-40.02
-16.91
5.32
24.34
38.87
48.64
54.03
55.62
54.01
49.77
43.69
36.67
29.73
23.76
19.29
16.48
15.16
14.99
15.66
16.84
18.14
19.09
19.11
17.72
14.70
10.19
4.65
-1.32
-7.22
-12.86
-18.44
-24.42
-31.41
-39.80
-49.59
-60.00
-69.49
-75.89
-76.98
-71.22
-58.38
-39.83
-18.10
3.78
23.18
38.41
48.86
54.69
56.47
54.84
50.50
44.29
37.24
30.41
24.75
20.76
18.47
17.59
17.67
18.36
19.37
20.47
21.31
21.50
20.55
18.16
14.29
9.17
3.27
-2.99
-9.22
-15.23
-21.00
-26.69
-32.71
-39.57
-47.69
-57.01
-66.69
-75.03
-79.72
-78.56
-70.25
-54.97
-34.50
-11.64
10.55
29.57
43.98
53.31
57.79
57.96
54.50
48.23
40.20
31.70
24.01
18.13
14.54
13.13
13.39
14.62
16.22
17.69
18.73
19.04
18.43
16.73
13.88
9.91
5.03
-0.51
-6.38
-12.29
-18.05
-23.72
-29.61
-36.21
-43.95
-52.70
-61.53
-68.71
-72.03
-69.62
-60.62
-45.62
-26.56
-6.12
13.08
29.14
41.09
48.75
52.40
52.51
49.61
44.38
37.68
30.54
23.98
18.82
15.53
14.15
14.37
15.60
17.17
18.36
18.61
17.61
15.29
11.84
7.56
2.75
-2.40
-7.88
-13.81
-20.35
-27.76
-36.22
-45.76
-56.06
-66.15
-74.44
-78.92
-77.72
-69.76
-55.33
-36.02
-14.43
6.64
24.91
39.01
48.45
53.42
54.40
51.98
46.84
39.81
31.87
24.13
17.58
12.99
10.67
10.43
11.66
13.48
15.00
15.57
14.87
12.97
10.12
6.63
2.64
-1.76
-6.60
-11.90
-17.60
-23.74
-30.52
-38.25
-47.09
-56.63
-65.57
-71.77
-72.85
-67.13
-54.34
-35.97
-14.86
5.78
23.35
36.44
44.83
49.06
49.89
47.88
43.50
37.23
29.92
22.63
16.51
12.51
11.04
11.90
14.35
17.40
20.14
21.94
22.50
21.76
19.79
16.67
12.43
7.18
1.17
-5.28
-11.84
-18.41
-25.24
-32.80
-41.49
-51.18
-60.85
-68.59
-72.10
-69.43
-59.87
-44.16
-24.44
-3.53
15.95
32.07
43.84
50.96
53.67
52.48
48.14
41.70
34.35
27.27
21.38
17.20
14.89
14.32
15.18
17.07
19.49
21.88
23.64
24.24
23.30
20.61
16.25
10.55
4.03
-2.72
-9.22
-15.22
-20.87
-26.64
-33.24
-41.21
-50.52
-60.25
-68.55
-73.06
-71.66
-63.27
-48.40
-29.05
-8.12
11.47
27.56
39.11
46.09
48.98
48.41
45.03
39.47
32.58
25.33
18.74
13.70
10.71
9.81
10.67
12.67
15.09
17.19
18.43
18.43
17.09
14.54
11.01
6.82
2.19
-2.73
-7.90
-13.36
-19.29
-25.96
-33.68
-42.56
-52.07
-60.85
-66.82
-67.71
-61.95
-49.38
-31.51
-11.05
8.95
26.00
38.80
47.12
51.46
52.48
50.73
46.62
40.60
33.35
25.82
19.04
13.93
11.07
10.52
11.82
14.16
16.55
18.04
18.04
16.30
12.95
8.42
3.17
-2.42
-8.13
-14.01
-20.23
-27.13
-35.09
-44.28
-54.33
-64.14
-71.81
-75.07
-72.03
-61.90
-45.51
-25.16
-3.89
15.47
31.02
42.06
48.79
51.79
51.61
48.72
43.56
36.92
29.79
23.31
18.43
15.66
14.94
15.78
17.40
18.96
19.79
19.46
17.87
15.11
11.38
6.88
1.79
-3.76
-9.69
-15.99
-22.79
-30.45
-39.34
-49.49
-60.24
-70.02
-76.60
-77.69
-71.78
-58.75
-40.02
-18.16
3.88
23.58
39.32
50.49
57.21
59.94
59.24
55.73
50.15
43.44
36.73
31.13
27.42
25.89
26.26
27.87
29.94
31.81
33.07
33.48
32.95
31.38
28.67
24.74
19.68
13.64
6.89
-0.25
-7.55
-14.88
-22.13
-29.09
-35.28
-39.86
-41.80
-40.11
-34.16
-24.02
-10.53
4.89
20.45
34.43
45.48
52.79
56.07
55.50
51.49
44.65
35.70
25.47
14.94
5.11
-3.06
-8.89
-12.03
-12.56
-10.92
-7.69
-3.61
0.54
4.00
6.00
5.95
3.58
-0.91
-6.88
-13.42
-19.65
-25.04
-29.56
-33.74
-38.47
-44.53
-52.15
-60.75
-68.75
-74.01
-74.39
-68.54
-56.40
-39.33
-19.66
-0.05
17.30
30.99
40.48
45.92
47.72
46.39
42.48
36.60
29.52
22.15
15.42
10.18
6.96
5.91
6.71
8.69
11.00
12.81
13.50
12.78
10.66
7.34
3.10
-1.83
-7.27
-13.10
-19.27
-25.75
-32.60
-39.85
-47.38
-54.65
-60.54
-63.50
-61.88
-54.56
-41.44
-23.69
-3.48
16.55
34.04
47.40
55.99
59.95
59.93
56.84
51.65
45.34
38.85
32.96
28.36
25.51
24.69
25.86
28.59
32.17
35.89
39.38
42.87
47.02
52.49
59.29
66.44
72.07
74.03
70.58
60.94
45.31
24.57
0.02
-26.68
-53.40
-77.37
-95.53
-105.23
-105.07
-95.54
-78.99
-58.90
-38.91
-21.83
-9.15
-1.11
2.89
3.67
1.99
-1.68
-6.95
-13.29
-19.86
-25.58
-29.29
-30.14
-27.81
-22.60
-15.33
-7.06
1.12
8.21
13.41
16.20
16.34
13.93
9.45
3.59
-2.90
-9.42
-15.64
-21.55
-27.47
-33.90
-41.18
-49.16
-56.84
-62.36
-63.42
-58.06
-45.43
-26.32
-3.10
20.92
42.49
59.22
70.00
74.94
74.90
71.03
64.46
56.14
46.97
37.80
29.50
22.79
18.17
15.81
15.48
16.69
18.72
20.84
22.37
22.72
21.50
18.48
13.67
7.25
-0.35
-8.58
-16.81
-24.49
-31.29
-37.25
-42.82
-48.78
-55.85
-64.19
-73.01
-80.47
-84.16
-81.94
-72.76
-57.19
-37.32
-16.07
3.80
20.31
32.60
40.65
44.83
45.56
43.20
38.19
31.25
23.38
15.80
9.61
5.55
3.91
4.44
6.61
9.66
12.81
15.32
16.61
16.28
14.24
10.67
5.98
0.65
-4.86
-10.37
-15.90
-21.78
-28.41
-36.14
-45.01
-54.38
-62.91
-68.71
-69.74
-64.50
-52.64
-35.24
-14.56
6.54
25.34
39.96
49.56
54.26
54.78
52.05
46.93
40.21
32.60
24.92
18.00
12.62
9.33
8.23
8.97
10.82
12.88
14.33
14.61
13.44
10.83
6.94
2.02
-3.69
-9.92
-16.47
-23.21
-30.16
-37.51
-45.61
-54.67
-64.42
-73.75
-80.71
-83.00
-78.67
-66.98
-48.81
-26.58
-3.40
17.71
34.72
46.70
53.72
56.42
55.60
52.08
46.62
40.01
33.06
26.60
21.38
17.90
16.33
16.44
17.71
19.44
20.95
21.68
21.28
19.55
16.43
11.96
6.32
-0.12
-6.86
-13.46
-19.71
-25.77
-32.23
-39.80
-48.96
-59.49
-70.22
-79.02
-83.34
-81.05
-71.22
-54.55
-33.23
-10.24
11.43
29.60
43.16
51.88
56.11
56.42
53.46
48.01
40.99
33.40
26.18
20.10
15.61
12.89
11.91
12.44
14.07
16.23
18.20
19.29
18.98
17.07
13.65
9.12
3.95
-1.48
-6.89
-12.29
-17.89
-24.10
-31.46
-40.35
-50.69
-61.59
-71.21
-77.11
-76.88
-69.09
-53.87
-33.00
-9.51
13.30
32.70
47.16
56.30
60.62
61.03
58.45
53.72
47.63
40.96
34.45
28.75
24.34
21.44
20.01
19.84
20.60
21.84
23.08
23.74
23.23
21.12
17.26
11.89
5.57
-1.03
-7.32
-13.08
-18.44
-23.89
-30.12
-37.67
-46.71
-56.70
-66.25
-73.30
-75.62
-71.53
-60.58
-43.86
-23.67
-2.92
15.77
30.67
41.10
47.22
49.59
48.77
45.25
39.58
32.47
24.89
17.99
12.75
9.75
9.05
10.15
12.36
14.96
17.37
19.14
19.92
19.41
17.45
14.14
9.82
4.98
-0.01
-5.03
-10.36
-16.46
-23.81
-32.59
-42.56
-52.92
-62.30
-68.91
-70.91
-66.87
-56.40
-40.45
-21.09
-1.07
17.05
31.54
41.70
47.68
49.97
49.08
45.34
39.19
31.31
22.86
15.28
9.91
7.57
8.28
11.25
15.13
18.53
20.42
20.34
18.37
14.98
10.61
5.58
-0.03
-6.33
-13.52
-21.80
-31.30
-41.91
-53.14
-63.88
-72.46
-76.92
-75.56
-67.56
-53.39
-34.75
-14.12
5.92
23.36
37.02
46.50
51.87
53.36
51.29
46.11
38.59
29.79
20.99
13.50
8.22
5.50
5.06
6.13
7.73
8.93
9.07
7.85
5.31
1.67
-2.73
-7.58
-12.74
-18.25
-24.41
-31.70
-40.56
-51.08
-62.58
-73.46
-81.38
-83.89
-79.21
-66.95
-48.33
-25.86
-2.60
18.65
35.99
48.57
56.39
59.96
59.94
56.98
51.77
45.07
37.77
30.85
25.22
21.52
19.99
20.38
22.04
24.07
25.59
25.91
24.68
21.88
17.78
12.75
7.14
1.23
-4.92
-11.45
-18.70
-27.11
-36.97
-48.13
-59.67
-69.81
-76.20
-76.56
-69.47
-55.00
-34.83
-11.81
10.80
30.26
44.92
54.28
58.77
59.26
56.68
51.87
45.62
38.70
31.93
26.11
21.83
19.38
18.67
19.30
20.64
22.05
22.93
22.86
21.55
18.85
14.76
9.41
3.09
-3.83
-10.94
-17.99
-24.94
-32.14
-40.10
-49.17
-59.09
-68.59
-75.55
-77.54
-72.74
-60.67
-42.54
-20.93
1.05
20.68
36.23
47.09
53.48
55.99
55.22
51.75
46.20
39.33
32.14
25.73
21.08
18.77
18.85
20.81
23.79
26.83
29.09
30.01
29.34
27.08
23.39
18.52
12.81
6.59
0.17
-6.24
-12.64
-19.35
-26.85
-35.62
-45.63
-56.07
-65.15
-70.49
-69.85
-62.05
-47.51
-28.27
-7.35
12.25
28.42
40.22
47.75
51.58
52.25
50.11
45.45
38.79
31.02
23.41
17.18
13.21
11.75
12.34
14.09
15.92
16.97
16.75
15.23
12.70
9.58
6.15
2.52
-1.38
-5.74
-10.79
-16.72
-23.77
-32.12
-41.67
-51.77
-61.06
-67.46
-68.78
-63.39
-50.97
-32.82
-11.58
9.61
28.03
42.04
51.31
56.34
57.95
56.71
52.93
46.85
38.95
30.18
21.81
15.09
10.81
9.10
9.40
10.76
12.18
12.92
12.60
11.19
8.87
5.89
2.44
-1.44
-5.87
-11.01
-17.05
-24.15
-32.46
-42.03
-52.58
-63.26
-72.37
-77.68
-76.98
-68.89
-53.64
-33.14
-10.42
11.29
29.52
43.12
52.08
57.06
58.79
57.77
54.32
48.77
41.81
34.40
27.64
22.45
19.33
18.22
18.61
19.74
20.87
21.42
21.00
19.44
16.66
12.66
7.60
1.69
-4.72
-11.27
-17.74
-24.17
-30.93
-38.57
-47.52
-57.58
-67.68
-75.76
-79.36
-76.32
-65.80
-48.54
-26.91
-4.07
16.91
33.86
45.83
52.89
55.69
55.02
51.70
46.49
40.19
33.67
27.70
22.87
19.47
17.56
17.02
17.60
18.95
20.61
22.00
22.53
21.68
19.16
15.02
9.57
3.34
-3.18
-9.60
-15.78
-21.92
-28.45
-35.95
-44.75
-54.63
-64.46
-72.35
-76.06
-73.68
-64.38
-48.81
-28.99
-7.74
12.12
28.52
40.41
47.73
51.03
51.09
48.67
44.43
38.98
32.95
27.04
21.93
18.14
16.01
15.54
16.48
18.33
20.47
22.23
23.05
22.45
20.19
16.33
11.12
5.03
-1.38
-7.60
-13.36
-18.75
-24.35
-30.88
-38.96
-48.54
-58.56
-67.03
-71.53
-69.97
-61.42
-46.50
-27.26
-6.53
12.88
28.93
40.58
47.77
50.99
50.93
48.25
43.55
37.41
30.52
23.67
17.67
13.18
10.56
9.79
10.49
12.05
13.73
14.86
14.92
13.66
11.05
7.38
3.04
-1.59
-6.26
-10.95
-15.86
-21.37
-27.95
-36.02
-45.66
-56.29
-66.58
-74.45
-77.55
-74.00
-63.11
-45.80
-24.41
-1.97
18.62
35.33
47.24
54.40
57.37
56.87
53.58
48.16
41.35
33.95
26.82
20.76
16.34
13.85
13.21
14.08
15.87
17.89
19.48
20.11
19.49
17.54
14.34
10.09
4.98
-0.84
-7.22
-14.08
-21.40
-29.30
-37.93
-47.38
-57.24
-66.41
-73.04
-74.94
-70.27
-58.35
-40.02
-17.55
6.02
27.76
45.51
58.18
65.58
68.15
66.54
61.49
53.82
44.46
34.46
24.89
16.63
10.32
6.18
4.11
3.66
4.21
5.10
5.70
5.57
4.40
2.16
-1.09
-5.15
-9.79
-14.86
-20.28
-26.12
-32.63
-40.06
-48.62
-58.09
-67.58
-75.50
-79.75
-78.39
-70.28
-55.67
-36.29
-14.87
5.67
22.98
35.83
43.95
47.76
47.87
44.88
39.37
32.07
23.97
16.21
9.93
5.84
4.16
4.48
6.02
7.82
9.07
9.25
8.21
6.09
3.17
-0.26
-4.03
-8.20
-12.97
-18.58
-25.29
-33.21
-42.23
-51.87
-61.16
-68.67
-72.68
-71.69
-64.84
-52.40
-35.69
-16.77
2.12
19.11
32.96
43.03
49.08
51.14
49.42
44.44
37.09
28.54
20.14
13.02
7.96
5.15
4.30
4.68
5.40
5.69
5.08
3.47
1.09
-1.73
-4.80
-8.28
-12.53
-18.04
-25.16
-33.96
-44.16
-55.11
-65.69
-74.40
-79.39
-78.97
-72.15
-59.01
-40.99
-20.45
0.01
18.24
32.96
43.68
50.37
53.09
51.94
47.16
39.51
30.27
21.05
13.34
8.10
5.50
5.04
5.76
6.70
7.06
6.46
4.84
2.39
-0.57
-3.85
-7.42
-11.49
-16.49
-22.92
-31.18
-41.38
-52.98
-64.72
-74.58
-80.21
-79.64
-71.87
-57.38
-38.00
-16.39
4.74
23.30
38.11
48.76
55.27
57.88
56.91
52.83
46.36
38.49
30.37
23.12
17.63
14.34
13.15
13.45
14.37
15.01
14.74
13.35
10.95
7.87
4.38
0.61
-3.57
-8.44
-14.39
-21.75
-30.81
-41.48
-53.07
-64.14
-72.58
-76.05
-72.74
-62.02
-44.87
-23.60
-1.28
19.27
36.11
48.41
56.26
60.21
60.82
58.57
53.93
47.59
40.53
33.88
28.71
25.59
24.47
24.72
25.45
25.83
25.33
23.88
21.62
18.83
15.66
12.15
8.21
3.68
-1.56
-7.62
-14.63
-22.76
-32.11
-42.46
-53.00
-62.21
-68.04
-68.41
-61.98
-48.68
-29.93
-8.34
13.15
32.01
46.65
56.55
61.95
63.45
61.72
57.47
51.43
44.51
37.67
31.86
27.75
25.63
25.35
26.42
28.16
29.89
31.00
31.04
29.74
26.97
22.70
17.14
10.56
3.39
-3.88
-10.87
-17.49
-23.97
-30.92
-39.01
-48.58
-59.15
-69.26
-76.60
-78.66
-73.61
-61.07
-42.33
-20.06
2.58
22.74
38.62
49.53
55.59
57.38
55.59
50.95
44.30
36.66
29.13
22.75
18.21
15.72
15.12
15.93
17.61
19.61
21.46
22.69
22.90
21.73
18.99
14.74
9.30
3.19
-3.06
-9.02
-14.57
-19.90
-25.53
-32.10
-40.12
-49.62
-59.74
-68.74
-74.23
-73.98
-66.63
-52.38
-32.97
-11.24
9.76
27.57
40.83
49.18
53.01
53.04
50.09
45.00
38.63
31.86
25.50
20.20
16.38
14.20
13.63
14.39
16.01
17.81
19.06
19.12
17.64
14.66
10.49
5.60
0.33
-5.16
-10.85
-16.87
-23.39
-30.68
-39.01
-48.50
-58.72
-68.43
-75.56
-77.70
-72.88
-60.43
-41.38
-18.28
5.55
27.04
44.05
55.76
62.44
65.04
64.76
62.66
59.59
56.06
52.32
48.52
44.82
41.65
39.71
39.75
42.33
47.40
54.11
61.00
66.29
68.55
67.11
62.40
55.86
49.63
45.98
46.63
52.04
60.79
69.54
73.70
68.86
52.49
25.27
-8.73
-43.23
-71.82
-90.05
-96.62
-93.35
-83.98
-72.53
-62.13
-54.45
-49.95
-48.29
-48.81
-50.74
-53.15
-55.02
-55.35
-53.28
-48.38
-40.82
-31.17
-20.34
-9.30
1.12
10.31
17.90
23.69
27.64
29.80
30.34
29.46
27.43
24.64
21.62
19.00
17.18
15.95
14.23
10.40
3.10
-7.75
-20.34
-31.27
-36.86
-34.67
-24.73
-9.56
6.89
20.78
29.79
33.40
32.58
28.83
23.45
17.23
10.60
3.98
-2.01
-6.61
-9.12
-9.19
-6.95
-2.94
2.10
7.40
12.34
16.33
18.86
19.46
17.89
14.23
8.97
2.89
-3.29
-9.15
-14.84
-20.91
-28.23
-37.63
-49.62
-64.15
-80.30
-96.24
-109.27
-116.45
-115.37
-105.14
-86.82
-63.33
-38.48
-15.77
2.53
15.77
24.40
29.25
30.87
29.37
24.84
17.85
9.73
2.32
-2.56
-3.85
-1.50
3.56
9.94
16.20
21.28
24.53
25.63
24.48
21.08
15.63
8.61
0.64
-7.49
-15.12
-21.97
-28.21
-34.47
-41.65
-50.44
-60.90
-72.08
-82.06
-88.35
-88.63
-81.50
-67.09
-47.06
-24.08
-1.16
19.15
35.20
46.26
52.38
54.05
52.01
47.10
40.32
32.73
25.40
19.30
15.11
13.09
13.08
14.52
16.58
18.41
19.22
18.52
16.15
12.28
7.29
1.60
-4.43
-10.66
-17.16
-24.19
-32.13
-41.30
-51.86
-63.50
-75.32
-85.68
-92.48
-93.59
-87.56
-74.14
-54.60
-31.37
-7.43
14.45
32.36
45.37
53.42
56.94
56.55
52.93
46.82
39.16
31.00
23.45
17.40
13.41
11.56
11.53
12.71
14.38
15.85
16.57
16.14
14.30
11.00
6.35
0.68
-5.55
-11.86
-17.88
-23.50
-29.02
-35.06
-42.32
-51.29
-61.73
-72.46
-81.38
-85.97
-83.99
-74.29
-57.24
-34.75
-9.72
14.62
35.56
51.32
61.25
65.58
65.19
61.26
55.04
47.75
40.49
34.10
29.18
25.96
24.36
24.08
24.68
25.79
27.03
28.05
28.42
27.69
25.51
21.63
16.10
9.24
1.55
-6.43
-14.22
-21.59
-28.65
-35.85
-43.84
-53.10
-63.49
-73.92
-82.38
-86.28
-83.40
-72.69
-54.76
-31.84
-7.14
16.11
35.42
49.51
58.22
62.09
61.93
58.55
52.74
45.36
37.37
29.83
23.66
19.47
17.40
17.18
18.23
19.87
21.48
22.55
22.69
21.60
19.11
15.17
9.90
3.62
-3.19
-10.13
-16.92
-23.62
-30.65
-38.61
-47.94
-58.38
-68.76
-76.93
-80.36
-76.96
-65.95
-48.25
-26.28
-3.23
17.92
35.03
47.15
54.19
56.63
55.10
50.31
43.04
34.26
25.12
16.86
10.58
6.98
6.21
7.74
10.62
13.66
15.82
16.47
15.44
12.97
9.50
5.38
0.76
-4.47
-10.53
-17.72
-26.31
-36.38
-47.74
-59.63
-70.62
-78.68
-81.54
-77.36
-65.45
-46.63
-23.17
1.82
25.23
44.76
59.23
68.45
72.88
73.14
69.82
63.56
55.21
45.97
37.24
30.35
26.19
24.87
25.77
27.77
29.66
30.49
29.81
27.61
24.15
19.70
14.51
8.59
1.94
-5.51
-13.87
-23.27
-33.88
-45.65
-58.01
-69.65
-78.49
-82.12
-78.58
-67.15
-48.67
-25.44
-0.45
23.37
43.81
59.62
70.34
76.03
77.12
74.33
68.71
61.57
54.32
48.23
44.16
42.41
42.71
44.37
46.36
47.68
47.48
45.33
41.22
35.54
28.90
21.92
15.02
8.33
1.67
-5.38
-13.37
-22.76
-33.79
-46.20
-59.04
-70.61
-78.72
-81.14
-76.36
-64.17
-45.88
-24.01
-1.55
18.89
35.68
48.22
56.67
61.50
63.16
61.97
58.34
52.91
46.61
40.46
35.43
32.28
31.44
33.00
36.59
41.33
45.86
48.62
48.26
44.19
36.70
26.91
16.34
6.36
-2.23
-9.26
-15.12
-20.50
-26.19
-32.96
-41.28
-51.05
-61.28
-70.10
-75.09
-74.03
-65.76
-50.74
-31.00
-9.57
10.44
26.71
38.08
44.53
46.67
45.37
41.41
35.44
28.14
20.25
12.58
5.87
0.71
-2.61
-4.13
-4.15
-3.19
-1.86
-0.74
-0.28
-0.78
-2.32
-4.86
-8.19
-12.04
-16.14
-20.29
-24.50
-29.00
-34.29
-40.87
-48.91
-57.95
-66.67
-73.03
-74.80
-70.21
-58.74
-41.35
-20.33
1.37
21.00
36.68
47.61
53.95
56.32
55.46
51.94
46.31
39.18
31.40
24.03
18.14
14.54
13.54
14.87
17.73
21.00
23.58
24.61
23.65
20.77
16.37
11.13
5.58
0.05
-5.44
-11.19
-17.64
-25.23
-34.17
-44.21
-54.44
-63.24
-68.58
-68.48
-61.70
-48.27
-29.60
-8.18
13.07
31.63
45.88
55.19
59.77
60.31
57.56
52.30
45.31
37.44
29.61
22.79
17.71
14.84
14.11
15.03
16.78
18.47
19.34
18.89
16.98
13.62
9.03
3.44
-2.92
-9.77
-16.87
-24.03
-31.26
-38.80
-47.03
-56.14
-65.70
-74.40
-80.16
-80.65
-74.13
-60.22
-40.21
-16.78
6.79
27.50
43.36
53.63
58.61
59.19
56.46
51.44
44.99
37.89
30.84
24.49
19.37
15.77
13.73
13.01
13.20
13.81
14.40
14.55
13.91
12.18
9.20
4.99
-0.23
-5.99
-11.83
-17.43
-22.79
-28.29
-34.62
-42.38
-51.68
-61.77
-70.96
-76.91
-77.33
-70.72
-57.00
-37.65
-15.31
6.95
26.46
41.56
51.65
56.97
58.24
56.24
51.72
45.40
38.11
30.75
24.25
19.34
16.34
15.17
15.40
16.38
17.52
18.33
18.42
17.52
15.44
12.12
7.68
2.40
-3.32
-9.11
-14.73
-20.27
-26.12
-32.85
-40.94
-50.37
-60.27
-68.93
-74.09
-73.70
-66.63
-53.09
-34.71
-14.02
6.24
23.81
37.27
46.06
50.29
50.44
47.19
41.34
33.81
25.62
17.79
11.23
6.60
4.16
3.73
4.80
6.67
8.64
10.21
11.00
10.91
9.96
8.26
5.98
3.18
-0.12
-4.08
-8.95
-15.04
-22.66
-31.87
-42.36
-53.18
-62.79
-69.19
-70.49
-65.52
-54.30
-38.17
-19.46
-0.77
15.70
28.62
37.49
42.40
43.66
41.60
36.67
29.58
21.37
13.33
6.76
2.60
1.21
2.32
5.12
8.56
11.63
13.56
13.98
12.88
10.47
7.03
2.77
-2.23
-8.07
-14.96
-23.12
-32.64
-43.28
-54.30
-64.29
-71.39
-73.67
-69.74
-59.29
-43.25
-23.61
-2.87
16.62
33.13
45.63
53.69
57.25
56.54
52.06
44.68
35.60
26.20
17.77
11.21
6.86
4.54
3.63
3.40
3.15
2.37
0.85
-1.40
-4.24
-7.50
-11.10
-15.09
-19.67
-25.11
-31.73
-39.75
-49.13
-59.38
-69.30
-77.13
-80.78
-78.53
-69.56
-54.44
-34.99
-13.79
6.53
24.00
37.50
46.70
51.69
52.78
50.33
44.90
37.37
28.92
20.84
14.28
10.00
8.17
8.43
10.01
11.96
13.37
13.61
12.44
10.02
6.67
2.77
-1.52
-6.23
-11.55
-17.74
-25.04
-33.55
-43.13
-53.16
-62.43
-69.10
-71.14
-66.95
-56.02
-39.29
-18.90
2.38
21.98
38.14
50.05
57.66
61.33
61.54
58.82
53.87
47.53
40.76
34.49
29.39
25.83
23.84
23.19
23.41
23.91
24.07
23.36
21.46
18.30
14.11
9.26
4.08
-1.22
-6.67
-12.47
-18.98
-26.53
-35.27
-44.92
-54.51
-62.40
-66.53
-64.99
-56.74
-42.12
-22.92
-1.92
17.91
34.29
45.98
52.86
55.46
54.50
50.67
44.61
37.08
29.02
21.59
15.81
12.36
11.29
12.13
14.02
16.08
17.65
18.37
18.18
17.14
15.27
12.49
8.69
3.80
-2.07
-8.72
-15.98
-23.82
-32.37
-41.61
-51.00
-59.27
-64.50
-64.72
-58.62
-46.23
-28.99
-9.37
9.91
26.67
39.58
48.22
52.68
53.26
50.35
44.53
36.70
28.12
20.14
13.90
10.13
8.84
9.55
11.43
13.56
15.13
15.64
14.88
12.86
9.76
5.79
1.11
-4.19
-10.16
-16.86
-24.44
-32.99
-42.47
-52.48
-62.09
-69.69
-73.37
-71.39
-62.86
-48.20
-29.13
-8.18
12.07
29.62
43.31
52.76
58.02
59.29
56.86
51.24
43.34
34.40
25.85
18.94
14.42
12.45
12.59
14.00
15.71
16.88
16.94
15.67
13.12
9.48
4.99
-0.06
-5.47
-11.09
-16.92
-23.22
-30.42
-38.94
-48.82
-59.38
-68.97
-75.34
-76.19
-70.03
-56.73
-37.74
-15.63
6.58
26.34
42.00
52.97
59.45
62.00
61.23
57.63
51.72
44.23
36.17
28.73
23.04
19.84
19.27
20.79
23.37
25.86
27.26
27.01
25.08
21.79
17.66
13.13
8.44
3.63
-1.49
-7.19
-13.77
-21.56
-30.77
-41.30
-52.46
-62.84
-70.35
-72.78
-68.51
-57.15
-39.86
-19.08
2.22
21.33
36.44
46.85
52.71
54.74
53.72
50.37
45.31
39.13
32.45
25.99
20.44
16.43
14.33
14.09
15.18
16.75
17.80
17.56
15.72
12.43
8.13
3.33
-1.65
-6.75
-12.01
-17.60
-23.62
-30.22
-37.64
-46.04
-55.34
-64.83
-73.02
-77.85
-77.26
-69.99
-56.11
-37.23
-16.03
4.56
22.17
35.49
44.27
48.93
50.14
48.53
44.64
39.04
32.47
25.86
20.16
16.12
14.10
14.00
15.30
17.27
19.17
20.35
20.45
19.30
16.92
13.45
9.05
3.93
-1.70
-7.59
-13.53
-19.49
-25.69
-32.57
-40.54
-49.54
-58.68
-66.27
-70.13
-68.37
-60.13
-46.00
-27.91
-8.53
9.57
24.50
35.35
41.99
44.68
43.86
39.98
33.65
25.80
17.57
10.26
4.88
2.05
1.72
3.36
6.09
8.96
11.22
12.32
12.03
10.42
7.73
4.29
0.37
-3.89
-8.54
-13.78
-19.91
-27.21
-35.81
-45.44
-55.25
-63.76
-69.04
-69.23
-63.09
-50.61
-33.18
-13.16
6.66
23.94
37.21
45.99
50.45
51.10
48.46
43.05
35.56
26.90
18.24
10.80
5.55
2.96
2.86
4.53
6.90
8.87
9.61
8.81
6.61
3.42
-0.31
-4.33
-8.67
-13.45
-18.91
-25.24
-32.61
-41.18
-50.82
-60.92
-70.08
-76.27
-77.29
-71.57
-58.90
-40.63
-19.36
1.90
20.61
35.26
45.38
51.27
53.39
52.20
48.05
41.46
33.27
24.73
17.19
11.77
9.06
8.91
10.57
12.99
15.11
16.18
15.87
14.22
11.50
8.07
4.17
-0.08
-4.77
-10.07
-16.26
-23.60
-32.24
-41.98
-52.09
-61.19
-67.41
-68.78
-63.94
-52.63
-35.98
-16.23
3.92
22.04
36.50
46.56
52.28
54.07
52.48
48.14
41.76
34.25
26.71
20.25
15.78
13.72
13.87
15.47
17.48
18.90
19.03
17.64
14.88
11.18
6.99
2.63
-1.73
-6.15
-10.86
-16.20
-22.60
-30.44
-39.83
-50.31
-60.64
-68.89
-72.83
-70.65
-61.60
-46.43
-27.18
-6.54
13.00
29.81
43.27
53.48
60.77
65.39
67.34
66.55
63.21
57.86
51.37
44.88
39.43
35.81
34.28
34.56
35.89
37.31
37.93
37.16
34.91
31.46
27.31
22.94
18.56
14.06
9.01
2.73
-5.42
-15.72
-27.66
-39.86
-50.18
-56.28
-56.31
-49.61
-36.95
-20.36
-2.42
14.30
27.97
37.58
42.84
43.89
41.12
35.07
26.52
16.57
6.45
-2.56
-9.52
-13.90
-15.78
-15.75
-14.71
-13.55
-13.04
-13.56
-15.15
-17.56
-20.47
-23.73
-27.42
-31.82
-37.30
-44.12
-52.36
-61.74
-71.58
-80.79
-87.84
-91.02
-88.80
-80.34
-65.85
-46.74
-25.26
-4.02
14.69
29.38
39.45
45.03
46.59
44.73
40.08
33.35
25.39
17.27
10.05
4.64
1.51
0.66
1.58
3.50
5.61
7.22
7.96
7.66
6.32
4.01
0.77
-3.37
-8.37
-14.24
-21.02
-28.83
-37.69
-47.27
-56.60
-63.98
-67.32
-64.78
-55.50
-40.04
-20.34
0.86
20.78
37.31
49.33
56.61
59.52
58.71
54.88
48.79
41.27
33.30
25.92
20.03
16.29
14.85
15.32
16.91
18.65
19.66
19.44
17.90
15.28
11.96
8.22
4.14
-0.38
-5.54
-11.52
-18.51
-26.69
-36.15
-46.65
-57.35
-66.61
-72.22
-71.99
-64.57
-50.09
-30.30
-8.07
13.53
32.01
45.98
55.11
59.72
60.36
57.61
52.11
44.69
36.50
28.81
22.73
18.86
17.15
17.01
17.56
17.99
17.81
16.92
15.41
13.45
11.12
8.36
5.10
1.27
-3.16
-8.23
-14.08
-20.99
-29.14
-38.42
-48.11
-56.72
-62.24
-62.71
-56.86
-44.64
-27.39
-7.45
12.48
30.04
43.62
52.51
56.66
56.44
52.43
45.45
36.53
27.05
18.43
11.93
8.24
7.29
8.34
10.22
11.84
12.52
12.13
10.92
9.25
7.27
4.84
1.61
-2.83
-8.76
-16.26
-25.21
-35.27
-45.72
-55.40
-62.72
-65.95
-63.65
-55.25
-41.34
-23.60
-4.30
14.29
30.40
42.99
51.55
55.94
56.25
52.80
46.30
37.86
28.88
20.74
14.52
10.70
9.22
9.51
10.83
12.44
13.78
14.59
14.79
14.48
13.71
12.37
10.10
6.34
0.65
-7.16
-16.73
-26.99
-36.33
-42.85
-44.88
-41.40
-32.31
-18.54
-1.74
16.09
33.08
47.71
59.01
66.38
69.52
68.44
63.46
55.35
45.28
34.65
24.70
16.25
9.49
4.05
-0.74
-5.49
-10.53
-15.88
-21.27
-26.42
-31.12
-35.39
-39.45
-43.65
-48.42
-54.10
-60.85
-68.38
-75.84
-81.78
-84.52
-82.53
-75.02
-62.21
-45.34
-26.28
-7.07
10.43
24.86
35.28
41.23
42.62
39.84
33.78
25.80
17.46
10.16
4.86
1.78
0.58
0.55
0.95
1.32
1.54
1.66
1.70
1.43
0.34
-2.25
-6.94
-14.06
-23.50
-34.62
-46.21
-56.52
-63.54
-65.40
-60.96
-50.23
-34.48
-15.89
3.06
20.25
34.28
44.55
50.93
53.48
52.37
47.92
40.84
32.28
23.65
16.32
11.12
8.21
6.99
6.46
5.67
4.13
1.92
-0.46
-2.45
-3.79
-4.80
-6.30
-9.41
-15.10
-23.86
-35.31
-48.16
-60.25
-69.04
-72.20
-68.23
-56.97
-39.70
-18.76
3.13
23.50
40.62
53.67
62.49
67.30
68.44
66.28
61.36
54.45
46.61
39.07
32.83
28.51
26.09
25.00
24.44
23.71
22.44
20.67
18.64
16.58
14.47
12.00
8.61
3.71
-3.23
-12.47
-23.87
-36.62
-49.23
-59.55
-65.22
-64.30
-55.89
-40.51
-20.00
2.98
25.66
45.75
61.76
73.06
79.61
81.75
80.05
75.26
68.32
60.36
52.46
45.53
40.01
35.84
32.52
29.30
25.59
21.10
15.94
10.51
5.22
0.21
-4.70
-9.97
-16.17
-23.69
-32.72
-43.27
-55.15
-67.95
-80.80
-92.19
-100.11
-102.42
-97.59
-85.38
-67.08
-45.23
-22.83
-2.46
14.28
26.82
35.30
40.07
41.40
39.49
34.75
27.93
20.22
12.98
7.39
4.07
2.98
3.47
4.61
5.53
5.63
4.76
3.07
0.83
-1.70
-4.49
-7.60
-11.28
-15.84
-21.65
-29.04
-38.14
-48.60
-59.43
-68.87
-74.72
-74.91
-68.20
-54.70
-35.91
-14.26
7.51
27.10
42.98
54.41
61.22
63.60
61.99
57.17
50.15
42.23
34.68
28.52
24.28
21.92
20.93
20.57
20.08
18.94
16.97
14.27
11.12
7.79
4.37
0.75
-3.34
-8.17
-14.00
-20.94
-29.03
-38.08
-47.53
-56.36
-63.02
-65.76
-63.09
-54.37
-40.09
-21.88
-2.11
16.84
33.06
45.45
53.67
57.84
58.34
55.61
50.22
42.92
34.69
26.63
19.77
14.81
11.92
10.77
10.72
10.98
10.93
10.19
8.69
6.58
4.08
1.42
-1.29
-4.06
-7.08
-10.68
-15.24
-21.15
-28.52
-37.10
-45.99
-53.81
-58.78
-59.26
-54.22
-43.58
-28.35
-10.41
8.07
24.99
38.75
48.41
53.65
54.60
51.79
45.94
38.04
29.22
20.62
13.25
7.78
4.42
2.98
2.90
3.61
4.64
5.66
6.47
6.90
6.73
5.79
3.93
1.14
-2.52
-7.03
-12.46
-18.98
-26.65
-35.19
-43.78
-51.13
-55.59
-55.68
-50.49
-40.01
-25.21
-7.82
10.16
26.85
40.88
51.37
57.83
60.03
57.95
51.86
42.50
31.18
19.53
9.19
1.26
-3.91
-6.78
-8.32
-9.47
-10.93
-12.93
-15.33
-17.86
-20.33
-22.68
-25.05
-27.71
-31.01
-35.35
-41.00
-47.96
-55.73
-63.17
-68.70
-70.62
-67.67
-59.42
-46.48
-30.29
-12.76
4.27
19.28
31.23
39.54
43.91
44.31
40.98
34.58
26.09
16.82
8.11
1.13
-3.49
-5.66
-5.85
-4.89
-3.55
-2.48
-1.93
-1.95
-2.50
-3.62
-5.50
-8.43
-12.68
-18.42
-25.67
-34.17
-43.39
-52.30
-59.45
-63.15
-61.84
-54.77
-42.23
-25.69
-7.33
10.53
26.04
38.02
46.03
50.10
50.48
47.57
41.96
34.44
26.03
17.81
10.71
5.36
1.94
0.18
-0.48
-0.72
-1.03
-1.68
-2.66
-3.84
-5.20
-6.86
-9.12
-12.40
-17.05
-23.30
-31.14
-40.20
-49.62
-58.02
-63.69
-64.98
-60.78
-50.94
-36.38
-18.85
-0.43
16.89
31.59
42.66
49.57
52.21
50.82
46.02
38.76
30.25
21.77
14.47
9.12
5.97
4.73
4.65
4.94
4.88
4.15
2.75
0.91
-1.10
-3.23
-5.62
-8.66
-12.71
-18.13
-25.10
-33.51
-42.92
-52.40
-60.62
-65.94
-66.81
-62.14
-51.76
-36.53
-18.15
1.13
19.14
34.12
45.02
51.42
53.36
51.21
45.57
37.30
27.58
17.86
9.54
3.65
0.57
-0.11
0.62
1.61
2.03
1.59
0.49
-0.83
-2.11
-3.35
-4.91
-7.32
-11.05
-16.46
-23.72
-32.76
-43.13
-53.89
-63.46
-69.91
-71.34
-66.61
-55.68
-39.83
-21.17
-2.04
15.59
30.49
42.02
50.01
54.43
55.32
52.90
47.75
40.84
33.44
26.79
21.82
18.94
17.92
18.04
18.40
18.21
17.01
14.76
11.72
8.26
4.61
0.76
-3.50
-8.48
-14.51
-21.80
-30.47
-40.36
-50.84
-60.68
-68.12
-71.23
-68.51
-59.49
-44.86
-26.48
-6.73
12.14
28.36
40.90
49.31
53.46
53.40
49.42
42.25
33.09
23.56
15.25
9.37
6.42
6.07
7.38
9.18
10.52
10.84
10.20
8.94
7.51
6.17
4.73
2.63
-0.95
-6.75
-15.12
-25.75
-37.56
-48.82
-57.41
-61.32
-59.15
-50.49
-36.12
-17.80
2.06
21.08
37.30
49.47
57.01
59.88
58.37
53.04
44.74
34.68
24.23
14.82
7.59
3.10
1.31
1.58
2.87
4.20
4.84
4.56
3.45
1.85
-0.01
-2.17
-4.99
-9.11
-15.19
-23.68
-34.55
-47.03
-59.57
-69.95
-75.69
-74.78
-66.28
-50.74
-30.17
-7.38
14.75
34.01
49.09
59.59
65.51
67.04
64.47
58.28
49.42
39.29
29.57
21.72
16.65
14.48
14.56
15.82
17.07
17.47
16.63
14.65
11.87
8.67
5.13
1.08
-3.96
-10.54
-19.06
-29.67
-42.01
-55.11
-67.31
-76.41
-80.10
-76.62
-65.39
-47.35
-24.82
-0.82
21.77
40.86
55.36
65.04
70.03
70.59
67.05
59.98
50.41
39.79
29.77
21.78
16.68
14.53
14.65
15.92
17.19
17.63
16.92
15.20
12.86
10.25
7.51
4.42
0.57
-4.59
-11.56
-20.59
-31.60
-43.83
-55.77
-65.21
-69.70
-67.24
-57.06
-39.95
-18.18
5.22
27.23
45.66
59.24
67.68
71.23
70.37
65.73
58.11
48.55
38.34
28.86
21.32
16.54
14.72
15.41
17.66
20.29
22.16
22.52
21.10
18.12
14.02
9.29
4.28
-0.92
-6.49
-12.73
-20.09
-28.94
-39.41
-51.12
-62.90
-72.79
-78.29
-77.11
-68.01
-51.32
-29.10
-4.51
19.07
38.96
53.70
63.01
67.42
67.76
64.84
59.39
52.15
43.96
35.77
28.51
22.92
19.49
18.21
18.68
20.22
21.99
23.19
23.30
22.07
19.55
15.95
11.56
6.64
1.34
-4.27
-10.31
-17.03
-24.89
-34.32
-45.38
-57.45
-68.90
-77.38
-80.30
-75.78
-63.30
-44.11
-20.80
3.36
25.40
43.23
55.93
63.45
66.24
64.95
60.24
52.82
43.59
33.63
24.16
16.32
10.93
8.35
8.31
10.06
12.58
14.78
15.84
15.30
13.12
9.57
5.08
0.06
-5.23
-10.66
-16.33
-22.51
-29.58
-37.89
-47.52
-58.00
-68.01
-75.63
-78.65
-75.34
-65.12
-48.90
-28.85
-7.79
11.65
27.70
39.61
47.41
51.48
52.20
49.78
44.50
37.00
28.47
20.55
14.82
12.27
12.82
15.39
18.29
19.93
19.50
17.08
13.53
9.90
6.96
4.82
2.93
0.28
-4.32
-11.90
-22.93
-37.01
-52.52
-66.66
-75.83
-76.56
-66.63
-45.91
-16.70
16.85
49.82
77.76
97.59
107.95
108.97
101.90
88.64
71.47
52.77
34.80
19.39
7.61
-0.29
-4.80
-6.82
-7.38
-7.32
-7.22
-7.40
-7.92
-8.75
-9.81
-11.10
-12.72
-14.83
-17.51
-20.69
-24.08
-27.37
-30.35
-32.99
-35.38
-37.46
-38.73
-38.29
-35.05
-28.30
-18.11
-5.42
8.23
21.20
32.33
41.02
47.20
51.04
52.77
52.65
51.12
48.86
46.68
45.36
45.33
46.56
48.64
51.06
53.40
55.49
57.34
58.98
60.32
61.16
61.25
60.46
58.91
56.93
54.95
53.38
52.44
52.15
52.41
53.18
54.46
56.27
58.50
60.74
62.33
62.46
60.44
56.00
49.34
41.13
32.33
23.81
16.16
9.56
3.75
-1.76
-7.45
-13.66
-20.40
-27.37
-34.21
-40.62
-46.50
-51.92
-57.00
-61.67
-65.76
-69.10
-71.73
-74.03
-76.56
-79.80
-83.85
-88.21
-91.94
-93.85
-92.99
-88.81
-81.36
-71.16
-59.05
-46.05
-33.16
-21.33
-11.28
-3.43
2.04
5.28
6.62
6.54
5.65
4.62
4.05
4.34
5.54
7.28
8.96
10.08
10.56
10.91
12.10
15.06
20.13
26.88
34.05
40.10
43.72
44.25
41.80
37.08
31.05
24.72
18.99
14.62
12.17
11.78
13.09
15.19
16.94
17.29
15.78
12.59
8.40
3.86
-0.80
-5.95
-12.23
-20.13
-29.53
-39.58
-49.05
-56.73
-61.87
-64.46
-65.15
-64.85
-64.37
-64.11
-63.94
-63.35
-61.87
-59.28
-55.88
-52.34
-49.54
-48.16
-48.44
-50.16
-52.68
-55.20
-56.89
-57.12
-55.55
-52.22
-47.59
-42.43
-37.57
-33.69
-31.11
-29.82
-29.56
-30.05
-31.10
-32.64
-34.73
-37.48
-41.00
-45.21
-49.65
-53.43
-55.16
-53.39
-47.21
-36.77
-23.51
-9.81
1.83
9.64
12.99
12.33
8.76
3.43
-2.76
-9.06
-14.80
-19.20
-21.53
-21.32
-18.56
-13.66
-7.27
-0.03
7.58
15.20
22.45
28.83
33.80
36.86
37.75
36.58
33.87
30.35
26.75
23.49
20.64
17.94
15.07
11.91
8.60
5.47
2.77
0.43
-2.01
-5.27
-10.20
-17.49
-27.55
-40.28
-54.86
-69.58
-82.06
-89.67
-90.39
-83.49
-69.92
-52.10
-33.12
-16.02
-3.13
4.12
5.09
-0.40
-12.11
-29.51
-51.57
-76.70
-102.91
-128.01
-149.89
-166.79
-177.67
-182.30
-181.40
-176.25
-168.38
-159.07
-149.25
-139.74
-131.57
-126.15
-124.85
-128.30
-135.54
-143.85
-149.20
-147.68
-136.80
-116.41
-88.50
-56.16
-22.28
11.49
44.68
77.52
109.93
140.79
167.86
188.48
200.59
203.62
198.85
188.90
176.81
165.00
154.67
145.91
138.15
130.86
123.91
117.53
111.94
107.10
102.78
98.70
94.77
90.93
86.94
82.16
75.78
67.42
57.69
48.45
42.36
41.99
48.81
62.64
81.92
104.31
127.50
149.56
168.85
183.61
191.81
191.27
180.41
158.88
128.15
91.42
52.99
17.11
-13.07
-36.08
-52.15
-62.56
-68.98
-72.85
-75.21
-76.74
-78.00
-79.64
-82.37
-86.81
-93.27
-101.63
-111.42
-121.93
-132.30
-141.55
-148.47
-151.58
-149.39
-140.78
-125.60
-104.87
-80.72
-55.86
-32.84
-13.53
1.14
11.08
16.68
18.53
17.33
13.95
9.40
4.80
1.13
-1.05
-1.75
-1.54
-1.31
-1.81
-3.40
-5.86
-8.63
-11.10
-13.01
-14.59
-16.59
-19.98
-25.70
-34.32
-45.87
-59.58
-73.87
-86.43
-94.67
-96.31
-90.10
-76.25
-56.44
-33.30
-9.61
12.37
31.27
46.44
57.63
64.63
67.26
65.65
60.49
53.18
45.57
39.48
36.15
35.93
38.31
42.36
47.14
52.05
56.96
61.94
67.05
72.15
76.89
80.81
83.39
84.17
82.76
78.93
72.81
65.14
57.38
51.55
49.68
53.17
62.19
75.52
90.90
105.73
117.91
126.38
131.22
133.33
133.81
133.49
132.77
131.62
129.91
127.52
124.40
120.45
115.46
108.98
100.50
89.58
76.15
60.59
43.69
26.50
10.07
-4.88
-18.09
-29.83
-40.72
-51.51
-62.80
-74.74
-86.90
-98.13
-106.72
-110.75
-108.63
-99.71
-84.56
-64.94
-43.29
-22.14
-3.42
11.79
23.14
30.74
34.79
35.52
33.31
28.89
23.31
17.82
13.43
10.67
9.37
8.86
8.30
7.02
4.74
1.49
-2.45
-6.77
-11.28
-15.85
-20.46
-25.18
-30.24
-35.98
-42.85
-51.16
-60.78
-70.88
-79.86
-85.66
-86.34
-80.71
-68.82
-52.01
-32.46
-12.54
5.77
21.26
33.39
42.10
47.52
49.89
49.57
47.10
43.21
38.75
34.54
31.18
28.90
27.49
26.43
25.02
22.69
19.19
14.59
9.24
3.49
-2.47
-8.71
-15.49
-23.14
-31.90
-41.93
-53.25
-65.63
-78.43
-90.41
-99.81
-104.77
-103.82
-96.61
-83.97
-67.86
-50.62
-34.39
-20.68
-10.29
-3.53
-0.42
-0.79
-4.18
-9.67
-15.89
-21.18
-23.95
-23.09
-18.17
-9.58
1.67
14.21
26.64
37.76
46.81
53.56
58.22
61.36
63.61
65.33
66.47
66.47
64.50
59.74
51.81
41.12
28.92
17.21
8.24
3.96
5.32
12.07
22.71
35.03
46.72
55.97
61.75
63.80
62.38
57.98
51.22
42.84
33.71
24.77
16.83
10.41
5.58
2.07
-0.53
-2.58
-4.17
-5.14
-5.22
-4.31
-2.69
-1.02
-0.26
-1.27
-4.55
-10.11
-17.49
-25.96
-34.71
-42.88
-49.62
-54.03
-55.24
-52.70
-46.41
-37.09
-26.01
-14.62
-4.15
4.71
11.74
16.95
20.27
21.44
20.16
16.41
10.70
4.06
-2.24
-7.23
-10.50
-12.23
-12.98
-13.22
-13.08
-12.42
-10.95
-8.56
-5.45
-2.09
0.83
2.62
2.60
0.15
-5.15
-13.26
-23.43
-34.06
-42.97
-47.90
-47.38
-41.12
-30.15
-16.42
-2.12
10.96
21.67
29.50
34.35
36.27
35.48
32.37
27.70
22.46
17.74
14.37
12.69
12.53
13.25
14.03
14.19
13.39
11.69
9.43
6.96
4.43
1.67
-1.81
-6.59
-13.23
-22.04
-32.92
-45.27
-57.91
-69.15
-77.04
-79.82
-76.53
-67.34
-53.55
-37.26
-20.66
-5.49
7.26
17.31
24.67
29.41
31.47
30.89
28.03
23.70
19.08
15.32
13.10
12.36
12.35
11.98
10.37
7.19
2.73
-2.24
-6.99
-10.97
-14.05
-16.42
-18.48
-20.79
-24.05
-28.93
-35.86
-44.67
-54.21
-62.61
-67.68
-67.66
-61.85
-50.73
-35.78
-18.89
-1.79
14.27
28.49
40.40
49.61
55.84
59.04
59.52
57.97
55.39
52.81
51.03
50.43
50.89
51.86
52.60
52.37
50.70
47.44
42.69
36.67
29.59
21.54
12.45
2.25
-9.06
-21.36
-34.25
-47.03
-58.52
-67.15
-71.23
-69.37
-61.08
-47.12
-29.41
-10.53
7.06
21.59
32.32
39.37
43.23
44.36
43.06
39.54
34.16
27.63
20.92
14.98
10.55
7.87
6.68
6.32
6.00
4.96
2.72
-0.85
-5.56
-11.02
-16.89
-23.00
-29.45
-36.53
-44.56
-53.85
-64.44
-76.05
-87.87
-98.45
-105.86
-108.03
-103.46
-91.89
-74.47
-53.61
-32.17
-12.50
3.99
16.97
26.65
33.31
36.96
37.55
35.30
31.04
26.16
22.15
20.15
20.57
22.99
26.51
30.13
33.11
35.09
35.97
35.88
34.93
33.27
30.99
28.21
24.98
21.23
16.76
11.18
4.17
-4.27
-13.51
-22.21
-28.55
-30.70
-27.52
-19.03
-6.52
7.91
21.99
34.00
43.07
49.16
52.65
53.92
53.16
50.50
46.19
40.76
35.01
29.80
25.73
23.02
21.43
20.41
19.32
17.64
15.12
11.81
7.99
4.05
0.28
-3.21
-6.57
-10.03
-13.88
-18.35
-23.59
-29.77
-36.97
-45.03
-53.32
-60.61
-65.26
-65.67
-60.87
-50.98
-37.25
-21.64
-6.25
7.32
18.16
26.02
31.09
33.73
34.41
33.68
32.10
30.16
28.11
25.98
23.65
21.03
18.13
15.14
12.18
9.29
6.38
3.33
0.15
-2.99
-5.86
-8.36
-10.64
-13.03
-15.92
-19.59
-24.16
-29.72
-36.34
-44.04
-52.50
-60.76
-67.23
-69.99
-67.49
-59.15
-45.72
-28.98
-11.21
5.53
19.84
31.11
39.24
44.43
46.96
47.23
45.69
42.86
39.24
35.26
31.29
27.65
24.71
22.72
21.79
21.74
22.09
22.31
21.86
20.48
18.18
15.18
11.81
8.38
5.05
1.83
-1.45
-5.07
-9.38
-14.65
-20.87
-27.55
-33.71
-38.02
-39.23
-36.60
-30.19
-20.86
-9.93
1.31
12.03
22.07
31.75
41.61
52.09
63.24
74.65
85.43
94.24
99.67
100.59
96.60
88.18
76.40
62.39
46.85
30.00
11.88
-7.01
-25.34
-41.15
-52.51
-58.34
-58.92
-55.72
-50.72
-45.65
-41.53
-38.68
-37.16
-37.08
-38.82
-42.84
-49.29
-57.66
-66.66
-74.42
-79.03
-79.09
-74.13
-64.71
-52.15
-38.08
-23.92
-10.59
1.50
12.25
21.62
29.44
35.39
39.21
40.90
40.81
39.62
38.15
37.01
36.45
36.24
35.81
34.55
32.10
28.51
24.13
19.37
14.54
9.73
4.89
0.05
-4.56
-8.58
-11.70
-13.89
-15.47
-17.11
-19.53
-23.30
-28.74
-35.84
-44.39
-53.86
-63.37
-71.70
-77.36
-79.01
-75.80
-67.72
-55.69
-41.32
-26.39
-12.42
-0.40
9.29
16.70
22.12
25.91
28.48
30.21
31.52
32.89
34.81
37.67
41.72
46.89
52.71
58.33
62.66
64.54
63.09
57.94
49.44
38.50
26.39
14.32
3.11
-6.99
-16.29
-25.35
-34.78
-44.95
-55.86
-67.02
-77.41
-85.68
-90.30
-89.96
-84.00
-72.71
-57.19
-39.22
-20.73
-3.41
11.55
23.51
32.33
38.12
41.15
41.78
40.35
37.28
33.07
28.34
23.81
20.07
17.52
16.17
15.73
15.67
15.47
14.78
13.41
11.34
8.58
5.18
1.19
-3.21
-7.78
-12.20
-16.25
-20.06
-24.04
-28.87
-35.08
-42.50
-50.06
-55.82
-57.49
-53.30
-42.81
-27.11
-8.59
9.93
26.16
38.93
48.25
54.84
59.59
63.01
65.26
66.36
66.54
66.36
66.60
67.80
70.06
72.85
75.32
76.76
76.92
76.23
75.50
75.43
76.19
77.23
77.49
75.90
71.83
65.21
56.45
46.02
34.24
21.14
6.60
-9.38
-26.56
-44.25
-61.38
-76.59
-88.35
-95.36
-96.87
-93.05
-84.96
-74.39
-63.21
-52.90
-44.18
-37.10
-31.37
-26.77
-23.25
-20.85
-19.47
-18.75
-18.20
-17.39
-16.22
-14.83
-13.56
-12.63
-11.98
-11.35
-10.45
-9.19
-7.79
-6.77
-6.72
-8.12
-11.12
-15.55
-20.94
-26.65
-32.14
-37.12
-41.71
-46.34
-51.69
-58.37
-66.56
-75.77
-84.62
-91.13
-93.20
-89.35
-79.21
-63.82
-45.25
-26.00
-8.22
6.78
18.49
27.00
32.50
35.21
35.32
33.24
29.78
25.93
22.66
20.50
19.50
19.25
19.28
19.30
19.30
19.42
19.80
20.28
20.47
19.84
17.97
14.70
10.18
4.77
-1.05
-6.90
-12.59
-18.16
-23.96
-30.47
-38.03
-46.54
-55.15
-62.24
-65.83
-64.22
-56.60
-43.44
-26.34
-7.52
10.82
27.01
40.09
49.71
55.98
59.22
59.98
58.93
56.71
53.85
50.64
47.19
43.59
40.01
36.75
34.16
32.45
31.63
31.43
31.43
31.13
30.06
27.93
24.62
20.28
15.27
9.95
4.58
-0.94
-6.99
-14.18
-22.98
-33.31
-44.30
-54.28
-61.20
-63.20
-59.36
-49.97
-36.50
-21.12
-6.03
7.09
17.20
23.88
27.07
26.88
23.62
17.85
10.40
2.18
-5.97
-13.54
-20.25
-26.03
-30.85
-34.68
-37.58
-39.77
-41.73
-44.12
-47.53
-52.33
-58.56
-65.91
-73.89
-81.93
-89.54
-96.44
-102.52
-107.87
-112.72
-117.37
-121.98
-126.34
-129.78
-131.23
-129.50
-123.78
-113.98
-100.94
-86.21
-71.49
-58.13
-46.67
-36.78
-27.73
-18.84
-9.92
-1.33
6.30
12.53
17.35
21.19
24.71
28.45
32.75
37.78
43.61
50.32
57.89
66.17
74.76
83.05
90.37
96.10
99.78
101.17
100.24
97.14
92.01
84.99
76.10
65.45
53.53
41.44
30.96
24.16
22.82
27.76
38.46
53.19
69.56
85.18
98.19
107.63
113.33
115.64
115.06
111.99
106.55
98.78
88.82
77.21
64.94
53.27
43.40
36.07
31.32
28.55
26.80
25.18
23.11
20.51
17.63
14.79
12.11
9.37
6.08
1.62
-4.45
-12.40
-22.14
-33.28
-45.09
-56.39
-65.67
-71.25
-71.73
-66.42
-55.69
-40.94
-24.24
-7.71
7.08
19.34
28.91
35.86
40.12
41.34
39.10
33.20
24.01
12.43
-0.32
-13.23
-25.71
-37.73
-49.67
-61.90
-74.46
-86.92
-98.52
-108.33
-115.60
-119.94
-121.48
-120.73
-118.54
-115.81
-113.21
-111.03
-108.86
-105.77
-100.42
-91.65
-78.85
-62.27
-43.00
-22.58
-2.66
15.51
31.12
43.83
53.56
60.38
64.48
66.12
65.72
63.76
60.80
57.36
53.90
50.73
47.94
45.43
42.94
40.15
36.87
33.09
28.94
24.58
20.02
15.11
9.57
3.14
-4.37
-13.02
-22.69
-32.98
-43.15
-52.03
-58.18
-60.24
-57.40
-49.75
-38.25
-24.48
-10.09
3.58
15.67
25.70
33.32
38.18
39.98
38.69
34.76
29.17
23.28
18.39
15.48
14.87
16.25
18.95
22.18
25.38
28.26
30.83
33.11
35.01
36.19
36.19
34.60
31.15
25.86
19.14
11.80
5.09
0.61
-0.04
4.37
14.20
28.82
46.74
66.11
85.16
102.51
117.02
127.65
133.28
132.90
126.06
113.28
96.10
76.78
57.56
40.07
25.04
12.36
1.42
-8.43
-17.61
-26.27
-34.36
-41.85
-48.86
-55.64
-62.56
-69.93
-77.97
-86.87
-96.77
-107.85
-120.16
-133.43
-146.86
-159.03
-168.13
-172.43
-170.75
-162.75
-149.00
-130.78
-109.70
-87.32
-64.91
-43.41
-23.47
-5.56
9.96
22.86
33.10
40.90
46.66
50.83
53.87
56.26
58.76
62.58
69.33
80.38
96.13
115.29
134.87
150.93
159.80
159.13
148.42
128.71
101.85
70.00
35.49
1.00
-30.18
-54.48
-68.75
-71.22
-62.16
-43.85
-20.00
5.24
28.22
46.46
58.80
65.34
67.00
65.12
61.06
55.99
50.73
45.83
41.61
38.22
35.60
33.45
31.27
28.55
24.95
20.50
15.55
10.60
5.98
1.65
-2.89
-8.43
-15.72
-24.99
-35.71
-46.57
-55.78
-61.72
-63.37
-60.63
-54.21
-45.33
-35.33
-25.46
-16.78
-10.26
-6.65
-6.35
-9.17
-14.27
-20.43
-26.41
-31.34
-34.85
-36.94
-37.71
-37.09
-34.86
-30.84
-25.03
-17.77
-9.65
-1.34
6.42
12.88
17.32
19.31
19.09
17.82
17.43
19.90
26.38
36.58
48.73
60.38
69.33
74.45
75.86
74.40
70.87
65.51
57.97
47.72
34.69
19.56
3.75
-10.96
-23.05
-31.63
-36.68
-38.90
-39.42
-39.32
-39.45
-40.34
-42.26
-45.40
-49.94
-55.95
-63.41
-72.10
-81.76
-92.10
-102.77
-113.19
-122.29
-128.42
-129.66
-124.38
-111.89
-92.86
-69.12
-43.23
-17.71
5.39
24.73
39.62
50.01
56.45
60.15
62.70
65.66
69.91
75.30
80.65
84.36
85.19
82.89
78.45
73.59
70.09
68.96
70.07
71.98
72.38
68.50
57.83
38.64
10.79
-23.99
-61.95
-98.00
-126.84
-144.28
-148.34
-139.59
-120.73
-95.61
-68.17
-41.69
-18.56
-0.38
11.88
17.95
18.29
14.24
7.81
1.15
-4.05
-7.06
-8.10
-8.14
-8.22
-8.98
-10.46
-12.24
-13.81
-14.93
-15.75
-16.82
-18.91
-22.75
-28.82
-37.12
-46.91
-56.68
-64.25
-67.33
-64.21
-54.36
-38.69
-19.31
1.18
20.42
36.83
49.64
58.61
63.75
65.06
62.72
57.30
49.86
41.93
34.97
30.03
27.29
26.22
25.85
25.29
24.13
22.49
20.85
19.68
19.06
18.61
17.43
14.42
8.66
-0.09
-11.04
-22.16
-30.45
-32.71
-26.46
-10.93
12.54
40.76
69.57
95.03
114.36
126.39
131.42
130.80
126.35
119.94
113.08
106.65
100.59
93.81
84.57
71.02
52.14
28.21
0.96
-26.88
-52.45
-73.51
-88.98
-98.96
-104.46
-107.09
-108.57
-110.46
-113.87
-119.06
-125.23
-130.57
-132.57
-128.82
-117.82
-99.59
-75.79
-49.19
-22.91
0.43
19.20
32.75
41.10
44.64
43.85
39.41
32.21
23.47
14.59
6.85
1.11
-2.43
-4.12
-4.72
-4.99
-5.47
-6.30
-7.38
-8.60
-9.96
-11.80
-14.68
-19.25
-26.02
-35.05
-45.69
-56.48
-65.28
-69.83
-68.36
-60.21
-46.06
-27.72
-7.53
12.21
29.74
43.87
53.94
59.55
60.67
57.68
51.46
43.37
35.01
27.76
22.52
19.44
18.06
17.59
17.26
16.60
15.54
14.22
12.82
11.26
9.15
5.93
0.99
-6.05
-15.17
-25.79
-36.70
-46.19
-52.23
-53.05
-47.58
-35.90
-19.28
0.16
20.02
38.17
53.15
64.12
70.76
72.97
70.98
65.35
57.13
47.78
38.90
31.83
27.24
25.06
24.50
24.53
24.26
23.22
21.41
19.15
16.69
13.97
10.51
5.54
-1.68
-11.50
-23.53
-36.55
-48.59
-57.34
-60.76
-57.61
-47.85
-32.60
-13.89
5.89
24.53
40.31
52.18
59.64
62.66
61.51
56.81
49.46
40.59
31.45
23.19
16.60
12.01
9.21
7.63
6.55
5.37
3.75
1.69
-0.68
-3.17
-5.80
-8.82
-12.82
-18.49
-26.44
-36.81
-48.99
-61.44
-71.88
-77.87
-77.51
-70.04
-56.14
-37.74
-17.33
2.69
20.52
35.12
46.01
52.97
55.88
54.80
50.17
42.90
34.32
25.96
19.09
14.49
12.27
11.88
12.44
12.97
12.76
11.50
9.28
6.47
3.37
0.10
-3.54
-8.03
-13.93
-21.65
-31.25
-42.27
-53.57
-63.43
-69.73
-70.50
-64.50
-51.80
-33.83
-13.01
7.91
26.67
41.94
53.28
60.80
64.76
65.33
62.67
57.27
50.00
42.24
35.37
30.45
27.86
27.18
27.50
27.78
27.24
25.60
23.14
20.30
17.52
14.99
12.51
9.72
6.12
1.38
-4.81
-12.59
-21.93
-32.43
-43.02
-51.98
-57.12
-56.46
-48.99
-35.21
-17.04
2.75
21.46
37.15
48.90
56.60
60.44
60.61
57.24
50.72
41.93
32.26
23.41
16.73
12.94
11.83
12.39
13.34
13.49
12.25
9.61
6.03
2.11
-1.71
-5.30
-8.85
-12.72
-17.29
-22.87
-29.69
-37.81
-46.95
-56.32
-64.56
-69.88
-70.52
-65.33
-54.23
-38.32
-19.61
-0.47
17.00
31.30
41.62
47.68
49.54
47.49
42.12
34.31
25.31
16.49
9.10
4.00
1.44
1.11
2.21
3.80
5.03
5.36
4.66
3.17
1.24
-0.86
-3.09
-5.68
-9.05
-13.65
-19.74
-27.33
-35.99
-44.82
-52.40
-56.99
-56.92
-51.11
-39.55
-23.43
-4.85
13.75
30.19
43.01
51.48
55.39
54.90
50.36
42.48
32.33
21.38
11.22
3.22
-1.79
-3.75
-3.29
-1.48
0.48
1.68
1.74
0.73
-0.94
-2.87
-4.92
-7.30
-10.48
-15.03
-21.40
-29.74
-39.80
-50.79
-61.24
-69.22
-72.57
-69.69
-60.04
-44.54
-25.33
-5.21
13.28
28.36
39.23
45.86
48.49
47.47
43.19
36.22
27.52
18.38
10.12
3.77
-0.16
-1.85
-1.95
-1.32
-0.76
-0.77
-1.50
-2.86
-4.70
-6.92
-9.65
-13.09
-17.51
-23.11
-30.06
-38.41
-48.09
-58.69
-69.26
-78.17
-83.36
-82.85
-75.53
-61.64
-42.90
-21.98
-1.71
15.74
29.20
38.48
43.88
45.76
44.42
40.17
33.65
25.86
18.11
11.63
7.23
5.12
4.93
5.92
7.25
8.23
8.38
7.51
5.63
2.89
-0.54
-4.54
-9.09
-14.28
-20.23
-27.06
-34.88
-43.70
-53.24
-62.71
-70.63
-75.03
-73.95
-66.19
-51.92
-32.81
-11.52
9.10
26.78
40.31
49.43
54.41
55.67
53.63
48.79
41.94
34.16
26.78
20.95
17.42
16.34
17.23
19.28
21.52
23.10
23.47
22.42
20.05
16.63
12.44
7.66
2.32
-3.61
-10.17
-17.39
-25.30
-33.93
-43.21
-52.62
-60.92
-66.17
-66.26
-59.65
-46.24
-27.56
-6.43
14.01
31.26
44.01
52.17
56.31
57.20
55.58
52.18
47.77
43.13
38.85
35.18
32.08
29.49
27.55
26.60
26.86
28.19
29.90
31.12
31.19
30.00
27.94
25.45
22.60
18.89
13.51
5.81
-4.29
-16.23
-28.87
-40.79
-50.35
-55.86
-55.85
-49.48
-36.97
-19.70
-0.02
19.46
36.52
49.76
58.71
63.42
64.22
61.54
55.92
48.14
39.28
30.56
23.17
17.95
15.29
15.03
16.54
18.96
21.37
23.08
23.76
23.46
22.49
21.19
19.75
18.15
16.14
13.40
9.65
4.67
-1.58
-8.87
-16.50
-23.25
-27.43
-27.36
-21.85
-10.78
4.72
22.49
39.97
54.93
65.93
72.42
74.53
72.67
67.35
59.07
48.56
36.74
24.83
14.01
5.16
-1.41
-6.00
-9.42
-12.66
-16.55
-21.51
-27.46
-33.96
-40.44
-46.45
-51.84
-56.77
-61.56
-66.57
-72.08
-78.12
-84.41
-90.21
-94.28
-94.99
-90.75
-80.56
-64.48
-43.80
-20.72
2.18
22.68
39.23
51.06
57.84
59.56
56.33
48.62
37.46
24.47
11.70
1.04
-6.24
-9.86
-10.44
-9.19
-7.31
-5.64
-4.53
-3.91
-3.60
-3.50
-3.78
-4.76
-6.92
-10.72
-16.60
-24.81
-35.24
-47.18
-59.10
-68.85
-74.10
-73.09
-65.28
-51.70
-34.66
-16.98
-1.18
11.15
19.50
24.06
25.29
23.53
19.05
12.26
3.94
-4.72
-12.26
-17.50
-19.78
-19.27
-16.85
-13.80
-11.36
-10.38
-11.07
-13.09
-15.77
-18.51
-21.07
-23.60
-26.71
-31.08
-37.25
-45.42
-55.15
-65.34
-74.27
-79.84
-80.03
-73.51
-60.16
-41.21
-19.07
3.43
23.74
40.06
51.63
58.39
60.71
59.15
54.36
47.22
38.88
30.63
23.65
18.75
16.10
15.34
15.67
16.21
16.24
15.37
13.54
10.90
7.65
3.93
-0.22
-4.82
-9.95
-15.68
-22.10
-29.44
-37.84
-47.18
-56.73
-65.00
-69.94
-69.49
-62.34
-48.55
-29.58
-8.00
13.36
32.07
46.62
56.36
61.35
62.03
58.99
53.05
45.25
36.83
29.03
22.86
18.87
17.06
16.98
17.86
18.84
19.23
18.58
16.77
13.92
10.31
6.22
1.82
-2.86
-7.89
-13.40
-19.54
-26.51
-34.56
-43.81
-53.91
-63.76
-71.55
-75.02
-72.27
-62.48
-46.37
-26.03
-4.32
16.01
32.95
45.49
53.42
56.96
56.49
52.49
45.67
37.07
28.04
20.01
14.14
10.98
10.40
11.65
13.73
15.72
17.00
17.33
16.73
15.32
13.19
10.32
6.66
2.18
-3.18
-9.51
-17.01
-25.90
-36.11
-47.02
-57.20
-64.57
-66.95
-62.75
-51.68
-34.96
-14.96
5.48
23.93
38.86
49.65
56.25
58.82
57.49
52.57
44.72
35.19
25.65
17.77
12.73
10.86
11.61
13.79
16.06
17.34
17.07
15.24
12.18
8.29
3.90
-0.92
-6.29
-12.43
-19.64
-28.18
-38.26
-49.82
-62.25
-74.18
-83.47
-87.66
-84.69
-73.75
-55.69
-32.94
-8.73
13.83
32.57
46.45
55.40
59.84
60.30
57.37
51.78
44.59
37.13
30.73
26.39
24.52
24.89
26.70
29.02
30.98
32.09
32.19
31.34
29.75
27.53
24.66
20.99
16.35
10.54
3.41
-5.17
-15.34
-27.00
-39.54
-51.62
-61.12
-65.64
-63.19
-53.03
-36.02
-14.52
8.32
29.44
46.60
58.69
65.56
67.60
65.38
59.52
50.74
40.03
28.66
18.03
9.34
3.28
-0.10
-1.34
-1.32
-0.94
-0.89
-1.55
-3.06
-5.39
-8.39
-11.91
-15.71
-19.66
-23.70
-27.95
-32.82
-38.85
-46.56
-55.99
-66.34
-75.79
-81.76
-81.57
-73.46
-57.34
-35.10
-10.04
14.13
34.40
49.17
58.27
62.42
62.63
59.67
54.08
46.30
36.99
27.08
17.63
9.55
3.34
-0.99
-3.83
-5.77
-7.43
-9.36
-12.01
-15.70
-20.60
-26.57
-33.16
-39.62
-45.15
-49.22
-51.83
-53.61
-55.58
-58.83
-63.95
-70.55
-77.22
-81.70
-81.62
-75.21
-61.98
-42.98
-20.51
2.55
23.57
40.74
53.29
61.23
65.06
65.41
63.01
58.68
53.41
48.35
44.55
42.76
43.23
45.64
49.19
52.82
55.53
56.61
55.77
53.14
49.15
44.24
38.71
32.59
25.64
17.53
7.87
-3.55
-16.66
-30.88
-45.06
-57.41
-65.83
-68.40
-64.06
-53.07
-37.00
-18.40
-0.06
15.73
27.51
34.71
37.33
35.65
30.10
21.34
10.38
-1.33
-12.12
-20.51
-25.67
-27.63
-27.32
-26.15
-25.45
-26.04
-28.03
-31.04
-34.41
-37.77
-41.12
-44.88
-49.68
-56.05
-64.31
-74.35
-85.64
-97.01
-106.71
-112.59
-112.58
-105.37
-91.02
-71.08
-48.18
-25.13
-4.09
13.94
28.96
41.42
51.61
59.40
64.30
66.03
64.90
61.88
58.44
55.97
55.38
56.72
59.29
61.97
63.63
63.63
61.94
59.03
55.52
51.83
47.92
43.27
37.19
29.02
18.45
5.66
-8.67
-23.35
-36.64
-46.50
-50.85
-48.11
-37.78
-20.73
0.91
24.25
46.31
64.77
78.25
86.32
89.26
87.77
82.66
74.93
65.65
55.97
47.04
39.79
34.72
31.80
30.47
29.89
29.10
27.42
24.58
20.74
16.31
11.70
7.05
2.21
-3.18
-9.57
-17.32
-26.60
-37.41
-49.38
-61.61
-72.56
-80.09
-81.97
-76.60
-63.66
-44.39
-21.35
2.33
23.81
41.19
53.61
61.07
63.98
62.77
57.83
49.67
39.12
27.39
15.97
6.24
-0.89
-5.25
-7.37
-8.24
-8.88
-10.02
-11.99
-14.77
-18.19
-21.99
-26.01
-30.16
-34.47
-39.03
-44.02
-49.74
-56.52
-64.64
-73.97
-83.72
-92.27
-97.36
-96.67
-88.57
-72.86
-50.96
-25.63
-0.17
22.47
40.30
52.51
59.15
60.80
58.23
52.24
43.76
33.87
23.75
14.60
7.41
2.77
0.74
0.88
2.36
4.21
5.58
5.92
5.10
3.28
0.77
-2.23
-5.64
-9.58
-14.19
-19.58
-25.82
-32.96
-41.12
-50.28
-59.95
-68.95
-75.34
-76.86
-71.62
-58.95
-39.74
-16.38
7.97
30.30
48.46
61.45
69.18
72.08
70.68
65.59
57.55
47.68
37.47
28.44
21.88
18.34
17.65
18.90
20.90
22.41
22.56
20.97
17.78
13.52
8.80
4.01
-0.76
-5.79
-11.53
-18.42
-26.73
-36.58
-47.81
-59.85
-71.50
-80.86
-85.64
-83.74
-74.09
-57.24
-35.27
-11.25
11.71
31.27
46.25
56.43
62.20
64.14
62.76
58.60
52.34
44.83
37.06
29.98
24.31
20.44
18.39
17.85
18.25
18.97
19.41
19.13
17.92
15.72
12.60
8.68
4.24
-0.33
-4.49
-7.84
-10.39
-12.79
-16.18
-21.62
-29.45
-38.91
-48.09
-54.62
-56.42
-52.42
-42.73
-28.38
-10.76
8.78
29.08
49.07
67.53
83.02
94.20
100.17
100.83
96.97
90.06
81.82
73.67
66.45
60.43
55.40
51.02
46.82
42.32
36.97
30.13
21.39
10.60
-1.89
-15.39
-29.02
-42.10
-54.28
-65.56
-76.25
-86.88
-97.90
-109.52
-121.31
-131.97
-139.43
-141.27
-135.55
-121.60
-100.49
-74.79
-47.81
-22.72
-1.70
14.28
25.23
31.66
34.19
33.42
29.93
24.52
18.16
11.95
6.94
3.85
2.95
3.99
6.26
8.80
10.70
11.36
10.59
8.59
5.80
2.66
-0.52
-3.72
-7.03
-10.74
-15.17
-20.72
-27.81
-36.63
-46.92
-57.60
-66.81
-72.20
-71.64
-64.01
-49.66
-30.43
-9.06
11.60
29.34
42.96
52.19
57.34
58.87
57.22
52.84
46.30
38.51
30.66
23.99
19.49
17.60
18.09
20.12
22.61
24.59
25.40
24.83
22.97
20.05
16.27
11.73
6.39
0.19
-6.95
-15.14
-24.42
-34.79
-45.91
-56.89
-66.21
-71.90
-72.00
-65.29
-51.81
-33.04
-11.59
9.61
28.06
42.20
51.54
56.30
56.98
54.17
48.48
40.73
32.01
23.56
16.62
12.00
9.90
9.89
11.07
12.44
13.14
12.65
10.87
8.05
4.54
0.63
-3.64
-8.44
-14.09
-20.93
-29.20
-38.98
-50.07
-61.96
-73.59
-83.27
-88.89
-88.38
-80.44
-65.21
-44.36
-20.70
2.64
23.10
39.22
50.65
57.71
60.87
60.57
57.18
51.24
43.67
35.72
28.67
23.52
20.74
20.08
20.82
21.98
22.60
22.05
20.09
16.84
12.67
8.01
3.16
-1.83
-7.14
-13.15
-20.29
-28.91
-39.04
-50.27
-61.51
-70.99
-76.55
-76.20
-68.74
-54.29
-34.35
-11.44
11.65
32.49
49.50
62.01
70.01
73.81
73.91
70.83
65.25
58.00
50.13
42.64
36.51
32.33
30.19
29.73
30.12
30.45
29.92
28.06
24.82
20.51
15.61
10.55
5.59
0.66
-4.52
-10.44
-17.65
-26.57
-37.22
-49.03
-60.63
-70.00
-74.82
-73.19
-64.24
-48.55
-28.12
-5.84
15.35
33.14
46.36
54.85
59.10
59.86
57.77
53.32
47.02
39.56
31.93
25.26
20.59
18.46
18.78
20.81
23.47
25.62
26.47
25.70
23.47
20.21
16.43
12.48
8.40
4.00
-1.17
-7.58
-15.67
-25.56
-36.87
-48.52
-58.67
-65.06
-65.57
-58.96
-45.35
-26.35
-4.63
16.89
35.73
50.31
59.94
64.64
64.74
60.79
53.53
44.01
33.56
23.68
15.76
10.71
8.79
9.45
11.56
13.77
14.90
14.38
12.24
8.99
5.23
1.34
-2.73
-7.30
-12.82
-19.64
-27.94
-37.70
-48.55
-59.59
-69.33
-75.79
-76.90
-71.32
-58.92
-41.05
-20.19
0.78
19.43
34.21
44.58
50.69
53.04
52.22
48.85
43.65
37.49
31.39
26.42
23.50
23.12
25.16
28.84
32.96
36.31
38.09
38.19
37.08
35.45
33.73
31.85
29.22
25.10
18.90
10.43
-0.21
-12.72
-26.60
-40.97
-54.37
-64.77
-69.95
-68.24
-59.23
-44.09
-25.40
-6.28
10.46
23.00
30.81
34.25
34.19
31.52
26.96
21.12
14.59
8.00
2.07
-2.54
-5.40
-6.37
-5.67
-3.83
-1.57
0.37
1.39
1.14
-0.47
-3.31
-7.16
-11.80
-17.08
-22.87
-29.10
-35.84
-43.25
-51.54
-60.72
-70.25
-78.80
-84.40
-84.88
-78.68
-65.47
-46.46
-24.13
-1.51
18.64
34.44
45.17
51.03
52.84
51.60
48.23
43.46
37.83
31.90
26.22
21.47
18.23
16.80
17.04
18.40
20.05
21.17
21.15
19.74
16.96
13.01
8.22
2.96
-2.39
-7.56
-12.49
-17.40
-22.78
-29.26
-37.29
-46.73
-56.68
-65.39
-70.64
-70.36
-63.33
-49.74
-31.26
-10.53
9.59
26.79
39.76
48.20
52.44
53.10
50.86
46.37
40.40
33.84
27.63
22.66
19.51
18.39
19.06
20.95
23.33
25.41
26.52
26.23
24.38
21.08
16.66
11.53
6.14
0.79
-4.38
-9.49
-14.89
-21.09
-28.52
-37.29
-46.81
-55.68
-61.86
-63.18
-58.09
-46.24
-28.67
-7.58
14.47
35.15
52.89
66.92
77.05
83.40
86.23
85.89
82.92
78.02
72.10
66.21
61.38
58.53
58.11
59.96
63.21
66.49
68.37
67.88
64.82
59.66
53.20
46.10
38.55
30.29
20.89
9.96
-2.69
-17.09
-33.13
-50.50
-68.42
-85.43
-99.40
-107.91
-109.02
-101.97
-87.59
-68.20
-47.02
-27.24
-11.27
-0.28
5.78
7.81
7.01
4.48
0.97
-3.08
-7.30
-11.26
-14.37
-16.03
-15.90
-14.10
-11.21
-8.11
-5.66
-4.42
-4.57
-5.93
-8.18
-11.00
-14.23
-17.80
-21.71
-25.97
-30.68
-36.08
-42.60
-50.56
-59.87
-69.55
-77.73
-82.03
-80.29
-71.49
-56.14
-36.28
-14.75
5.60
22.68
35.45
43.77
48.07
48.96
47.09
43.06
37.54
31.26
25.06
19.74
15.87
13.74
13.24
13.95
15.26
16.55
17.33
17.28
16.21
14.05
10.87
6.85
2.28
-2.51
-7.33
-12.22
-17.52
-23.79
-31.57
-41.03
-51.64
-61.96
-69.82
-72.89
-69.39
-58.78
-42.14
-21.83
-0.80
18.18
33.26
43.65
49.39
51.02
49.24
44.75
38.37
31.01
23.62
17.06
11.94
8.55
6.83
6.54
7.27
8.53
9.78
10.53
10.35
9.02
6.59
3.31
-0.32
-3.84
-6.90
-9.41
-11.54
-13.69
-16.39
-20.05
-24.72
-29.82
-34.04
-35.50
-32.34
-23.35
-8.59
10.36
30.83
49.81
64.84
74.58
78.90
78.51
74.35
67.19
57.58
46.07
33.42
20.77
9.40
0.40
-5.65
-8.93
-10.23
-10.69
-11.36
-12.96
-15.65
-19.27
-23.43
-27.79
-32.21
-36.75
-41.60
-47.00
-53.23
-60.54
-68.98
-78.23
-87.37
-94.78
-98.38
-96.17
-86.98
-71.12
-50.36
-27.51
-5.59
13.01
27.06
36.33
41.32
42.71
41.07
36.91
30.85
23.77
16.73
10.82
6.81
4.90
4.74
5.56
6.46
6.72
5.92
4.02
1.24
-2.20
-6.06
-10.25
-14.81
-19.92
-25.80
-32.75
-40.99
-50.61
-61.23
-71.80
-80.55
-85.31
-83.99
-75.40
-59.75
-38.74
-15.19
7.77
27.52
42.50
52.34
57.45
58.67
56.80
52.57
46.64
39.78
32.90
26.96
22.74
20.66
20.63
22.16
24.48
26.83
28.56
29.32
28.93
27.40
24.78
21.10
16.38
10.63
3.92
-3.70
-12.21
-21.68
-32.13
-43.22
-54.02
-62.81
-67.44
-65.93
-57.24
-41.82
-21.60
0.50
21.49
38.99
51.66
59.27
62.25
61.37
57.46
51.30
43.72
35.65
28.05
21.79
17.46
15.23
14.78
15.47
16.50
17.16
17.00
15.80
13.56
10.41
6.51
2.03
-2.85
-8.06
-13.64
-19.87
-27.19
-36.00
-46.32
-57.43
-67.72
-74.96
-76.88
-72.00
-60.19
-42.87
-22.56
-2.12
16.04
30.37
40.25
45.75
47.25
45.26
40.48
33.77
26.18
18.88
12.87
8.86
7.09
7.39
9.14
11.48
13.52
14.55
14.27
12.78
10.45
7.67
4.62
1.13
-3.12
-8.48
-15.18
-23.22
-32.42
-42.23
-51.64
-59.14
-62.87
-61.11
-52.96
-38.79
-20.27
0.11
19.76
36.66
49.68
58.46
63.05
63.66
60.66
54.73
46.95
38.80
31.82
27.20
25.45
26.34
29.05
32.50
35.71
38.01
39.12
39.06
38.02
36.26
33.91
30.97
27.19
22.11
15.21
6.06
-5.29
-18.13
-30.86
-41.32
-47.20
-46.71
-39.24
-25.64
-8.03
10.79
28.01
41.53
50.22
53.87
52.85
47.82
39.55
28.89
16.88
4.74
-6.16
-14.59
-19.72
-21.44
-20.29
-17.33
-13.74
-10.50
-8.13
-6.67
-5.90
-5.54
-5.47
-5.82
-6.89
-9.10
-12.88
-18.66
-26.74
-37.04
-48.82
-60.47
-69.63
-73.77
-70.93
-60.55
-43.65
-22.63
-0.48
20.08
37.23
50.11
58.63
63.00
63.55
60.65
54.93
47.32
39.10
31.65
26.07
22.96
22.19
23.06
24.48
25.26
24.47
21.50
16.24
8.87
-0.16
-10.36
-21.19
-32.17
-42.95
-53.29
-63.24
-73.10
-83.18
-93.44
-103.06
-110.36
-113.13
-109.40
-98.26
-80.38
-57.92
-33.88
-11.14
8.27
23.45
34.38
41.45
44.97
45.18
42.34
37.03
30.28
23.46
17.96
14.73
14.06
15.48
18.01
20.57
22.34
22.91
22.33
20.92
19.01
16.80
14.30
11.38
7.87
3.53
-1.92
-8.73
-16.96
-26.16
-35.12
-42.04
-44.80
-41.71
-32.17
-16.92
2.02
22.04
40.58
55.78
66.69
73.18
75.60
74.44
70.20
63.37
54.56
44.69
34.92
26.54
20.57
17.47
16.88
17.79
18.85
18.86
17.18
13.76
8.97
3.31
-2.86
-9.40
-16.28
-23.48
-31.06
-39.18
-48.14
-58.10
-68.69
-78.57
-85.53
-87.04
-81.15
-67.33
-46.84
-22.46
2.46
24.91
42.92
55.65
63.03
65.37
63.06
56.60
46.79
34.84
22.38
11.10
2.32
-3.33
-6.10
-6.97
-7.23
-8.01
-10.00
-13.31
-17.55
-22.09
-26.27
-29.68
-32.32
-34.61
-37.24
-40.98
-46.42
-53.81
-62.84
-72.49
-81.11
-86.55
-86.64
-79.79
-65.63
-45.31
-21.39
2.84
24.25
40.64
51.12
55.94
56.04
52.54
46.44
38.58
29.77
20.87
12.86
6.57
2.53
0.81
0.90
1.94
2.98
3.24
2.33
0.25
-2.76
-6.47
-10.74
-15.62
-21.17
-27.38
-34.21
-41.67
-49.93
-59.14
-69.09
-78.88
-86.71
-90.22
-87.24
-76.61
-58.73
-35.62
-10.27
14.16
35.22
51.49
62.55
68.66
70.36
68.29
63.14
55.79
47.28
38.86
31.67
26.53
23.70
22.82
23.10
23.53
23.27
21.80
19.08
15.32
10.85
5.92
0.66
-4.91
-10.76
-16.91
-23.41
-30.48
-38.51
-47.75
-57.95
-68.07
-76.11
-79.63
-76.56
-66.09
-49.04
-27.80
-5.49
14.99
31.65
43.70
51.19
54.57
54.31
50.82
44.60
36.49
27.72
19.66
13.51
9.94
8.93
9.87
11.79
13.69
14.82
14.79
13.57
11.31
8.25
4.57
0.43
-4.06
-8.92
-14.31
-20.59
-28.25
-37.57
-48.29
-59.23
-68.32
-73.04
-71.17
-61.61
-44.92
-23.27
0.28
22.64
41.46
55.49
64.53
68.93
69.23
65.97
59.75
51.44
42.24
33.54
26.58
22.09
20.10
20.05
20.98
21.90
22.01
20.86
18.30
14.43
9.49
3.79
-2.45
-9.05
-15.98
-23.36
-31.53
-40.93
-51.81
-63.87
-75.94
-85.91
-91.14
-89.27
-79.11
-61.29
-38.07
-12.80
11.21
31.46
46.72
56.76
62.05
63.25
60.99
55.99
49.16
41.55
34.38
28.70
25.21
24.09
25.00
27.17
29.74
31.97
33.34
33.72
33.19
31.84
29.72
26.73
22.71
17.48
10.98
3.13
-6.21
-17.21
-29.75
-43.07
-55.47
-64.46
-67.37
-62.29
-48.92
-28.82
-5.04
18.75
39.31
54.47
63.32
65.90
62.88
55.17
43.93
30.55
16.62
3.79
-6.58
-13.67
-17.49
-18.67
-18.34
-17.69
-17.62
-18.63
-20.77
-23.72
-27.08
-30.56
-34.08
-37.73
-41.68
-46.14
-51.28
-57.37
-64.72
-73.45
-83.14
-92.37
-98.89
-100.06
-93.77
-79.28
-57.62
-31.27
-3.43
22.83
45.21
62.39
73.94
80.12
81.69
79.74
75.54
70.31
64.97
60.16
56.20
53.13
50.82
48.92
46.89
44.18
40.34
35.24
29.04
22.14
14.90
7.54
0.03
-7.83
-16.31
-25.70
-36.26
-48.10
-60.95
-73.98
-85.59
-93.66
-96.07
-91.36
-79.36
-61.32
-39.63
-17.08
3.74
21.05
33.89
41.93
45.27
44.27
39.53
31.93
22.70
13.26
4.98
-1.08
-4.39
-5.07
-3.80
-1.61
0.39
1.26
0.46
-2.09
-6.09
-11.07
-16.56
-22.33
-28.43
-35.13
-42.81
-51.77
-62.02
-73.11
-83.89
-92.58
-96.89
-94.62
-84.23
-65.51
-39.81
-9.80
21.17
49.93
74.12
92.51
104.86
111.64
113.63
111.83
107.46
101.87
96.46
92.39
90.25
89.88
90.44
90.70
89.52
86.25
80.92
74.10
66.55
58.83
51.07
42.98
34.01
23.67
11.63
-2.24
-17.95
-35.28
-53.61
-71.67
-87.41
-98.29
-101.93
-96.98
-83.72
-64.13
-41.39
-18.91
0.54
15.38
25.17
30.21
31.03
28.11
21.93
13.26
3.26
-6.45
-14.23
-18.82
-19.75
-17.45
-13.06
-8.02
-3.63
-0.69
0.53
0.20
-1.29
-3.55
-6.36
-9.72
-13.85
-19.13
-26.05
-34.87
-45.47
-57.04
-67.98
-76.16
-79.44
-76.34
-66.61
-51.36
-32.68
-12.99
5.60
21.68
34.50
43.71
49.13
50.57
48.12
42.33
34.42
26.03
18.86
14.09
12.09
12.34
13.77
15.16
15.60
14.75
12.67
9.64
5.90
1.45
-3.93
-10.57
-18.81
-28.89
-40.85
-54.43
-68.83
-82.56
-93.55
-99.54
-98.68
-90.30
-75.11
-54.98
-32.28
-9.14
12.95
33.01
50.26
63.74
72.42
75.46
72.80
65.37
55.06
44.22
35.00
28.95
26.69
27.95
31.75
36.74
41.49
44.74
45.67
43.96
39.75
33.50
25.74
16.88
7.12
-3.71
-15.96
-29.95
-45.58
-62.00
-77.39
-89.26
-94.96
-92.51
-81.35
-62.66
-39.06
-13.90
9.63
29.20
43.64
52.70
56.75
56.41
52.45
45.72
37.33
28.57
20.73
14.87
11.56
10.70
11.64
13.39
14.87
15.26
14.19
11.70
8.14
3.90
-0.74
-5.76
-11.31
-17.68
-25.13
-33.88
-43.97
-55.09
-66.46
-76.55
-83.38
-84.78
-79.18
-66.12
-46.68
-23.20
1.28
23.89
42.57
56.34
65.14
69.49
70.03
67.49
62.59
56.19
49.25
42.73
37.42
33.78
31.91
31.55
32.19
33.17
33.77
33.37
31.59
28.35
23.88
18.62
13.03
7.48
2.06
-3.39
-9.24
-16.02
-24.25
-34.19
-45.56
-57.23
-67.23
-73.16
-72.81
-64.97
-49.88
-29.36
-6.29
16.17
35.41
49.86
59.10
63.56
64.09
61.65
57.10
51.26
44.91
38.78
33.50
29.46
26.80
25.43
25.10
25.44
26.06
26.52
26.35
25.12
22.51
18.44
13.09
6.90
0.40
-5.94
-11.88
-17.53
-23.37
-30.14
-38.55
-48.89
-60.60
-72.13
-81.02
-84.63
-80.93
-69.31
-50.97
-28.54
-5.29
15.77
32.64
44.54
51.67
54.74
54.56
51.90
47.46
42.02
36.42
31.51
27.98
26.17
26.06
27.23
28.98
30.51
31.08
30.21
27.78
23.97
19.15
13.72
7.93
1.90
-4.35
-10.85
-17.69
-25.01
-33.12
-42.28
-52.41
-62.65
-71.29
-76.00
-74.64
-66.08
-50.78
-30.71
-8.84
11.89
29.26
42.14
50.40
54.41
54.71
51.84
46.35
38.97
30.66
22.61
15.98
11.68
10.04
10.74
12.85
15.18
16.62
16.53
14.79
11.76
7.93
3.70
-0.86
-5.84
-11.45
-17.79
-24.96
-33.10
-42.36
-52.71
-63.48
-73.14
-79.39
-79.81
-72.74
-58.07
-37.47
-13.98
9.00
28.70
43.53
53.17
58.11
59.07
56.74
51.73
44.74
36.66
28.62
21.69
16.70
13.98
13.33
14.08
15.36
16.26
16.12
14.62
11.80
7.98
3.63
-0.90
-5.42
-9.96
-14.72
-19.96
-26.08
-33.47
-42.36
-52.49
-62.89
-71.68
-76.51
-75.22
-66.70
-51.36
-31.13
-8.91
12.37
30.39
43.91
52.61
56.86
57.28
54.65
49.76
43.49
36.76
30.41
25.14
21.35
19.16
18.38
18.66
19.52
20.43
20.95
20.69
19.41
17.01
13.49
8.99
3.70
-2.14
-8.34
-14.79
-21.60
-29.09
-37.66
-47.51
-58.10
-67.98
-74.92
-76.50
-71.03
-58.32
-39.82
-18.27
3.31
22.36
37.43
48.02
54.28
56.62
55.44
51.26
44.84
37.20
29.53
22.96
18.28
15.77
15.18
15.85
16.92
17.60
17.34
15.93
13.52
10.41
6.94
3.32
-0.44
-4.50
-9.11
-14.60
-21.31
-29.52
-39.20
-49.83
-60.13
-68.20
-71.89
-69.54
-60.58
-45.84
-27.38
-7.89
10.11
24.78
35.24
41.33
43.40
41.98
37.69
31.29
23.75
16.18
9.73
5.35
3.51
4.14
6.55
9.65
12.30
13.65
13.27
11.29
8.15
4.36
0.27
-4.05
-8.78
-14.22
-20.69
-28.45
-37.63
-48.09
-59.12
-69.31
-76.65
-79.00
-74.79
-63.63
-46.58
-25.94
-4.47
15.32
31.71
43.91
51.81
55.65
55.81
52.75
47.19
40.10
32.67
26.06
21.13
18.26
17.28
17.66
18.65
19.47
19.57
18.60
16.49
13.36
9.40
4.82
-0.18
-5.52
-11.22
-17.39
-24.30
-32.23
-41.30
-51.23
-61.00
-68.91
-72.86
-70.97
-62.25
-47.13
-27.34
-5.50
15.63
33.80
47.65
56.78
61.44
62.27
60.06
55.61
49.78
43.46
37.48
32.58
29.20
27.45
27.06
27.52
28.21
28.61
28.26
26.88
24.30
20.51
15.67
10.11
4.18
-1.77
-7.60
-13.46
-19.77
-27.15
-36.03
-46.38
-57.40
-67.39
-74.05
-75.11
-69.09
-55.92
-37.03
-15.02
7.13
26.80
42.23
52.67
58.14
59.16
56.50
51.13
44.07
36.40
29.10
22.96
18.52
16.00
15.39
16.40
18.49
20.97
23.10
24.24
23.99
22.30
19.30
15.27
10.49
5.18
-0.50
-6.37
-12.33
-18.37
-24.68
-31.62
-39.39
-47.71
-55.49
-60.92
-61.93
-56.91
-45.44
-28.56
-8.49
12.02
30.57
45.60
56.56
63.60
67.18
67.79
65.89
62.02
56.89
51.28
45.91
41.30
37.66
35.05
33.41
32.66
32.56
32.68
32.33
30.70
27.20
21.68
14.46
6.22
-2.34
-10.74
-18.88
-27.02
-35.60
-45.08
-55.64
-67.02
-78.25
-87.70
-93.33
-93.25
-86.38
-72.97
-54.63
-33.98
-13.85
3.46
16.64
25.45
30.35
32.12
31.45
28.90
24.85
19.77
14.28
9.11
5.04
2.60
1.99
2.96
4.94
7.17
8.98
9.84
9.45
7.74
4.77
0.80
