1703168453.00
64.000000
-0.00
-0.00
-0.00
-0.00
-0.00
-0.00
-0.00
-0.00
-0.00
-0.00
0.00
0.01
0.01
-0.00
-0.03
-0.05
-0.05
0.00
0.13
0.36
0.66
1.01
1.37
1.72
2.06
2.40
2.79
3.24
3.80
4.42
5.06
5.66
6.20
6.68
7.15
7.68
8.31
9.14
10.09
11.04
11.88
12.56
13.14
13.76
14.65
15.96
17.91
20.32
22.90
25.38
27.58
29.57
31.68
34.32
37.81
42.54
48.15
54.10
59.83
64.97
69.58
74.14
79.34
85.71
93.76
103.00
112.62
121.73
129.77
136.75
143.30
150.75
157.77
166.64
177.95
191.79
206.97
220.57
228.25
225.36
208.53
176.87
132.76
80.05
23.07
-34.94
-92.44
-149.16
-205.23
-260.37
-313.74
-363.87
-409.83
-450.91
-486.50
-515.74
-537.23
-549.22
-549.96
-538.37
-514.21
-478.67
-433.88
-382.45
-327.02
-269.84
-212.63
-156.66
-102.95
-52.37
-5.90
35.58
71.43
101.35
125.50
144.38
158.69
169.15
176.37
180.75
182.57
182.07
179.51
175.23
169.65
163.18
156.15
148.81
141.30
133.69
126.02
118.33
110.69
103.16
95.80
88.68
81.83
75.25
68.95
62.95
57.25
51.86
46.78
42.03
37.59
33.45
29.61
26.07
22.81
19.83
17.11
14.67
12.48
10.54
8.83
7.35
6.07
4.97
4.05
3.27
2.62
2.09
1.65
1.30
1.01
0.79
0.61
0.47
0.37
0.29
0.23
0.19
0.16
0.15
0.15
0.15
0.17
0.19
0.22
0.25
0.29
0.33
0.38
0.42
0.47
0.52
0.57
0.62
0.68
0.74
0.80
0.87
0.94
1.02
1.11
1.21
1.32
1.44
1.58
1.74
1.91
2.10
2.32
2.56
2.83
3.12
3.44
3.80
4.18
4.60
5.06
5.56
6.09
6.67
7.29
7.94
8.65
9.40
10.19
11.03
11.92
12.85
13.83
14.87
15.97
17.14
18.37
19.64
20.94
22.20
23.37
24.35
25.02
25.26
24.95
24.00
22.34
19.96
16.90
13.19
8.97
4.41
-0.34
-5.04
-9.49
-13.46
-16.78
-19.33
-21.09
-22.07
-22.40
-22.18
-21.55
-20.60
-19.40
-17.99
-16.41
-14.71
-12.95
-11.26
-9.73
-8.37
-7.14
-5.91
-4.56
-3.02
-1.30
0.51
2.11
3.29
3.98
4.33
4.60
5.13
6.12
7.55
9.27
10.65
11.24
10.90
9.89
8.74
8.05
8.20
9.21
10.77
11.83
11.61
9.87
6.93
3.51
0.43
-1.79
-3.06
-3.69
-5.01
-8.29
-14.67
-24.98
-39.40
-57.22
-76.92
-96.82
-110.54
-114.97
-109.53
-96.24
-78.72
-60.74
-44.75
-31.45
-20.12
-9.59
0.11
8.53
15.11
19.78
23.16
26.25
29.70
33.37
36.42
37.08
34.15
27.51
18.26
8.23
-0.73
-7.50
-11.95
-14.85
-17.82
-22.37
-29.50
-39.40
-51.22
-63.01
-71.94
-74.94
-69.59
-55.26
-33.30
-6.72
20.69
45.55
65.65
80.24
89.59
94.34
95.07
92.22
86.34
78.36
69.57
61.30
54.51
49.48
45.83
42.81
39.77
36.44
33.04
29.94
27.35
25.07
22.43
18.62
12.98
5.37
-3.81
-13.68
-23.27
-31.81
-39.13
-45.68
-52.45
-60.55
-70.73
-82.88
-95.63
-106.58
-112.69
-111.29
-100.98
-82.19
-57.15
-29.27
-2.12
21.48
39.95
52.96
60.99
64.85
65.35
63.18
59.01
53.62
47.79
42.26
37.54
33.83
31.08
29.09
27.61
26.37
25.05
23.28
20.70
17.05
12.31
6.72
0.71
-5.26
-10.90
-16.15
-21.25
-26.66
-32.95
-40.69
-50.01
-60.42
-70.48
-77.99
-80.44
-75.82
-63.44
-44.30
-20.95
3.34
25.57
43.77
57.26
66.37
71.75
73.99
73.44
70.35
65.24
58.97
52.67
47.36
43.67
41.63
40.77
40.46
40.16
39.63
38.81
37.66
35.92
33.04
28.36
21.34
11.84
0.17
-13.05
-27.25
-42.07
-57.24
-72.35
-86.35
-97.46
-103.41
-102.22
-92.90
-76.11
-54.02
-29.71
-6.31
13.88
29.63
40.76
47.63
50.82
50.85
48.24
43.68
38.02
32.24
27.22
23.51
21.32
20.45
20.49
20.85
21.01
20.51
19.07
16.58
13.11
8.86
4.07
-0.98
-6.16
-11.46
-17.18
-23.84
-32.06
-42.12
-53.58
-64.99
-74.08
-78.29
-75.60
-65.31
-48.27
-26.67
-3.40
18.79
37.86
52.71
63.08
69.25
71.70
71.05
68.03
63.52
58.57
54.28
51.55
50.90
52.30
55.27
59.11
63.06
66.49
68.86
69.71
68.65
65.43
60.06
52.87
44.42
35.29
25.86
16.17
6.00
-5.00
-17.11
-30.27
-43.83
-56.48
-66.33
-71.40
-70.20
-62.45
-49.42
-33.63
-18.19
-5.80
1.96
4.93
4.10
1.03
-2.73
-5.96
-7.92
-8.24
-6.84
-3.92
0.06
4.46
8.51
11.56
13.22
13.50
12.74
11.32
9.42
6.83
3.02
-2.61
-10.34
-19.92
-30.52
-41.05
-50.49
-58.17
-63.99
-68.30
-71.80
-75.32
-79.68
-85.45
-92.66
-100.57
-107.61
-111.64
-110.51
-102.88
-88.66
-69.25
-47.01
-24.59
-4.20
12.86
26.16
35.83
42.22
45.70
46.69
45.73
43.58
41.10
39.07
38.00
38.03
38.94
40.26
41.46
42.09
41.87
40.75
38.82
36.24
33.10
29.42
25.14
20.21
14.62
8.45
1.83
-5.12
-12.26
-19.34
-26.05
-31.94
-36.64
-40.03
-42.45
-44.71
-47.85
-52.74
-59.51
-67.29
-74.20
-77.87
-76.15
-68.01
-53.87
-35.55
-15.70
3.18
19.29
31.86
40.91
46.81
49.92
50.40
48.49
44.59
39.52
34.41
30.42
28.33
28.35
29.99
32.31
34.22
34.91
34.07
31.92
29.05
26.04
23.20
20.43
17.29
13.31
8.21
2.11
-4.55
-11.20
-17.43
-23.04
-28.18
-33.12
-38.17
-43.59
-49.52
-56.12
-63.50
-71.68
-80.39
-88.83
-95.60
-98.91
-97.08
-89.09
-75.00
-55.99
-34.12
-11.71
9.09
26.66
40.05
48.84
53.16
53.54
50.84
46.20
40.74
35.39
30.71
26.87
23.71
20.99
18.51
16.27
14.54
13.67
13.97
15.43
17.65
19.79
20.87
20.02
16.83
11.48
4.60
-2.89
-10.15
-16.64
-22.25
-27.29
-32.40
-38.40
-46.02
-55.59
-66.67
-77.97
-87.49
-92.99
-92.68
-85.70
-72.37
-54.07
-32.83
-10.88
9.74
27.45
41.32
51.12
57.29
60.76
62.62
63.88
65.32
67.34
70.05
73.12
76.00
77.87
78.00
75.95
71.74
65.89
59.07
51.87
44.51
36.94
28.99
20.62
12.08
3.87
-3.42
-9.24
-13.23
-15.36
-15.92
-15.52
-14.98
-15.10
-16.41
-19.02
-22.53
-26.09
-28.71
-29.47
-27.80
-23.53
-16.89
-8.53
0.69
9.75
17.61
23.44
26.70
27.26
25.41
21.76
17.01
11.93
7.11
3.00
-0.15
-2.28
-3.53
-4.23
-4.75
-5.42
-6.28
-7.18
-7.76
-7.83
-7.43
-6.94
-6.92
-7.81
-9.74
-12.43
-15.34
-17.96
-20.04
-21.66
-23.20
-25.09
-27.63
-30.84
-34.42
-37.79
-40.18
-40.76
-38.80
-33.90
-26.19
-16.31
-5.37
5.42
14.98
22.67
28.26
31.89
33.82
34.23
33.29
31.20
28.30
25.10
22.06
19.46
17.25
15.12
12.81
10.25
7.75
5.86
4.97
5.07
5.63
5.79
4.75
2.19
-1.65
-6.06
-10.31
-13.91
-16.79
-19.26
-21.80
-24.84
-28.63
-33.29
-38.76
-44.78
-50.84
-56.07
-59.31
-59.45
-55.78
-48.27
-37.68
-25.34
-12.72
-1.13
8.61
16.04
21.02
23.53
23.71
21.87
18.66
15.01
11.87
10.04
9.87
11.27
13.83
16.98
20.20
23.16
25.75
27.97
29.86
31.32
32.15
32.09
30.87
28.41
24.82
20.42
15.60
10.76
6.12
1.72
-2.53
-6.88
-11.64
-17.17
-23.73
-31.30
-39.43
-47.19
-53.27
-56.27
-55.15
-49.54
-39.91
-27.50
-13.91
-0.72
10.91
20.33
27.34
31.97
34.36
34.71
33.32
30.68
27.53
24.67
22.81
22.35
23.24
25.11
27.34
29.30
30.50
30.66
29.78
28.10
26.03
23.94
22.05
20.27
18.23
15.43
11.49
6.34
0.33
-5.95
-11.84
-16.93
-21.13
-24.72
-28.21
-32.14
-36.98
-43.00
-50.15
-57.98
-65.60
-71.74
-74.98
-74.16
-68.70
-58.84
-45.55
-30.31
-14.71
-0.19
12.20
21.80
28.35
31.95
32.94
31.97
29.84
27.45
25.53
24.60
24.78
25.86
27.41
28.99
30.33
31.39
32.31
33.26
34.20
34.86
34.82
33.74
31.50
28.31
24.62
20.85
17.24
13.78
10.23
6.33
1.92
-2.98
-8.18
-13.37
-18.26
-22.63
-26.43
-29.82
-33.23
-37.22
-42.30
-48.64
-55.75
-62.48
-67.29
-68.71
-65.91
-58.96
-48.85
-37.11
-25.29
-14.63
-5.85
0.73
4.99
6.87
6.28
3.38
-1.45
-7.49
-13.86
-19.73
-24.59
-28.34
-31.18
-33.45
-35.34
-36.94
-38.29
-39.48
-40.86
-42.87
-45.88
-49.94
-54.66
-59.27
-62.85
-64.57
-63.79
-60.17
-53.53
-43.91
-31.52
-16.87
-0.81
15.60
31.18
44.87
55.83
63.57
67.80
68.41
65.48
59.53
51.63
43.38
36.69
33.18
33.73
38.16
45.37
53.78
61.89
68.61
73.39
76.08
76.76
75.68
73.26
70.12
66.97
64.39
62.66
61.69
61.16
60.75
60.41
60.32
60.86
62.21
64.25
66.47
68.13
68.53
67.25
64.27
59.91
54.67
49.05
43.44
38.08
33.02
28.20
23.40
18.42
13.12
7.52
1.81
-3.64
-8.45
-12.40
-15.55
-18.32
-21.27
-24.84
-29.01
-33.12
-36.02
-36.47
-33.68
-27.59
-19.01
-9.25
0.35
8.86
15.88
21.38
25.44
28.03
29.01
28.26
25.95
22.61
19.00
15.92
13.88
13.02
13.09
13.66
14.29
14.69
14.82
14.73
14.57
14.38
14.11
13.63
12.75
11.28
9.03
5.97
2.23
-1.91
-6.16
-10.28
-14.17
-17.86
-21.47
-25.11
-28.78
-32.38
-35.79
-39.05
-42.29
-45.67
-49.28
-53.05
-56.80
-60.18
-62.60
-63.35
-61.81
-57.59
-50.52
-40.89
-29.54
-17.69
-6.64
2.69
9.98
15.02
17.92
19.28
19.87
20.42
21.36
22.84
24.80
27.08
29.04
30.24
31.22
32.93
36.10
40.64
45.50
48.99
49.31
44.25
32.34
13.99
-9.02
-33.97
-57.82
-77.79
-91.70
-94.55
-84.28
-65.17
-46.02
-34.89
-34.80
-43.79
-57.24
-70.15
-78.79
-81.96
-82.51
-80.03
-73.53
-62.30
-46.47
-27.14
-5.87
15.84
36.46
55.06
72.20
88.03
101.90
112.76
119.70
122.47
121.41
116.63
108.11
96.34
82.25
67.21
53.19
42.07
34.81
30.91
28.43
25.24
20.56
15.00
9.48
5.04
1.93
-0.32
-2.59
-5.69
-9.88
-14.56
-18.88
-23.30
-28.35
-34.60
-41.77
-49.00
-55.41
-60.33
-63.38
-64.55
-65.76
-68.93
-75.83
-87.00
-102.05
-120.16
-140.48
-162.20
-175.13
-172.07
-151.23
-118.27
-81.36
-46.79
-17.81
4.67
21.04
32.63
37.66
37.78
34.55
30.05
26.25
24.32
24.49
26.32
28.94
30.04
29.60
26.96
22.60
17.80
13.88
11.69
11.40
12.60
13.84
14.07
12.34
8.84
4.44
0.09
-3.57
-6.30
-8.10
-9.40
-10.40
-11.43
-12.40
-13.12
-13.53
-13.68
-13.56
-12.99
-11.65
-9.09
-5.22
-0.08
5.99
12.44
18.74
24.53
29.62
33.94
37.42
39.82
40.99
40.87
39.60
37.50
34.93
32.18
29.42
26.73
24.04
21.38
18.76
16.23
13.77
11.31
8.77
6.07
3.27
0.46
-2.23
-4.81
-7.41
-10.23
-13.39
-16.84
-20.34
-23.52
-26.05
-27.82
-28.91
-29.63
-30.24
-30.86
-31.31
-31.21
-30.03
-27.35
-22.96
-17.03
-9.97
-2.31
5.44
12.94
19.92
26.14
31.26
34.92
36.85
36.99
35.57
33.09
30.18
27.42
25.16
23.52
22.35
21.39
20.40
19.26
17.92
16.41
14.66
12.61
10.14
7.25
4.12
1.03
-1.73
-4.05
-6.00
-7.96
-10.27
-13.20
-16.75
-20.67
-24.62
-28.26
-31.41
-34.01
-36.08
-37.58
-38.32
-38.06
-36.51
-33.55
-29.30
-24.18
-18.74
-13.57
-9.10
-5.51
-2.81
-0.92
0.17
0.42
-0.28
-1.91
-4.28
-6.98
-9.49
-11.33
-12.16
-11.89
-10.60
-8.42
-5.42
-1.60
3.11
8.65
14.67
20.48
25.22
28.17
29.05
28.19
26.42
24.73
23.86
23.97
24.63
25.11
24.67
22.92
19.93
16.14
12.04
8.05
4.22
0.50
-3.16
-6.54
-9.13
-10.26
-9.47
-6.71
-2.40
2.74
8.05
13.14
17.95
22.57
26.91
30.66
33.35
34.58
34.28
32.79
30.73
28.77
27.35
26.64
26.43
26.46
26.43
26.15
25.52
24.42
22.68
20.19
17.00
13.32
9.57
6.14
3.18
0.56
-2.11
-5.25
-9.02
-13.25
-17.49
-21.28
-24.36
-26.81
-28.91
-31.01
-33.26
-35.58
-37.58
-38.74
-38.46
-36.35
-32.28
-26.45
-19.35
-11.64
-4.00
2.98
8.89
13.51
16.80
18.81
19.67
19.58
18.81
17.66
16.44
15.44
14.90
14.91
15.39
16.04
16.47
16.36
15.67
14.66
13.76
13.34
13.47
13.90
14.19
13.96
13.11
11.79
10.30
8.86
7.49
6.03
4.29
2.21
-0.13
-2.52
-4.73
-6.55
-7.96
-9.06
-10.03
-11.10
-12.36
-13.73
-14.96
-15.64
-15.42
-14.01
-11.32
-7.44
-2.74
2.19
6.63
9.93
11.70
11.94
10.99
9.31
7.29
5.06
2.58
-0.14
-2.98
-5.62
-7.72
-9.11
-9.82
-10.09
-10.18
-10.24
-10.33
-10.44
-10.50
-10.50
-10.37
-10.14
-9.85
-9.64
-9.70
-10.15
-11.02
-12.18
-13.45
-14.69
-15.89
-17.11
-18.37
-19.58
-20.58
-21.15
-21.22
-20.89
-20.46
-20.32
-20.76
-21.77
-22.96
-23.58
-22.80
-20.04
-15.26
-9.03
-2.39
3.60
8.25
11.40
13.38
14.68
15.66
16.36
16.61
16.22
15.16
13.67
12.17
11.03
10.40
10.19
10.11
9.85
9.23
8.23
6.97
5.64
4.44
3.52
2.91
2.57
2.39
2.16
1.76
1.06
0.08
-1.11
-2.40
-3.75
-5.20
-6.83
-8.67
-10.63
-12.50
-13.99
-14.86
-14.95
-14.31
-13.14
-11.74
-10.40
-9.27
-8.34
-7.29
-5.66
-2.96
1.03
6.13
11.76
17.08
21.33
24.09
25.37
25.53
25.04
24.28
23.38
22.28
20.82
18.94
16.70
14.40
12.44
11.23
10.94
11.42
12.22
12.77
12.69
11.90
10.65
9.27
8.03
6.94
5.82
4.49
2.88
1.08
-0.80
-2.65
-4.53
-6.55
-8.82
-11.35
-14.00
-16.52
-18.52
-19.69
-19.92
-19.38
-18.51
-17.88
-18.02
-19.11
-20.98
-23.11
-24.83
-25.47
-24.63
-22.14
-18.18
-13.20
-7.86
-2.91
1.02
3.56
4.71
4.77
4.18
3.38
2.66
2.14
1.78
1.54
1.37
1.32
1.42
1.69
2.04
2.39
2.63
2.71
2.67
2.56
2.42
2.20
1.80
1.18
0.30
-0.78
-1.97
-3.22
-4.54
-5.96
-7.48
-9.02
-10.43
-11.58
-12.42
-13.02
-13.54
-14.12
-14.83
-15.64
-16.49
-17.28
-18.00
-18.58
-18.90
-18.70
-17.61
-15.29
-11.64
-6.91
-1.67
3.36
7.69
11.19
14.13
16.89
19.71
22.36
24.24
24.72
23.44
20.58
16.77
12.75
9.08
6.00
3.46
1.35
-0.37
-1.69
-2.64
-3.40
-4.33
-5.76
-7.77
-10.18
-12.50
-14.19
-14.90
-14.58
-13.57
-12.46
-11.85
-12.09
-13.18
-14.75
-16.27
-17.32
-17.80
-17.91
-18.06
-18.56
-19.51
-20.77
-22.06
-23.10
-23.63
-23.37
-22.07
-19.54
-15.77
-10.95
-5.47
0.26
5.94
11.33
16.25
20.44
23.61
25.58
26.37
26.28
25.72
25.10
24.68
24.48
24.49
24.67
25.00
25.49
26.12
26.74
27.15
27.14
26.56
25.36
23.68
21.72
19.66
17.58
15.35
12.72
9.46
5.55
1.21
-3.12
-7.08
-10.48
-13.46
-16.35
-19.54
-23.25
-27.42
-31.76
-35.81
-39.11
-41.24
-41.99
-41.35
-39.50
-36.76
-33.42
-29.71
-25.84
-22.08
-18.73
-16.18
-14.81
-14.89
-16.44
-19.03
-22.05
-24.90
-27.31
-29.31
-31.10
-32.87
-34.70
-36.65
-38.24
-39.02
-38.72
-37.50
-35.80
-33.95
-32.17
-30.56
-29.29
-28.02
-26.31
-23.87
-20.79
-17.38
-13.87
-10.32
-6.52
-1.93
5.26
17.24
35.55
60.15
89.18
119.70
148.63
173.71
188.79
189.39
174.90
149.72
120.89
94.20
72.34
55.20
41.45
29.74
20.21
13.78
11.36
12.93
17.25
22.55
26.72
28.00
25.35
18.98
9.89
-0.27
-9.24
-14.33
-12.71
-2.98
13.57
33.40
51.78
64.28
68.34
64.08
52.66
38.49
24.78
12.12
-1.02
-16.64
-35.51
-56.34
-76.29
-92.51
-103.11
-108.34
-110.00
-110.22
-110.32
-110.44
-109.81
-107.62
-103.74
-98.59
-92.98
-87.37
-81.41
-74.33
-65.43
-55.05
-42.93
-29.61
-15.93
-2.86
8.69
18.03
24.76
28.87
30.77
31.34
31.38
31.50
31.85
32.23
32.32
31.88
30.93
29.66
28.31
26.86
25.08
22.61
19.17
14.65
9.33
3.72
-1.57
-6.08
-9.77
-12.88
-15.82
-18.95
-22.48
-26.36
-30.47
-34.63
-38.70
-42.62
-46.38
-49.96
-53.45
-56.98
-60.85
-65.18
-69.76
-73.89
-76.46
-76.14
-71.85
-63.22
-50.81
-35.92
-20.23
-5.16
8.43
20.31
30.55
39.15
45.87
50.31
52.26
52.01
50.40
48.46
47.06
46.59
46.89
47.51
48.04
48.28
48.28
48.19
48.02
47.60
46.59
44.58
41.28
36.67
31.09
25.09
19.28
14.02
9.30
4.71
-0.29
-6.10
-12.73
-19.73
-26.43
-32.13
-36.48
-39.54
-41.80
-44.01
-46.94
-51.20
-57.05
-64.28
-72.10
-79.24
-84.10
-85.12
-81.18
-72.00
-58.28
-41.57
-23.79
-6.71
8.45
21.16
31.39
39.31
45.03
48.63
50.29
50.43
49.74
48.99
48.82
49.45
50.71
52.17
53.37
54.02
54.06
53.65
53.05
52.38
51.60
50.47
48.67
45.93
42.24
37.76
32.84
27.78
22.76
17.79
12.84
7.91
3.08
-1.55
-5.98
-10.28
-14.64
-19.11
-23.62
-27.99
-32.08
-35.97
-40.04
-44.81
-50.73
-57.81
-65.41
-72.28
-76.76
-77.32
-73.00
-63.79
-50.57
-34.89
-18.46
-2.74
11.25
22.98
32.16
38.69
42.58
44.01
43.45
41.79
40.05
39.04
39.17
40.32
42.08
43.88
45.30
46.16
46.65
47.05
47.46
47.69
47.26
45.67
42.63
38.15
32.57
26.67
21.13
16.22
11.74
7.22
2.23
-3.45
-9.84
-16.96
-23.86
-29.74
-34.26
-37.74
-40.86
-44.31
-48.67
-54.38
-61.78
-68.86
-73.28
-73.09
-67.51
-56.86
-42.05
-24.30
-5.08
14.11
35.17
60.19
90.06
123.45
157.32
188.58
215.25
236.69
253.47
271.03
294.52
326.61
366.06
409.02
451.49
490.94
526.47
532.48
491.81
401.37
276.40
141.50
17.45
-84.98
-163.52
-220.76
-261.25
-285.68
-294.58
-289.54
-274.63
-255.25
-236.34
-221.21
-211.44
-207.19
-204.50
-199.29
-189.22
-175.11
-159.46
-144.38
-130.50
-117.33
-104.42
-90.04
-73.42
-54.12
-33.67
-13.86
3.75
17.72
26.43
28.37
23.88
13.76
1.86
-8.42
-14.80
-16.60
-14.83
-11.83
-10.51
-13.23
-21.16
-33.69
-48.89
-63.79
-75.47
-82.28
-84.32
-83.11
-80.74
-78.57
-76.82
-75.22
-73.46
-71.73
-70.58
-70.53
-71.41
-72.54
-72.87
-71.43
-67.98
-62.89
-56.91
-50.77
-45.41
-40.29
-34.89
-28.64
-21.15
-12.59
-3.61
4.82
11.81
16.93
20.54
23.36
26.33
30.07
34.62
39.35
43.36
45.89
46.53
45.44
42.89
39.31
35.05
30.48
25.88
21.57
17.89
15.03
13.11
11.94
11.24
10.70
10.11
9.37
8.53
7.72
6.99
6.32
5.50
4.28
2.46
0.07
-2.63
-5.26
-7.48
-9.16
-10.46
-11.79
-13.55
-15.88
-18.62
-21.40
-23.87
-25.94
-27.82
-29.80
-32.32
-35.71
-40.02
-44.91
-49.66
-53.19
-54.35
-52.23
-46.48
-37.54
-26.47
-14.64
-3.30
6.73
15.14
21.89
27.09
30.82
33.11
34.11
34.05
33.28
32.16
31.04
30.18
29.74
29.74
30.05
30.45
30.69
30.68
30.40
29.95
29.32
28.36
26.85
24.61
21.72
18.45
15.11
11.86
8.57
4.99
0.94
-3.48
-7.93
-11.97
-15.37
-18.20
-20.79
-23.53
-26.71
-30.43
-34.67
-39.28
-44.00
-48.28
-51.27
-51.93
-49.37
-43.20
-33.83
-22.34
-10.24
1.09
10.64
18.02
23.26
26.66
28.57
29.29
29.12
28.37
27.39
26.46
25.80
25.47
25.39
25.39
25.31
25.07
24.67
24.15
23.50
22.62
21.42
19.80
17.76
15.37
12.79
10.11
7.34
4.39
1.15
-2.45
-6.38
-10.49
-14.65
-18.66
-22.39
-25.74
-28.73
-31.54
-34.50
-37.97
-42.20
-47.10
-52.08
-56.18
-58.26
-57.40
-53.16
-45.85
-36.36
-25.80
-15.19
-5.20
3.84
11.79
18.44
23.47
26.62
27.87
27.58
26.45
25.30
24.73
24.98
25.81
26.80
27.57
27.98
28.09
28.01
27.81
27.41
26.62
25.20
23.05
20.40
17.64
15.12
12.98
11.07
9.03
6.46
2.96
-1.66
-6.97
-12.35
-17.24
-21.49
-25.22
-28.72
-32.22
-35.92
-39.98
-43.62
-46.07
-46.95
-46.59
-45.70
-44.70
-43.36
-40.94
-36.54
-28.08
-14.12
5.38
28.61
52.58
74.36
92.01
104.77
112.95
119.74
128.97
143.97
166.21
195.24
229.29
265.93
302.44
323.64
317.67
280.20
218.25
146.05
77.24
19.66
-24.82
-58.05
-83.10
-100.67
-110.44
-112.12
-107.06
-97.99
-87.77
-78.34
-70.57
-64.85
-60.05
-55.10
-48.30
-39.36
-28.09
-14.20
2.11
18.78
31.54
35.90
26.83
4.24
-28.07
-63.77
-96.16
-120.39
-134.89
-141.04
-141.28
-137.91
-132.16
-124.74
-116.45
-108.13
-100.64
-94.71
-90.53
-87.39
-84.04
-79.83
-72.95
-62.91
-50.32
-36.50
-23.09
-11.45
-2.30
4.45
9.68
14.44
19.18
23.78
27.61
29.85
29.98
28.04
24.72
21.09
18.10
16.07
14.71
13.44
11.67
9.12
5.81
2.06
-1.68
-5.03
-7.92
-10.47
-12.98
-15.57
-18.57
-22.33
-26.94
-32.05
-36.74
-39.80
-40.08
-36.91
-30.38
-21.32
-10.96
-0.42
9.43
18.15
25.47
31.14
34.91
36.60
36.28
34.34
31.51
28.54
26.03
24.23
23.02
22.17
21.40
20.57
19.69
18.78
17.86
16.76
15.31
13.35
10.86
7.95
4.77
1.43
-2.12
-5.95
-10.17
-14.73
-19.46
-24.09
-28.39
-32.25
-35.75
-39.06
-42.42
-45.99
-49.85
-53.90
-57.83
-61.09
-62.95
-62.72
-59.91
-54.42
-46.58
-37.05
-26.54
-15.74
-5.17
4.68
13.37
20.40
25.41
28.28
29.26
28.91
27.94
26.96
26.34
26.13
26.24
26.49
26.75
26.92
26.97
26.82
26.37
25.50
24.12
22.28
20.04
17.56
14.99
12.36
9.61
6.54
2.98
-1.16
-5.72
-10.43
-15.00
-19.30
-23.47
-27.82
-32.65
-38.13
-44.15
-50.25
-55.71
-59.57
-60.82
-58.67
-52.85
-43.78
-32.52
-20.46
-8.87
1.44
10.20
17.51
23.53
28.34
31.86
34.09
35.18
35.42
35.22
34.92
34.76
34.90
35.40
36.22
37.19
38.01
38.36
37.96
36.81
35.07
32.99
30.76
28.36
25.58
22.11
17.76
12.59
6.94
1.30
-3.87
-8.32
-12.11
-15.51
-18.83
-22.33
-26.12
-30.23
-34.65
-39.30
-43.90
-47.83
-50.16
-49.85
-46.21
-39.13
-29.26
-17.77
-5.96
5.13
14.86
23.01
29.54
34.42
37.55
38.89
38.67
37.40
35.86
34.76
34.54
35.20
36.33
37.41
38.08
38.24
38.07
37.81
37.55
37.14
36.25
34.61
32.16
29.01
25.43
21.65
17.87
14.18
10.64
7.26
4.01
0.79
-2.52
-5.98
-9.47
-12.75
-15.59
-17.93
-20.02
-22.36
-25.50
-29.70
-34.72
-39.82
-44.02
-46.37
-46.30
-43.65
-38.68
-31.84
-23.59
-14.43
-4.83
4.63
13.35
20.78
26.56
30.60
33.13
34.53
35.24
35.67
36.12
36.81
37.87
39.26
40.83
42.30
43.44
44.08
44.18
43.73
42.73
41.15
38.96
36.29
33.37
30.51
27.95
25.72
23.62
21.30
18.43
14.82
10.41
5.34
-0.23
-6.17
-12.37
-18.63
-24.64
-30.08
-34.81
-38.94
-42.70
-46.26
-49.50
-51.87
-52.46
-50.27
-44.65
-35.62
-23.85
-10.25
4.01
17.54
28.77
36.07
37.94
33.46
22.81
7.51
-9.02
-23.22
-32.68
-37.17
-38.28
-38.56
-40.26
-44.59
-51.36
-57.93
-61.76
-61.54
-57.54
-50.63
-41.28
-29.27
-14.28
3.58
25.87
53.21
84.76
118.51
152.23
184.35
213.78
239.44
260.27
278.63
296.81
315.64
333.82
348.84
358.67
362.53
361.15
337.03
282.02
200.44
108.24
23.05
-45.31
-95.69
-131.80
-157.97
-177.02
-187.04
-185.81
-173.28
-152.15
-127.56
-104.23
-85.58
-73.34
-67.63
-65.14
-62.31
-57.19
-49.95
-41.82
-32.93
-23.31
-13.11
-2.63
8.38
20.57
33.25
44.37
51.50
53.12
48.71
38.42
24.60
9.53
-5.32
-19.92
-35.34
-53.11
-74.37
-99.49
-127.62
-156.56
-183.15
-203.87
-216.10
-218.92
-213.27
-201.44
-186.27
-170.03
-153.90
-138.41
-123.64
-109.87
-97.69
-87.72
-80.19
-74.75
-70.61
-66.81
-62.87
-58.65
-54.38
-50.31
-46.42
-42.30
-37.31
-30.69
-21.83
-10.50
3.13
18.44
34.56
50.55
65.67
79.46
91.73
102.43
111.34
117.96
121.42
120.69
114.89
103.61
87.19
66.72
43.94
20.72
-1.30
-21.13
-38.49
-53.51
-66.46
-77.29
-85.54
-90.56
-91.84
-89.29
-83.32
-74.67
-64.07
-52.12
-39.14
-25.40
-11.27
2.65
15.56
26.64
35.18
40.83
43.60
43.90
42.36
39.72
36.72
33.98
31.98
31.01
31.20
32.49
34.71
37.57
40.80
44.22
47.74
51.38
55.20
59.25
63.43
67.55
71.24
74.03
75.37
74.70
71.45
65.16
55.69
43.31
28.92
14.03
0.54
-9.67
-15.31
-15.99
-12.42
-6.11
1.02
7.36
11.93
14.52
15.50
15.40
14.60
13.24
11.45
9.44
7.65
6.48
6.03
5.86
5.09
2.90
-1.13
-6.80
-13.54
-20.86
-28.66
-37.34
-47.34
-58.75
-71.05
-83.18
-94.00
-102.77
-109.49
-114.86
-120.13
-126.50
-134.84
-145.30
-157.30
-169.65
-180.81
-189.21
-193.62
-193.52
-189.25
-181.87
-172.88
-163.72
-155.29
-147.74
-140.53
-132.81
-123.86
-113.40
-101.69
-89.22
-76.42
-63.27
-49.27
-33.66
-15.78
4.55
26.93
50.45
74.03
96.67
117.47
135.62
150.20
160.28
165.23
165.11
160.87
154.18
146.93
140.54
135.53
131.47
127.34
122.01
114.80
105.67
95.32
84.95
75.88
69.17
65.15
63.37
62.65
61.57
58.85
53.75
46.20
36.76
26.46
16.53
8.17
2.31
-0.53
-0.50
1.72
5.01
8.11
9.96
9.97
8.21
5.32
2.38
0.61
0.89
3.53
8.14
13.80
19.43
24.12
27.37
28.97
28.79
26.70
22.45
16.05
7.85
-1.23
-9.79
-16.26
-19.35
-18.42
-13.68
-6.18
2.60
11.13
18.28
23.41
26.32
27.07
25.76
22.56
17.79
12.08
6.28
1.28
-2.27
-4.23
-4.97
-5.16
-5.44
-6.18
-7.24
-8.17
-8.41
-7.56
-5.67
-3.26
-1.24
-0.64
-2.28
-6.40
-12.54
-19.59
-26.12
-30.83
-33.08
-33.14
-32.15
-31.80
-33.59
-38.13
-44.71
-51.40
-55.69
-55.50
-49.94
-39.62
-26.26
-11.88
2.04
14.90
26.73
37.64
47.30
54.93
59.76
61.54
60.84
58.76
56.45
54.45
52.50
49.84
45.70
39.87
32.89
25.81
19.74
15.40
12.81
11.47
10.52
9.19
7.00
3.74
-0.44
-5.31
-10.56
-15.98
-21.44
-27.00
-32.92
-39.54
-47.17
-55.68
-64.33
-71.91
-76.92
-78.17
-75.24
-68.67
-59.74
-50.01
-40.77
-32.71
-26.02
-20.67
-16.78
-14.80
-15.30
-18.55
-24.27
-31.50
-38.91
-45.27
-49.96
-53.06
-55.28
-57.58
-60.73
-64.96
-69.76
-73.98
-76.07
-74.47
-68.10
-56.76
-41.27
-23.28
-5.03
11.29
24.03
32.56
37.52
40.68
44.50
51.41
63.03
79.69
100.43
123.36
146.28
167.12
184.14
195.90
201.30
199.73
191.43
177.77
161.16
144.39
129.72
118.01
108.39
98.72
86.62
70.62
50.96
29.58
9.31
-7.20
-18.62
-25.08
-28.00
-29.17
-29.99
-31.04
-32.19
-33.01
-33.36
-33.59
-34.43
-36.69
-40.76
-46.44
-53.03
-59.64
-65.62
-70.63
-74.83
-78.46
-81.82
-84.94
-87.83
-90.55
-93.34
-96.51
-100.09
-103.68
-106.30
-106.68
-103.71
-96.92
-86.67
-74.11
-60.79
-48.17
-37.33
-28.70
-22.30
-17.81
-14.89
-13.19
-12.38
-12.12
-12.03
-11.80
-11.23
-10.28
-9.03
-7.63
-6.24
-4.90
-3.58
-2.14
-0.42
1.65
3.94
6.01
7.17
6.72
4.15
-0.62
-7.14
-14.62
-22.19
-29.10
-35.01
-39.91
-44.18
-48.39
-53.20
-59.11
-66.27
-74.25
-82.07
-88.37
-91.79
-91.32
-86.64
-78.19
-67.02
-54.48
-41.93
-30.39
-20.58
-12.95
-7.79
-5.47
-6.29
-10.34
-17.25
-26.07
-35.29
-43.24
-48.60
-50.80
-50.32
-48.48
-46.99
-47.41
-50.69
-57.09
-66.25
-77.41
-89.59
-101.62
-112.20
-120.04
-124.22
-124.49
-121.55
-116.75
-111.69
-107.56
-104.67
-102.42
-99.59
-94.81
-86.93
-75.08
-58.58
-37.06
-10.63
19.75
52.27
84.72
115.39
143.64
169.88
194.82
218.21
238.15
251.27
253.85
243.53
220.47
187.64
149.92
112.63
80.07
54.61
36.53
24.40
15.89
8.52
0.35
-9.67
-21.46
-33.81
-44.35
-49.93
-47.46
-35.04
-13.25
14.51
42.64
65.23
78.16
80.55
74.71
64.68
54.22
45.19
37.35
29.22
19.48
8.08
-3.72
-13.95
-20.92
-23.95
-23.40
-20.34
-15.89
-10.94
-6.05
-1.64
1.81
3.80
4.00
2.44
-0.37
-3.49
-5.90
-6.81
-5.95
-3.52
-0.06
3.89
7.93
11.89
15.83
19.88
24.08
28.31
32.17
35.13
36.71
36.65
35.21
32.98
30.77
29.23
28.57
28.43
27.97
26.29
22.79
17.58
11.49
5.83
1.93
0.66
2.20
6.01
11.21
16.88
22.43
27.55
32.14
36.05
38.98
40.47
40.16
37.98
34.26
29.76
25.36
21.82
19.62
18.85
19.29
20.56
22.21
23.72
24.56
24.15
22.08
18.20
12.79
6.59
0.61
-4.12
-6.88
-7.45
-6.18
-3.76
-0.98
1.53
3.62
5.51
7.79
11.06
15.82
22.22
30.22
39.59
50.09
61.49
73.41
85.34
96.48
105.91
112.78
116.51
116.93
114.22
108.84
101.38
92.57
83.23
74.22
66.35
60.21
56.15
54.21
54.27
55.99
58.97
62.55
65.99
68.56
69.81
69.77
68.94
67.98
67.21
66.33
64.23
59.42
50.67
37.57
21.00
2.90
-14.08
-27.44
-35.38
-37.33
-34.02
-27.14
-18.88
-11.48
-6.84
-6.23
-10.33
-19.07
-31.78
-47.23
-63.81
-79.75
-93.35
-103.28
-108.83
-110.11
-108.03
-104.31
-101.02
-100.08
-102.74
-109.27
-118.85
-129.98
-140.90
-150.11
-156.54
-159.75
-159.84
-157.29
-152.93
-147.59
-141.91
-136.07
-129.72
-122.14
-112.55
-100.46
-85.99
-69.76
-52.64
-35.48
-18.80
-2.83
12.29
26.29
38.69
48.88
56.56
61.89
65.45
67.99
69.90
71.01
70.64
68.01
62.76
55.19
46.17
36.67
27.31
18.22
9.15
-0.20
-9.79
-19.13
-27.37
-33.66
-37.53
-39.17
-39.44
-39.64
-40.96
-44.02
-48.55
-53.47
-57.27
-58.53
-56.27
-50.26
-40.87
-29.07
-16.09
-3.44
7.43
15.26
19.38
19.84
17.49
13.73
10.18
8.20
8.66
11.75
17.03
23.63
30.49
36.60
41.25
44.03
44.82
43.72
41.01
37.06
32.32
27.21
21.97
16.59
10.83
4.28
-3.45
-12.54
-22.85
-33.86
-44.65
-53.91
-60.06
-61.51
-57.01
-46.09
-29.30
-8.12
15.43
39.26
61.76
81.88
99.02
112.73
122.45
127.60
127.87
123.62
116.07
107.27
99.57
95.04
94.91
99.18
106.72
115.69
124.13
130.57
134.30
135.34
134.24
131.93
129.51
128.18
128.70
130.84
132.97
132.16
124.99
108.85
82.91
48.58
9.03
-31.86
-70.54
-104.37
-131.60
-151.14
-162.11
-163.84
-156.17
-139.83
-116.73
-89.89
-62.91
-39.16
-20.88
-8.52
-0.81
4.64
10.36
18.00
27.90
39.19
50.48
60.57
69.03
76.10
82.39
88.31
93.57
97.36
98.64
96.87
92.06
84.50
74.17
60.46
42.62
20.58
-4.28
-29.26
-51.31
-68.42
-80.37
-88.58
-94.95
-100.57
-105.34
-108.28
-108.57
-106.48
-103.39
-101.24
-101.33
-103.67
-106.99
-109.70
-110.58
-109.37
-106.71
-103.61
-100.67
-97.54
-92.87
-84.95
-72.95
-57.15
-39.25
-21.49
-5.84
6.65
16.38
24.71
32.97
40.97
47.56
51.20
50.83
46.69
39.69
31.56
24.16
18.52
13.02
5.72
-4.69
-17.93
-31.86
-44.57
-54.02
-58.67
-58.13
-55.24
-52.82
-52.75
-55.86
-62.20
-73.74
-91.96
-116.19
-143.13
-169.69
-190.96
-201.95
-199.72
-184.11
-160.46
-134.88
-111.31
-74.84
-19.48
49.65
118.81
167.89
196.77
207.82
203.54
188.01
164.45
134.09
99.94
67.13
41.88
30.35
33.95
51.34
79.52
114.02
147.91
175.11
191.60
196.01
190.09
176.19
158.50
142.02
130.11
122.15
115.11
105.20
89.44
67.04
37.91
3.14
-35.23
-75.48
-116.25
-155.73
-191.79
-222.74
-247.46
-265.50
-276.43
-279.47
-275.81
-268.78
-263.56
-265.07
-275.80
-293.81
-312.54
-323.32
-318.18
-294.59
-254.97
-205.67
-154.01
-106.73
-68.74
-42.33
-28.15
-15.46
3.23
31.56
68.21
110.11
154.06
195.98
235.83
269.99
292.42
295.96
277.21
234.82
176.70
115.89
65.90
36.64
31.21
46.78
75.10
106.26
131.06
143.53
140.69
122.62
92.66
56.59
22.50
-1.41
-8.31
4.82
36.18
78.33
120.32
151.44
164.55
158.24
135.60
101.81
61.44
17.96
-25.53
-64.42
-91.89
-101.17
-89.02
-58.87
-20.79
12.08
28.71
24.27
1.29
-32.35
-67.61
-97.67
-119.31
-132.01
-135.91
-130.34
-113.92
-85.93
-47.76
-3.56
40.48
77.93
103.97
116.49
116.30
106.43
91.03
74.45
60.58
52.62
52.69
61.21
76.27
93.43
106.53
109.51
98.74
74.83
42.86
10.66
-13.81
-25.17
-21.95
-6.33
17.17
43.34
67.41
85.65
95.59
96.28
88.58
75.10
59.72
46.45
38.20
35.87
38.26
42.70
46.08
45.96
41.23
32.29
20.55
7.78
-4.79
-16.77
-28.55
-40.75
-53.69
-66.97
-79.48
-89.85
-96.81
-99.56
-97.94
-92.24
-83.23
-72.06
-60.26
-49.80
-42.80
-41.11
-45.79
-56.55
-71.57
-87.93
-102.46
-112.85
-118.45
-120.40
-120.95
-122.30
-125.65
-130.72
-136.23
-140.69
-143.23
-143.68
-142.36
-139.37
-134.37
-126.68
-115.91
-102.54
-87.89
-73.57
-60.72
-49.38
-38.64
-27.31
-14.65
-0.69
13.79
27.88
40.92
52.67
63.07
72.11
79.92
86.85
93.69
101.30
110.26
120.36
130.66
139.89
147.05
151.65
153.67
153.23
150.32
145.04
137.81
129.56
121.47
114.17
107.20
99.01
87.84
72.79
54.69
35.78
18.75
5.41
-3.90
-10.12
-14.68
-18.60
-22.41
-26.37
-31.08
-37.57
-46.70
-58.55
-71.85
-84.28
-93.31
-97.27
-95.87
-90.26
-82.35
-74.09
-66.77
-60.89
-56.26
-52.39
-48.91
-45.76
-43.22
-41.60
-41.03
-41.25
-41.73
-42.00
-41.86
-41.54
-41.49
-42.07
-43.24
-44.55
-45.46
-45.59
-45.01
-44.19
-43.76
-44.27
-45.98
-48.84
-52.64
-56.96
-61.28
-64.99
-67.41
-68.00
-66.43
-62.67
-56.91
-49.57
-41.17
-32.29
-23.57
-15.66
-9.10
-4.26
-1.29
-0.06
-0.27
-1.56
-3.58
-5.94
-8.24
-10.01
-10.83
-10.44
-8.89
-6.53
-3.97
-1.79
-0.41
0.08
-0.22
-1.10
-2.45
-4.41
-7.24
-11.18
-16.28
-22.18
-28.15
-33.14
-36.03
-35.96
-32.59
-26.22
-17.64
-7.94
1.81
10.79
18.36
24.11
27.65
28.68
27.05
22.98
17.10
10.37
3.89
-1.45
-5.22
-7.55
-8.97
-10.18
-11.73
-13.80
-16.31
-19.11
-22.27
-26.10
-31.10
-37.64
-45.81
-55.43
-66.27
-78.07
-90.55
-103.19
-114.95
-124.40
-130.03
-130.94
-127.05
-119.11
-108.15
-94.79
-79.03
-60.44
-38.84
-14.85
9.89
33.25
53.42
69.66
82.61
93.92
105.41
118.36
133.07
148.86
164.72
179.70
193.29
205.23
215.17
222.39
225.78
224.23
217.05
204.40
187.09
166.41
143.56
119.50
94.94
70.61
47.48
26.81
9.85
-2.57
-10.33
-14.10
-15.12
-14.78
-14.30
-14.42
-15.39
-16.99
-18.84
-20.49
-21.68
-22.34
-22.58
-22.59
-22.55
-22.59
-22.81
-23.34
-24.36
-26.10
-28.68
-31.94
-35.54
-38.91
-41.57
-43.25
-44.06
-44.43
-45.02
-46.47
-49.16
-52.98
-57.20
-60.60
-61.71
-59.29
-52.71
-42.23
-28.93
-14.42
-0.29
12.26
22.63
30.71
36.56
40.23
41.69
40.94
38.36
34.71
31.16
28.88
28.72
30.92
35.21
41.08
48.01
55.51
62.97
69.47
73.77
74.65
71.43
64.33
54.41
43.03
31.20
19.13
6.37
-7.48
-22.13
-36.18
-47.51
-54.02
-54.49
-48.92
-38.45
-24.70
-9.26
6.63
22.04
36.14
48.08
57.08
62.63
64.66
63.58
60.08
54.94
48.91
42.54
36.28
30.37
24.94
19.94
15.26
10.79
6.49
2.41
-1.39
-4.91
-8.31
-11.84
-15.82
-20.38
-25.55
-31.27
-37.52
-44.45
-52.15
-60.51
-68.87
-75.98
-80.23
-80.13
-74.83
-64.44
-50.08
-33.49
-16.59
-0.93
12.42
22.97
30.57
35.24
37.08
36.32
33.45
29.24
24.68
20.63
17.60
15.52
13.84
11.86
9.09
5.46
1.30
-2.90
-6.90
-10.87
-15.33
-20.92
-27.98
-36.46
-45.82
-55.41
-64.68
-73.49
-82.08
-90.91
-100.48
-111.07
-122.63
-134.69
-146.32
-156.15
-162.54
-163.84
-158.84
-147.23
-129.79
-108.26
-84.88
-61.72
-40.23
-20.99
-3.91
11.45
25.44
38.27
50.01
60.80
71.01
81.23
92.02
103.74
116.43
129.92
144.09
159.02
175.09
192.52
210.91
228.72
243.38
251.75
251.38
241.47
223.46
200.65
177.17
156.55
140.78
130.08
123.35
119.05
115.80
112.66
108.99
104.30
98.29
91.03
83.20
75.93
70.47
67.69
67.65
69.60
72.15
73.75
73.08
69.35
62.36
52.47
40.47
27.27
13.85
0.92
-10.96
-21.44
-30.21
-37.00
-41.54
-43.76
-43.82
-42.16
-39.43
-36.23
-33.15
-30.57
-28.75
-27.82
-27.80
-28.64
-30.14
-32.17
-34.58
-37.40
-40.78
-44.96
-50.15
-56.46
-63.71
-71.30
-78.21
-83.10
-84.56
-81.57
-73.76
-61.71
-46.75
-30.69
-15.27
-1.82
8.87
16.53
21.26
23.36
23.20
21.27
18.05
14.03
9.64
5.27
1.18
-2.40
-5.28
-7.34
-8.56
-9.10
-9.24
-9.42
-10.01
-11.29
-13.32
-15.97
-19.01
-22.21
-25.45
-28.78
-32.37
-36.45
-41.20
-46.71
-52.88
-59.35
-65.37
-69.87
-71.63
-69.57
-63.18
-52.72
-39.23
-24.26
-9.40
4.04
15.24
23.81
29.61
32.68
33.16
31.44
28.15
24.13
20.17
16.86
14.39
12.59
11.14
9.79
8.60
7.82
7.72
8.36
9.38
10.12
9.87
8.16
4.99
0.76
-3.93
-8.56
-12.92
-17.14
-21.62
-26.82
-33.02
-40.07
-47.23
-53.26
-56.73
-56.40
-51.74
-43.02
-31.29
-18.02
-4.72
7.39
17.43
24.91
29.59
31.47
30.87
28.36
24.72
20.74
17.03
13.91
11.47
9.63
8.26
7.26
6.56
6.05
5.59
5.01
4.16
2.93
1.29
-0.74
-3.11
-5.78
-8.78
-12.14
-15.95
-20.29
-25.24
-30.83
-37.09
-43.89
-50.84
-57.17
-61.80
-63.50
-61.27
-54.75
-44.41
-31.55
-17.89
-5.15
5.44
13.27
18.28
20.78
21.16
19.79
17.02
13.21
8.81
4.31
0.24
-3.02
-5.31
-6.67
-7.31
-7.51
-7.51
-7.50
-7.65
-8.12
-9.08
-10.63
-12.80
-15.46
-18.41
-21.46
-24.58
-27.91
-31.80
-36.57
-42.33
-48.73
-54.89
-59.54
-61.39
-59.50
-53.58
-44.14
-32.22
-19.12
-6.08
5.97
16.34
24.57
30.31
33.37
33.76
31.76
27.90
22.89
17.55
12.60
8.62
5.90
4.48
4.09
4.32
4.75
5.04
5.04
4.62
3.74
2.26
0.09
-2.86
-6.53
-10.75
-15.35
-20.31
-25.82
-32.15
-39.45
-47.28
-54.55
-59.57
-60.65
-56.63
-47.52
-34.52
-19.58
-4.82
8.20
18.66
26.48
31.87
35.02
36.02
34.93
32.00
27.71
22.86
18.30
14.80
12.77
12.23
12.82
13.92
14.84
15.06
14.34
12.77
10.65
8.35
6.05
3.69
0.92
-2.76
-7.89
-14.78
-23.43
-33.28
-43.26
-51.86
-57.41
-58.53
-54.49
-45.46
-32.51
-17.22
-1.37
13.62
26.83
37.96
47.04
54.24
59.56
62.91
64.17
63.44
61.06
57.65
53.91
50.33
47.11
44.09
40.94
37.29
32.95
27.91
22.27
16.17
9.66
2.77
-4.52
-12.21
-20.28
-28.72
-37.59
-47.00
-57.02
-67.46
-77.68
-86.44
-92.14
-93.18
-88.54
-78.08
-62.65
-43.88
-23.67
-3.87
14.00
28.87
40.03
47.15
50.32
49.98
46.91
42.12
36.69
31.71
28.18
26.89
28.30
32.27
38.10
44.67
50.75
55.41
58.18
59.07
58.39
56.53
53.77
50.27
46.09
41.24
35.73
29.61
22.93
15.79
8.33
0.75
-6.77
-13.98
-20.76
-27.12
-33.31
-39.76
-46.89
-54.79
-62.83
-69.60
-73.14
-71.59
-63.82
-50.00
-31.50
-10.51
10.67
30.20
46.99
60.58
70.87
77.84
81.47
81.82
79.30
74.74
69.37
64.50
61.08
59.48
59.42
60.18
61.05
61.60
61.83
62.01
62.38
62.91
63.24
62.77
60.97
57.61
52.84
47.15
41.15
35.33
29.97
25.04
20.35
15.63
10.77
5.80
0.94
-3.50
-7.29
-10.35
-12.82
-14.94
-16.97
-19.01
-21.07
-23.01
-24.78
-26.49
-28.39
-30.76
-33.77
-37.33
-41.14
-44.86
-48.32
-51.57
-54.95
-58.84
-63.59
-69.28
-75.71
-82.25
-87.86
-91.10
-90.45
-84.72
-73.42
-57.11
-37.27
-15.98
4.68
22.93
37.61
48.20
54.60
57.13
56.33
52.95
47.82
41.72
35.29
29.03
23.28
18.38
14.58
12.04
10.77
10.56
11.07
11.88
12.62
13.04
13.00
12.55
11.77
10.81
9.75
8.58
7.19
5.44
3.26
0.68
-2.14
-4.97
-7.66
-10.07
-12.15
-13.90
-15.37
-16.71
-18.15
-19.97
-22.35
-25.25
-28.49
-31.73
-34.79
-37.70
-40.81
-44.65
-49.59
-55.60
-61.96
-67.35
-70.09
-68.66
-62.18
-50.92
-36.15
-19.82
-3.94
10.01
21.33
29.94
36.04
39.78
41.14
40.16
37.12
32.68
27.77
23.28
19.81
17.48
16.14
15.54
15.54
16.11
17.29
18.97
20.79
22.27
22.88
22.27
20.43
17.62
14.35
11.10
8.19
5.69
3.46
1.17
-1.52
-4.87
-8.92
-13.48
-18.19
-22.65
-26.64
-30.09
-33.18
-36.10
-39.08
-42.29
-45.92
-50.21
-55.26
-60.88
-66.30
-70.23
-71.08
-67.60
-59.31
-46.82
-31.62
-15.58
-0.37
12.85
23.53
31.51
36.83
39.55
39.86
38.10
34.88
30.88
26.84
23.27
20.43
18.36
17.00
16.31
16.25
16.82
17.87
19.13
20.21
20.69
20.23
18.71
16.21
12.97
9.30
5.46
1.59
-2.27
-6.18
-10.22
-14.41
-18.70
-22.95
-26.97
-30.63
-33.98
-37.30
-41.05
-45.68
-51.38
-57.82
-64.03
-68.68
-70.29
-67.81
-60.84
-49.76
-35.64
-19.98
-4.35
9.88
21.66
30.35
35.75
38.01
37.56
34.97
30.93
26.11
21.15
16.55
12.74
9.97
8.42
8.08
8.82
10.35
12.24
14.06
15.43
16.18
16.24
15.64
14.37
12.30
9.35
5.47
0.80
-4.36
-9.65
-14.77
-19.63
-24.34
-29.17
-34.47
-40.55
-47.54
-55.27
-63.10
-69.94
-74.38
-75.04
-71.02
-62.19
-49.26
-33.60
-16.85
-0.58
13.94
25.87
34.72
40.25
42.54
41.90
38.91
34.28
28.85
23.41
18.58
14.82
12.32
11.10
10.99
11.77
13.17
14.89
16.60
17.92
18.44
17.79
15.75
12.29
7.60
2.02
-4.08
-10.30
-16.38
-22.15
-27.63
-33.04
-38.84
-45.52
-53.41
-62.34
-71.37
-78.89
-82.95
-81.86
-74.77
-61.99
-44.93
-25.71
-6.48
11.03
25.73
37.17
45.26
50.05
51.66
50.34
46.54
41.06
34.93
29.29
25.03
22.59
21.80
22.14
22.97
23.83
24.58
25.28
25.98
26.47
26.27
24.74
21.42
16.23
9.56
2.11
-5.38
-12.36
-18.66
-24.43
-30.15
-36.40
-43.75
-52.48
-62.30
-72.24
-80.60
-85.31
-84.44
-76.88
-62.75
-43.49
-21.47
0.62
20.49
36.66
48.54
56.23
60.13
60.75
58.55
54.13
48.26
41.97
36.34
32.26
30.15
29.79
30.50
31.43
31.88
31.63
30.85
29.88
28.90
27.74
25.80
22.38
16.98
9.61
0.83
-8.43
-17.30
-25.17
-32.06
-38.41
-45.00
-52.56
-61.51
-71.71
-82.33
-91.94
-98.65
-100.61
-96.40
-85.54
-68.67
-47.40
-23.98
-0.72
20.39
38.00
51.34
60.16
64.59
65.06
62.34
57.51
51.87
46.67
42.87
40.88
40.52
41.20
42.19
42.89
43.02
42.58
41.69
40.40
38.56
35.86
32.00
26.83
20.46
13.21
5.52
-2.22
-9.76
-17.09
-24.40
-32.05
-40.53
-50.16
-60.73
-71.30
-80.08
-84.84
-83.50
-74.95
-59.51
-38.93
-15.85
6.95
27.27
43.82
56.13
64.22
68.29
68.54
65.38
59.50
52.01
44.30
37.70
33.09
30.70
30.06
30.36
30.80
30.91
30.63
30.10
29.37
28.23
26.20
22.74
17.57
10.81
3.04
-4.94
-12.44
-19.09
-25.01
-30.72
-36.95
-44.38
-53.39
-63.81
-74.82
-84.92
-92.17
-94.51
-90.32
-78.93
-60.98
-38.38
-13.85
9.74
30.12
45.97
57.02
63.64
66.54
66.40
63.84
59.53
54.27
49.04
44.80
42.31
41.92
43.41
46.15
49.18
51.53
52.47
51.70
49.39
46.01
42.06
37.78
33.06
27.51
20.74
12.64
3.51
-6.04
-15.32
-23.84
-31.46
-38.38
-45.02
-51.90
-59.53
-68.26
-78.06
-88.29
-97.54
-103.77
-104.81
-99.00
-85.86
-66.36
-42.65
-17.53
6.34
26.96
43.24
54.91
62.24
65.85
66.47
64.88
61.87
58.24
54.75
51.98
50.32
49.81
50.24
51.19
52.20
52.83
52.82
52.04
50.39
47.79
44.19
39.65
34.31
28.52
22.59
16.70
10.86
4.89
-1.37
-7.87
-14.37
-20.45
-25.77
-30.26
-34.23
-38.27
-43.17
-49.64
-58.13
-68.56
-80.14
-91.27
-99.74
-103.21
-99.86
-89.03
-71.50
-49.33
-25.24
-1.92
18.59
35.15
47.46
55.79
60.66
62.64
62.36
60.50
57.82
55.14
53.15
52.29
52.59
53.72
55.21
56.60
57.66
58.31
58.60
58.49
57.80
56.24
53.48
49.35
43.87
37.29
30.03
22.57
15.31
8.41
1.83
-4.66
-11.28
-18.08
-24.89
-31.43
-37.36
-42.55
-47.13
-51.45
-56.09
-61.64
-68.65
-77.24
-86.94
-96.49
-103.96
-107.17
-104.36
-94.74
-78.78
-58.11
-35.02
-11.90
9.23
27.03
40.81
50.45
56.19
58.52
58.11
55.73
52.25
48.58
45.48
43.52
42.85
43.27
44.32
45.52
46.54
47.25
47.69
47.85
47.62
46.70
44.73
41.40
36.57
30.38
23.22
15.64
8.19
1.31
-4.88
-10.50
-15.88
-21.37
-27.15
-33.12
-38.93
-44.18
-48.55
-52.06
-55.06
-58.13
-62.01
-67.31
-74.33
-82.78
-91.64
-99.27
-103.67
-102.98
-96.12
-83.16
-65.34
-44.77
-23.81
-4.47
12.01
25.17
35.16
42.34
46.99
49.33
49.54
48.07
45.63
43.18
41.57
41.33
42.43
44.39
46.51
48.21
49.19
49.44
49.10
48.25
46.84
44.70
41.65
37.57
32.54
26.81
20.74
14.67
8.83
3.29
-2.06
-7.38
-12.79
-18.31
-23.88
-29.31
-34.39
-38.87
-42.64
-45.77
-48.57
-51.63
-55.68
-61.35
-68.84
-77.64
-86.40
-93.13
-95.74
-92.64
-83.30
-68.46
-49.89
-29.85
-10.51
6.54
20.43
30.91
38.10
42.30
43.96
43.65
42.10
40.12
38.41
37.45
37.35
37.94
38.89
39.97
41.11
42.41
43.91
45.47
46.65
46.88
45.68
42.90
38.72
33.60
28.05
22.41
16.87
11.49
6.22
1.01
-4.27
-9.80
-15.69
-21.93
-28.28
-34.38
-39.91
-44.81
-49.34
-54.05
-59.54
-66.19
-73.77
-81.40
-87.51
-90.27
-88.05
-80.05
-66.67
-49.40
-30.43
-11.94
4.51
18.12
28.73
36.45
41.33
43.36
42.64
39.64
35.26
30.58
26.60
23.89
22.59
22.48
23.23
24.47
25.95
27.40
28.51
29.04
28.80
27.80
26.14
24.00
21.46
18.45
14.80
10.29
4.91
-1.16
-7.53
-13.73
-19.39
-24.43
-29.04
-33.69
-38.92
-45.17
-52.58
-60.83
-69.06
-75.90
-79.76
-79.15
-73.15
-61.73
-45.89
-27.43
-8.51
8.91
23.49
34.58
42.17
46.57
48.14
47.24
44.25
39.78
34.63
29.79
26.11
24.12
23.74
24.41
25.36
25.95
25.96
25.55
25.13
24.93
24.86
24.42
22.96
19.91
15.12
8.88
1.80
-5.37
-12.10
-18.18
-23.71
-29.04
-34.57
-40.63
-47.42
-54.90
-62.62
-69.71
-74.87
-76.61
-73.64
-65.34
-52.08
-35.25
-16.85
1.02
16.73
29.38
38.76
45.08
48.60
49.58
48.21
44.88
40.26
35.19
30.54
26.90
24.40
22.80
21.74
20.94
20.42
20.37
20.93
21.94
22.86
22.82
21.04
17.08
11.16
4.04
-3.26
-9.96
-15.75
-20.88
-25.97
-31.69
-38.52
-46.63
-55.86
-65.66
-75.01
-82.43
-86.22
-84.86
-77.57
-64.67
-47.56
-28.33
-9.14
8.23
22.64
33.52
40.77
44.51
45.09
43.04
39.08
33.99
28.54
23.41
19.09
15.86
13.83
12.94
13.03
13.90
15.28
16.82
18.16
18.78
18.20
16.08
12.29
7.07
0.87
-5.70
-12.12
-18.12
-23.80
-29.70
-36.56
-44.99
-55.03
-65.83
-75.60
-82.04
-83.00
-77.27
-64.97
-47.54
-27.33
-6.90
11.55
26.60
37.58
44.46
47.56
47.39
44.58
39.83
34.00
28.00
22.71
18.73
16.28
15.12
14.83
14.93
15.14
15.40
15.71
15.97
15.82
14.77
12.36
8.35
2.89
-3.59
-10.52
-17.44
-24.21
-31.06
-38.56
-47.31
-57.52
-68.57
-78.84
-86.03
-87.79
-82.57
-70.29
-52.34
-31.23
-9.71
9.91
26.21
38.60
47.08
51.89
53.39
52.00
48.29
43.01
37.01
31.07
25.79
21.50
18.32
16.34
15.55
15.86
16.95
18.23
18.91
18.21
15.66
11.27
5.48
-1.10
-7.93
-14.74
-21.61
-28.85
-36.88
-46.06
-56.57
-68.09
-79.57
-89.22
-94.76
-94.09
-85.99
-70.68
-49.80
-26.00
-2.17
19.32
36.97
50.21
59.13
64.12
65.68
64.28
60.48
54.97
48.55
42.10
36.39
32.00
29.19
27.92
27.84
28.44
29.08
29.18
28.18
25.80
21.97
16.86
10.79
4.10
-2.99
-10.49
-18.61
-27.77
-38.35
-50.39
-63.21
-75.19
-84.02
-87.21
-83.01
-70.94
-52.17
-29.13
-4.81
18.00
37.37
52.35
62.85
69.24
72.07
71.80
68.88
63.78
57.17
49.90
43.01
37.45
33.81
32.12
31.82
32.00
31.73
30.40
27.84
24.28
20.10
15.57
10.69
5.30
-0.86
-8.02
-16.42
-26.26
-37.60
-50.14
-62.87
-74.04
-81.34
-82.54
-76.25
-62.51
-42.90
-20.08
3.02
23.98
41.38
54.67
63.88
69.11
70.50
68.18
62.68
54.95
46.37
38.45
32.30
28.43
26.65
26.27
26.39
26.28
25.48
23.81
21.34
18.18
14.45
10.23
5.47
0.05
-6.27
-13.76
-22.72
-33.27
-45.08
-57.18
-67.87
-74.93
-76.22
-70.33
-57.10
-37.78
-14.72
9.22
31.42
49.89
63.52
71.98
75.47
74.53
69.95
62.68
53.84
44.68
36.43
30.11
26.31
24.98
25.48
26.77
27.78
27.77
26.56
24.32
21.45
18.12
14.26
9.56
3.62
-3.74
-12.62
-22.88
-34.22
-45.94
-56.79
-64.92
-68.20
-64.91
-54.46
-37.70
-16.80
5.44
26.44
44.38
58.38
68.18
73.80
75.29
72.80
66.81
58.27
48.63
39.49
32.19
27.45
25.21
24.74
25.02
25.14
24.61
23.38
21.71
19.84
17.75
15.13
11.56
6.69
0.40
-7.29
-16.15
-25.79
-35.48
-44.07
-49.95
-51.45
-47.36
-37.38
-22.38
-4.12
15.22
33.60
49.43
61.70
69.83
73.54
72.90
68.39
60.93
51.82
42.56
34.46
28.47
24.95
23.65
23.82
24.48
24.65
23.68
21.40
18.08
14.25
10.35
6.50
2.45
-2.31
-8.35
-16.06
-25.46
-36.12
-47.04
-56.70
-63.34
-65.35
-61.77
-52.74
-39.44
-23.81
-7.97
6.34
18.04
26.59
31.81
33.70
32.40
28.26
22.01
14.66
7.41
1.33
-2.86
-4.97
-5.40
-4.96
-4.55
-4.85
-6.05
-7.86
-9.70
-11.09
-11.87
-12.30
-13.07
-14.95
-18.57
-24.26
-31.87
-40.67
-49.27
-55.81
-58.44
-56.06
-48.70
-37.59
-24.66
-11.82
-0.39
9.14
16.85
22.87
26.82
28.07
26.14
21.09
13.73
5.44
-2.17
-7.80
-10.87
-12.19
-13.08
-14.73
-17.89
-22.63
-28.61
-35.20
-41.49
-46.39
-49.63
-50.56
-48.27
-42.35
-33.83
-25.33
-20.07
-20.10
-25.31
-35.05
-47.29
-59.79
-71.46
-83.05
-96.39
-112.76
-131.50
-150.17
-167.88
-183.81
-196.88
-205.70
-208.78
-204.92
-193.93
-176.44
-142.04
-89.65
-27.47
31.46
77.90
110.26
132.14
147.44
159.41
169.76
176.66
177.85
172.31
159.70
140.45
116.17
89.33
65.48
51.81
51.94
65.10
85.92
106.08
116.81
111.61
85.80
41.40
-13.28
-67.91
-112.64
-140.48
-148.60
-138.85
-108.39
-64.47
-20.12
13.74
33.24
41.06
42.08
40.58
39.19
39.52
40.86
42.40
43.12
41.04
34.39
22.28
6.77
-8.37
-18.73
-22.21
-18.16
-7.27
8.09
24.70
39.18
48.63
50.89
45.72
34.14
19.02
5.86
-0.87
1.00
10.27
24.88
39.04
46.74
45.05
34.21
18.62
1.72
-15.38
-31.01
-44.72
-56.10
-63.47
-64.49
-57.35
-41.73
-19.89
4.18
25.99
41.50
48.43
47.26
40.81
32.95
27.26
25.56
27.74
32.21
36.38
37.88
35.50
29.18
19.44
6.93
-7.78
-23.70
-39.08
-51.74
-59.56
-61.23
-56.77
-47.55
-35.67
-23.17
-11.48
-1.29
6.96
12.96
16.54
17.82
17.44
16.37
15.58
15.68
16.67
18.09
19.36
20.16
20.57
21.01
21.98
23.74
26.18
28.79
30.83
31.59
30.53
27.47
22.61
16.46
9.67
2.83
-3.76
-10.08
-16.26
-22.32
-27.92
-32.40
-35.00
-35.22
-33.15
-29.59
-25.73
-22.71
-21.22
-21.30
-22.48
-24.16
-25.84
-27.37
-28.75
-30.07
-31.23
-31.95
-31.83
-30.63
-28.41
-25.57
-22.78
-20.67
-19.68
-19.83
-20.88
-22.39
-23.97
-25.43
-26.72
-27.97
-29.36
-31.00
-33.03
-35.56
-38.64
-42.26
-46.24
-50.14
-53.31
-54.87
-53.99
-50.10
-43.15
-33.69
-22.77
-11.65
-1.47
6.96
13.21
17.19
18.97
18.74
16.78
13.59
9.83
6.21
3.19
0.90
-0.90
-2.60
-4.50
-6.67
-8.81
-10.44
-11.17
-11.11
-10.69
-10.50
-11.01
-12.42
-14.67
-17.40
-20.12
-22.63
-25.43
-29.21
-34.64
-41.86
-50.33
-58.76
-65.18
-67.52
-64.66
-57.36
-47.62
-38.01
-30.67
-26.52
-24.88
-23.37
-18.72
-8.22
8.54
30.26
54.20
77.15
96.31
108.18
109.62
100.57
85.60
71.16
63.23
64.92
76.05
93.63
112.84
128.87
138.41
143.22
142.78
137.17
126.67
111.56
92.02
68.77
43.79
20.38
2.02
-9.51
-13.99
-12.91
-8.82
-4.82
-3.57
-6.23
-12.25
-19.84
-27.14
-31.86
-31.93
-25.94
-13.71
3.48
23.05
41.64
56.03
63.73
64.18
58.44
48.44
36.01
22.35
8.11
-6.28
-20.16
-32.53
-41.78
-45.97
-43.31
-32.72
-14.41
9.83
36.69
62.09
82.16
94.38
98.29
95.46
89.00
82.57
79.40
81.46
89.09
101.12
115.29
129.00
139.98
146.85
149.16
147.41
142.70
136.46
129.91
123.76
117.78
110.79
101.19
87.60
69.61
48.04
24.44
0.45
-22.94
-45.63
-68.36
-92.29
-118.50
-147.62
-179.61
-213.47
-247.37
-278.82
-305.23
-324.43
-334.89
-335.80
-326.91
-308.61
-282.05
-249.35
-213.53
-178.01
-145.79
-118.71
-97.21
-80.44
-66.88
-54.87
-43.11
-30.86
-18.05
-5.21
6.68
16.44
22.97
25.51
23.81
18.26
10.02
0.91
-6.88
-11.42
-11.65
-7.75
-1.14
6.23
12.73
17.76
21.89
26.42
32.56
40.88
51.03
62.07
72.85
82.58
90.83
97.41
102.08
104.37
103.61
99.22
91.06
79.65
66.30
52.67
40.37
30.55
23.61
19.41
17.43
17.13
17.92
19.14
19.91
19.15
15.95
9.91
1.49
-8.06
-17.20
-24.76
-30.44
-34.84
-39.14
-44.43
-51.35
-59.86
-69.50
-79.40
-88.28
-94.42
-95.74
-90.41
-77.66
-58.53
-35.87
-13.67
4.44
16.38
22.11
23.11
21.40
18.51
15.02
11.03
6.66
2.56
-0.31
-1.24
-0.49
0.52
-0.17
-4.13
-11.39
-20.10
-26.98
-28.57
-22.55
-8.70
11.05
33.51
55.37
74.15
88.57
98.21
103.07
103.16
98.55
89.54
77.03
62.39
47.23
32.86
19.95
8.36
-2.57
-13.56
-24.87
-35.94
-45.19
-50.34
-49.05
-39.77
-22.53
0.65
26.20
50.04
68.73
80.44
84.97
83.25
76.50
65.74
51.91
36.32
20.88
7.94
-0.61
-4.15
-3.80
-1.93
-1.13
-3.16
-8.31
-15.58
-23.20
-29.58
-33.94
-36.62
-38.84
-42.22
-47.96
-56.22
-65.81
-74.46
-79.67
-79.64
-73.87
-63.20
-49.34
-34.14
-19.06
-5.08
7.13
16.98
23.97
27.78
28.57
27.06
24.55
22.67
22.88
26.05
32.10
40.10
48.54
55.91
61.22
64.22
65.18
64.53
62.45
58.62
52.55
43.86
32.70
19.84
6.53
-5.86
-16.16
-23.64
-28.20
-30.23
-30.53
-30.05
-29.67
-30.04
-31.55
-34.47
-38.89
-44.85
-52.22
-60.65
-69.38
-77.35
-83.15
-85.40
-83.07
-75.82
-64.32
-50.09
-35.28
-21.95
-11.58
-4.61
-0.54
1.67
3.08
4.36
5.78
7.44
9.50
12.21
15.82
20.22
24.92
29.22
32.51
34.66
36.05
37.41
39.41
42.45
46.50
51.22
56.21
61.02
65.36
68.99
71.65
72.99
72.63
70.09
64.96
57.10
46.83
35.00
22.76
11.27
1.22
-7.26
-14.45
-20.70
-26.11
-30.58
-34.11
-37.15
-40.52
-45.08
-50.99
-57.40
-62.73
-65.61
-65.99
-65.75
-68.34
-77.66
-96.78
-126.78
-166.41
-212.13
-258.82
-300.66
-332.00
-348.46
-347.62
-329.62
-296.99
-254.06
-205.73
-156.34
-109.03
-65.42
-26.12
8.83
39.41
65.45
86.63
102.73
113.75
119.86
121.25
117.90
109.74
96.90
80.10
60.74
40.75
21.84
4.87
-10.43
-25.25
-40.96
-58.22
-76.65
-94.93
-111.40
-124.78
-134.64
-141.48
-146.38
-150.50
-154.62
-158.89
-162.86
-165.68
-166.42
-164.42
-159.48
-152.06
-143.20
-134.13
-125.75
-118.05
-109.89
-99.27
-84.18
-63.67
-38.68
-11.82
13.61
35.12
52.10
66.04
79.54
94.93
113.20
133.68
154.76
174.75
192.64
208.26
221.90
233.77
243.68
250.90
254.42
253.25
246.80
235.09
218.97
199.95
180.02
161.13
144.81
131.80
121.93
114.33
107.79
101.37
94.66
88.03
82.33
78.46
76.99
77.80
80.16
82.82
84.34
83.35
78.85
70.43
58.66
45.11
32.18
22.31
17.24
17.27
21.17
26.72
31.52
33.94
33.52
30.88
27.15
23.35
19.94
16.78
13.32
9.16
4.27
-1.02
-6.31
-11.47
-16.87
-23.28
-31.35
-41.27
-52.41
-63.58
-73.52
-81.45
-87.47
-92.48
-97.76
-104.54
-113.52
-124.71
-137.28
-149.54
-159.08
-163.15
-159.43
-146.74
-125.54
-97.79
-66.39
-34.35
-4.19
22.25
43.61
59.02
68.09
71.27
69.97
66.28
62.42
60.01
59.58
60.73
62.53
64.06
64.80
64.66
63.79
62.33
60.26
57.36
53.26
47.61
40.17
30.93
20.05
7.89
-5.11
-18.48
-31.75
-44.59
-56.96
-69.18
-81.82
-95.38
-109.67
-123.32
-133.77
-137.74
-132.36
-116.33
-90.58
-58.20
-23.47
9.38
37.33
59.11
75.02
86.31
94.49
100.81
106.02
110.42
114.05
116.77
118.48
119.16
118.75
117.18
114.26
109.81
103.85
96.68
88.80
80.64
72.30
63.39
53.39
41.98
29.42
16.41
3.52
-9.21
-22.53
-37.59
-55.32
-75.88
-98.53
-121.80
-143.74
-162.11
-174.41
-178.15
-171.36
-153.53
-126.15
-92.72
-57.77
-25.49
1.43
22.24
37.59
48.64
56.25
60.79
62.41
61.62
59.43
57.19
56.05
56.51
58.32
60.77
63.13
65.01
66.41
67.49
68.27
68.53
67.84
65.87
62.57
58.26
53.36
48.19
42.78
36.85
30.16
22.72
14.99
7.76
1.78
-2.61
-5.62
-8.04
-10.92
-15.09
-20.91
-27.89
-34.82
-39.88
-41.09
-36.80
-26.18
-9.57
11.61
35.01
58.09
78.60
95.06
106.90
114.42
118.44
120.09
120.49
120.57
121.01
122.14
124.08
126.67
129.68
132.84
135.91
138.68
140.88
142.15
141.95
139.63
134.45
125.87
113.68
98.24
80.48
61.72
43.31
26.21
10.85
-2.95
-15.61
-27.53
-38.81
-49.17
-58.19
-65.53
-71.14
-75.25
-78.35
-81.05
-83.89
-87.10
-90.48
-93.35
-94.64
-93.23
-88.37
-79.95
-68.56
-55.33
-41.52
-28.19
-16.09
-5.67
2.76
8.96
12.75
14.25
13.87
12.32
10.45
8.92
8.12
8.04
8.45
8.96
9.33
9.41
9.26
9.01
8.74
8.40
7.74
6.43
4.18
0.92
-3.15
-7.61
-11.98
-16.02
-19.76
-23.51
-27.58
-32.07
-36.83
-41.55
-45.96
-50.03
-54.03
-58.37
-63.55
-69.90
-77.51
-86.03
-94.64
-102.01
-106.50
-106.65
-101.57
-91.43
-77.36
-61.16
-44.69
-29.35
-15.83
-4.32
5.22
12.84
18.50
22.20
24.18
24.96
25.21
25.60
26.57
28.26
30.50
32.92
35.08
36.69
37.66
38.09
38.22
38.18
37.98
37.36
35.99
33.61
30.23
26.12
21.72
17.45
13.52
9.88
6.29
2.43
-1.93
-6.85
-12.24
-17.89
-23.57
-29.19
-34.71
-40.23
-45.91
-51.96
-58.61
-65.91
-73.53
-80.58
-85.60
-86.89
-83.01
-73.44
-58.75
-40.64
-21.29
-2.79
13.42
26.68
36.92
44.29
48.99
51.23
51.33
49.96
48.01
46.51
46.17
47.28
49.52
52.22
54.73
56.61
57.78
58.43
58.79
59.02
59.11
58.84
57.94
56.09
53.06
48.74
43.21
36.78
29.82
22.71
15.67
8.76
1.97
-4.65
-10.87
-16.36
-20.84
-24.34
-27.27
-30.29
-34.04
-38.86
-44.58
-50.57
-55.92
-59.69
-61.11
-59.70
-55.32
-48.21
-38.95
-28.46
-17.81
-8.02
0.22
6.69
11.54
15.20
18.07
20.47
22.58
24.53
26.50
28.66
31.07
33.56
35.77
37.26
37.79
37.38
36.36
35.15
34.08
33.19
32.23
30.82
28.54
25.21
20.85
15.72
10.20
4.67
-0.59
-5.46
-9.99
-14.34
-18.64
-22.89
-26.89
-30.33
-32.94
-34.55
-35.24
-35.22
-34.99
-35.05
-35.90
-37.82
-40.70
-43.98
-46.74
-47.85
-46.36
-41.74
-34.05
-23.96
-12.55
-0.99
9.71
18.94
26.44
32.18
36.21
38.57
39.29
38.48
36.47
33.81
31.08
28.73
26.95
25.61
24.46
23.27
21.90
20.41
18.85
17.26
15.58
13.77
11.70
9.29
6.49
3.31
-0.18
-3.73
-7.07
-9.92
-12.15
-13.87
-15.41
-17.30
-20.12
-24.42
-30.44
-38.05
-46.60
-55.01
-62.00
-66.39
-67.48
-65.16
-59.91
-52.50
-43.78
-34.48
-25.22
-16.53
-8.93
-2.90
1.32
3.80
5.04
5.77
6.72
8.34
10.61
13.03
14.80
15.20
13.82
10.77
6.59
2.07
-2.16
-5.79
-8.85
-11.66
-14.59
-17.91
-21.72
-25.99
-30.57
-35.26
-39.74
-43.67
-46.71
-48.65
-49.48
-49.34
-48.46
-46.96
-44.77
-41.69
-37.51
-32.26
-26.19
-19.81
-13.57
-7.73
-2.33
2.69
7.26
11.03
13.41
13.92
12.42
9.40
5.87
3.02
1.78
2.46
4.70
7.62
10.31
12.12
12.95
13.06
12.93
12.86
12.79
12.31
10.89
8.22
4.38
-0.05
-4.29
-7.73
-10.16
-11.89
-13.49
-15.49
-18.10
-21.11
-23.94
-25.77
-25.81
-23.44
-18.40
-10.93
-1.68
8.35
18.13
26.89
34.19
39.88
44.01
46.62
47.81
47.73
46.72
45.26
43.82
42.74
42.18
42.09
42.32
42.64
42.77
42.39
41.17
38.95
35.76
31.93
27.98
24.40
21.35
18.63
15.67
11.78
6.50
-0.23
-8.00
-16.11
-23.81
-30.62
-36.45
-41.54
-46.26
-50.90
-55.49
-59.71
-63.07
-65.09
-65.45
-64.28
-62.16
-60.10
-59.16
-60.15
-63.24
-67.86
-72.83
-76.69
-78.28
-76.87
-72.47
-65.52
-56.70
-46.70
-36.11
-25.51
-15.57
-7.02
-0.49
3.64
5.48
5.57
4.71
3.68
3.10
3.35
4.53
6.62
9.40
12.55
15.63
18.22
20.00
20.92
21.13
20.81
20.10
18.97
17.40
15.54
13.71
12.34
11.67
11.61
11.73
11.46
10.40
8.51
6.15
3.85
2.16
1.33
1.39
2.12
3.21
4.41
5.57
6.58
7.39
7.85
7.74
6.81
4.97
2.45
-0.11
-1.69
-1.27
1.79
7.52
15.24
23.87
32.25
39.46
44.98
48.64
50.48
50.72
49.71
47.88
45.65
43.36
41.04
38.57
35.80
32.71
29.48
26.37
23.61
21.21
19.09
17.11
15.19
13.33
11.56
9.90
8.33
6.84
5.46
4.28
3.32
2.60
2.17
2.14
2.68
3.93
5.89
8.33
10.84
13.06
14.68
15.58
15.67
14.86
13.11
10.45
7.11
3.48
0.03
-2.94
-5.28
-7.06
-8.33
-8.99
-8.85
-7.71
-5.57
-2.71
0.32
2.89
4.43
4.56
3.08
-0.07
-4.87
-11.17
-18.68
-26.92
-35.25
-43.02
-49.66
-54.81
-58.30
-60.07
-60.19
-58.76
-55.89
-51.83
-46.83
-41.25
-35.58
-30.36
-26.24
-23.82
-23.52
-25.47
-29.42
-34.76
-40.73
-46.65
-52.09
-56.93
-61.22
-65.05
-68.47
-71.39
-73.64
-74.97
-75.06
-73.47
-69.74
-63.57
-55.06
-44.95
-34.48
-25.21
-18.51
-15.11
-14.85
-16.88
-20.13
-23.66
-27.16
-30.72
-34.70
-39.15
-43.60
-47.06
-48.45
-47.05
-42.86
-36.65
-29.56
-22.65
-16.47
-10.98
-5.76
-0.31
5.57
11.83
18.22
24.62
31.08
37.82
45.00
52.46
59.66
65.82
70.15
72.07
71.45
68.49
63.69
57.61
50.83
43.87
37.29
31.68
27.56
25.32
25.01
26.33
28.70
31.36
33.64
35.01
35.23
34.25
32.31
29.74
26.95
24.35
22.16
20.53
19.45
18.82
18.45
18.13
17.61
16.65
15.17
13.15
10.81
8.32
5.75
2.94
-0.37
-4.52
-9.59
-15.47
-21.88
-28.50
-35.06
-41.36
-47.24
-52.57
-57.28
-61.47
-65.34
-69.03
-72.39
-74.81
-75.36
-73.02
-67.27
-58.25
-46.78
-34.10
-21.51
-10.02
-0.31
7.31
12.75
16.02
17.21
16.52
14.28
11.05
7.60
4.78
3.32
3.48
5.10
7.63
10.46
13.13
15.46
17.42
18.93
19.85
19.91
19.01
17.23
14.84
12.12
9.13
5.69
1.56
-3.43
-9.22
-15.51
-21.90
-28.03
-33.74
-38.96
-43.67
-47.67
-50.44
-51.27
-49.49
-44.75
-37.20
-27.54
-16.76
-5.81
4.55
13.88
21.90
28.34
32.84
35.17
35.31
33.70
31.21
28.82
27.44
27.50
29.01
31.48
34.39
37.36
40.30
43.39
46.74
50.35
53.84
56.67
58.37
58.81
58.23
57.18
56.25
55.76
55.76
55.90
55.67
54.38
51.38
46.15
38.41
28.27
16.14
2.74
-11.04
-24.21
-35.71
-44.43
-49.31
-49.62
-45.21
-36.78
-25.69
-13.70
-2.35
7.33
14.92
20.46
24.15
26.23
26.97
26.76
26.03
25.23
24.66
24.39
24.40
24.64
25.19
26.15
27.56
29.21
30.70
31.58
31.56
30.68
29.17
27.30
25.14
22.57
19.37
15.47
11.03
6.46
2.20
-1.57
-4.91
-8.14
-11.59
-15.40
-19.46
-23.61
-27.72
-31.76
-35.82
-40.00
-44.39
-49.14
-54.44
-60.46
-67.16
-74.10
-80.38
-84.81
-86.26
-84.00
-77.96
-68.70
-57.20
-44.62
-32.03
-20.31
-10.11
-1.87
4.21
8.18
10.32
11.15
11.33
11.49
12.08
13.24
14.90
16.82
18.75
20.58
22.33
24.08
25.88
27.72
29.52
31.22
32.70
33.85
34.47
34.32
33.28
31.34
28.65
25.49
22.18
18.98
16.09
13.53
11.29
9.27
7.34
5.41
3.40
1.33
-0.70
-2.60
-4.37
-6.17
-8.31
-11.08
-14.57
-18.57
-22.44
-25.38
-26.54
-25.39
-21.85
-16.32
-9.53
-2.26
4.90
11.62
17.84
23.62
28.99
33.83
37.84
40.68
42.14
42.17
41.03
39.11
36.87
34.64
32.59
30.72
28.92
27.15
25.38
23.68
22.08
20.53
18.85
16.84
14.37
11.45
8.27
5.10
2.25
-0.16
-2.08
-3.64
-4.96
-6.16
-7.21
-8.03
-8.58
-8.90
-9.26
-9.89
-11.00
-12.56
-14.31
-15.94
-17.28
-18.42
-19.73
-21.61
-24.15
-26.97
-29.19
-29.75
-27.85
-23.20
-16.18
-7.62
1.42
9.98
17.30
22.91
26.68
28.76
29.53
29.48
29.11
28.77
28.63
28.74
29.04
29.47
30.02
30.69
31.55
32.67
34.10
35.80
37.48
38.66
38.72
37.27
34.27
30.10
25.31
20.42
15.62
10.91
6.11
1.22
-3.63
-8.15
-12.07
-15.32
-17.99
-20.32
-22.57
-24.95
-27.60
-30.55
-33.73
-37.11
-40.60
-44.15
-47.55
-50.43
-52.17
-52.07
-49.58
-44.60
-37.58
-29.44
-21.24
-13.87
-7.84
-3.27
-0.10
1.78
2.50
2.22
1.24
0.06
-0.79
-0.88
-0.09
1.29
2.79
3.91
4.40
4.38
4.19
4.14
4.33
4.61
4.71
4.40
3.67
2.71
1.73
0.83
-0.03
-0.99
-2.11
-3.34
-4.51
-5.45
-6.09
-6.55
-7.07
-7.95
-9.36
-11.21
-13.35
-15.49
-17.52
-19.44
-21.32
-23.08
-24.38
-24.64
-23.29
-20.00
-14.93
-8.69
-2.10
4.10
9.37
13.39
15.99
17.11
16.86
15.58
13.89
12.49
11.96
12.49
13.75
15.12
15.95
15.89
15.06
14.00
13.32
13.40
14.13
15.04
15.55
15.31
14.45
13.39
12.63
12.33
12.26
11.92
10.84
8.88
6.25
3.35
0.53
-2.07
-4.49
-6.84
-9.18
-11.57
-14.03
-16.62
-19.48
-22.63
-25.93
-28.99
-31.23
-32.04
-31.00
-27.95
-23.13
-17.09
-10.49
-4.04
1.71
6.44
10.08
12.69
14.40
15.32
15.54
15.18
14.42
13.52
12.75
12.28
12.14
12.20
12.27
12.22
12.10
12.06
12.23
12.66
13.17
13.41
13.05
11.90
10.04
7.76
5.38
3.13
1.03
-1.08
-3.43
-6.12
-9.06
-11.97
-14.50
-16.43
-17.77
-18.71
-19.59
-20.75
-22.40
-24.54
-26.96
-29.16
-30.45
-30.12
-27.65
-22.98
-16.53
-9.07
-1.50
5.49
11.51
16.48
20.43
23.40
25.37
26.40
26.61
26.28
25.79
25.43
25.30
25.34
25.44
25.45
25.44
25.51
25.85
26.47
27.21
27.70
27.47
26.04
23.03
18.26
11.73
3.67
-5.50
-15.20
-24.74
-33.51
-40.98
-46.86
-51.05
-53.71
-55.13
-55.78
-56.06
-56.30
-56.59
-56.83
-56.76
-56.05
-54.37
-51.41
-46.91
-40.72
-32.96
-24.01
-14.55
-5.39
2.74
9.32
14.18
17.31
18.87
19.06
18.10
16.36
14.30
12.43
11.18
10.73
10.96
11.51
11.97
12.08
11.87
11.56
11.52
11.95
12.76
13.59
13.92
13.37
11.80
9.36
6.35
3.11
-0.21
-3.57
-7.02
-10.52
-13.91
-16.90
-19.22
-20.78
-21.76
-22.68
-24.21
-26.88
-30.84
-35.64
-40.28
-43.42
-43.90
-41.14
-35.42
-27.73
-19.39
-11.51
-4.72
0.91
5.61
9.55
12.69
14.74
15.45
14.85
13.31
11.49
10.07
9.51
9.93
11.12
12.74
14.42
15.92
17.20
18.31
19.28
20.08
20.53
20.42
19.65
18.26
16.48
14.51
12.45
10.21
7.61
4.52
0.99
-2.78
-6.50
-9.95
-13.07
-15.95
-18.79
-21.75
-24.91
-28.12
-31.01
-32.98
-33.36
-31.57
-27.38
-20.98
-12.95
-4.16
4.50
12.27
18.63
23.28
26.19
27.42
27.22
25.90
23.85
21.50
19.32
17.71
16.91
16.98
17.69
18.66
19.50
19.88
19.72
19.12
18.25
17.25
16.16
14.85
13.16
10.94
8.12
4.80
1.11
-2.77
-6.69
-10.59
-14.40
-18.11
-21.66
-25.04
-28.29
-31.56
-35.04
-38.80
-42.67
-46.10
-48.26
-48.28
-45.58
-40.05
-32.15
-22.68
-12.55
-2.55
6.71
14.79
21.34
26.08
28.94
30.06
29.84
28.85
27.64
26.66
26.11
26.04
26.36
26.91
27.58
28.33
29.07
29.69
30.04
29.86
28.95
27.14
24.41
20.90
16.85
12.58
8.39
4.44
0.68
-3.03
-6.92
-11.09
-15.51
-20.04
-24.56
-29.12
-33.96
-39.35
-45.41
-51.96
-58.52
-64.40
-68.91
-71.48
-71.59
-68.89
-63.18
-54.50
-43.32
-30.55
-17.38
-5.07
5.42
13.69
19.86
24.40
27.85
30.63
32.89
34.63
35.83
36.54
37.03
37.60
38.53
39.91
41.58
43.20
44.36
44.75
44.23
42.86
40.77
38.11
34.98
31.41
27.45
23.20
18.83
14.50
10.36
6.49
2.88
-0.52
-3.83
-7.14
-10.60
-14.35
-18.53
-23.22
-28.41
-33.86
-39.09
-43.35
-45.73
-45.41
-41.91
-35.28
-26.12
-15.45
-4.41
5.98
14.94
22.02
27.08
30.22
31.70
31.91
31.30
30.33
29.48
29.09
29.38
30.27
31.44
32.48
32.96
32.70
31.75
30.33
28.64
26.78
24.69
22.22
19.33
16.02
12.42
8.62
4.69
0.64
-3.48
-7.59
-11.57
-15.31
-18.77
-21.92
-24.81
-27.59
-30.53
-33.90
-37.89
-42.31
-46.47
-49.21
-49.18
-45.38
-37.54
-26.35
-13.23
0.02
11.92
21.53
28.65
33.59
36.92
39.16
40.64
41.51
41.86
41.90
41.98
42.54
43.95
46.38
49.69
53.53
57.41
60.83
63.43
65.05
65.82
66.20
66.75
67.83
69.34
70.55
70.29
67.18
60.12
48.47
32.21
11.88
-11.33
-35.63
-58.76
-78.42
-92.86
-101.50
-105.08
-105.23
-103.70
-101.56
-98.89
-95.00
-89.04
-80.55
-69.66
-57.02
-43.45
-29.82
-16.82
-5.15
4.57
11.84
16.35
18.20
17.87
16.22
14.24
12.85
12.63
13.70
15.70
17.98
19.89
20.98
21.21
20.81
20.21
19.65
19.21
18.73
18.00
16.86
15.34
13.56
11.70
9.87
8.04
6.06
3.76
1.11
-1.82
-4.82
-7.64
-10.14
-12.38
-14.58
-17.00
-19.80
-22.90
-25.88
-28.12
-28.98
-27.99
-25.00
-20.23
-14.13
-7.33
-0.48
5.88
11.35
15.68
18.83
20.90
22.09
22.65
22.79
22.63
22.22
21.55
20.68
19.75
19.03
18.73
18.96
19.55
20.18
20.43
20.00
18.76
16.79
14.35
11.71
9.13
6.69
4.38
2.05
-0.40
-2.98
-5.64
-8.20
-10.62
-12.97
-15.46
-18.37
-21.86
-25.93
-30.29
-34.52
-38.12
-40.65
-41.72
-41.11
-38.68
-34.44
-28.58
-21.46
-13.64
-5.81
1.30
7.09
11.21
13.64
14.69
14.82
14.55
14.21
14.05
14.12
14.46
15.03
15.77
16.54
17.21
17.69
17.90
17.85
17.51
16.81
15.60
13.79
11.41
8.62
5.71
2.92
0.35
-2.15
-4.82
-7.93
-11.55
-15.52
-19.50
-23.13
-26.19
-28.69
-30.88
-33.16
-35.92
-39.38
-43.47
-47.68
-51.19
-52.94
-51.94
-47.54
-39.71
-29.12
-16.99
-4.76
6.33
15.51
22.54
27.60
31.08
33.37
34.78
35.62
36.16
36.66
37.32
38.24
39.36
40.55
41.69
42.69
43.55
44.43
45.63
47.50
50.24
53.66
56.87
58.49
56.85
50.69
39.58
24.17
6.00
-12.96
-30.81
-46.04
-57.69
-65.40
-69.34
-70.08
-68.61
-66.06
-63.48
-61.62
-60.74
-60.59
-60.56
-59.85
-57.69
-53.52
-47.17
-38.85
-29.15
-18.92
-8.97
-0.01
7.53
13.49
17.87
20.80
22.52
23.35
23.62
23.68
23.72
23.73
23.57
23.09
22.28
21.33
20.57
20.24
20.36
20.66
20.71
20.06
18.43
15.89
12.76
9.51
6.51
3.92
1.58
-0.82
-3.59
-6.85
-10.47
-14.13
-17.50
-20.40
-22.86
-25.13
-27.51
-30.23
-33.36
-36.75
-40.02
-42.59
-43.77
-42.92
-39.61
-33.77
-25.72
-16.16
-6.00
3.75
12.23
18.77
23.07
25.16
25.33
24.13
22.18
20.09
18.35
17.27
16.97
17.35
18.21
19.27
20.28
21.02
21.37
21.29
20.74
19.75
18.37
16.68
14.74
12.59
10.24
7.69
4.97
2.15
-0.71
-3.54
-6.41
-9.38
-12.55
-15.92
-19.42
-22.88
-26.27
-29.58
-32.90
-36.23
-39.33
-41.62
-42.21
-40.27
-35.24
-27.22
-16.99
-5.81
4.90
14.07
21.06
25.80
28.53
29.65
29.48
28.33
26.55
24.56
22.79
21.58
21.03
21.00
21.18
21.29
21.25
21.09
20.90
20.68
20.29
19.56
18.39
16.86
15.12
13.31
11.39
9.09
6.12
2.31
-2.24
-7.14
-11.88
-16.05
-19.44
-22.15
-24.46
-26.74
-29.37
-32.58
-36.39
-40.65
-44.88
-48.38
-50.26
-49.65
-45.92
-38.97
-29.27
-17.79
-5.74
5.70
15.62
23.49
29.08
32.39
33.60
33.00
31.09
28.54
26.13
24.45
23.81
24.09
24.84
25.56
25.93
25.95
25.86
25.91
26.11
26.16
25.63
24.16
21.75
18.73
15.57
12.58
9.76
6.87
3.58
-0.25
-4.46
-8.76
-12.84
-16.59
-20.13
-23.72
-27.66
-32.17
-37.35
-42.97
-48.53
-53.13
-55.57
-54.66
-49.65
-40.57
-28.36
-14.68
-1.37
10.00
18.56
24.15
27.15
28.19
27.82
26.52
24.61
22.43
20.33
18.73
17.90
17.93
18.68
19.73
20.64
21.00
20.66
19.69
18.32
16.72
14.97
12.98
10.62
7.75
4.36
0.56
-3.51
-7.73
-12.02
-16.29
-20.48
-24.52
-28.35
-32.09
-35.93
-40.16
-44.93
-50.09
-55.04
-58.76
-60.06
-57.87
-51.61
-41.48
-28.44
-14.02
0.06
12.37
22.01
28.72
32.72
34.45
34.43
33.16
31.16
28.92
26.94
25.61
25.10
25.34
25.98
26.65
27.05
27.07
26.78
26.33
25.79
25.06
23.96
22.20
19.64
16.21
12.04
7.33
2.38
-2.54
-7.19
-11.42
-15.30
-18.94
-22.59
-26.42
-30.53
-35.00
-39.90
-45.29
-51.02
-56.56
-60.89
-62.67
-60.61
-53.99
-43.01
-28.80
-13.12
2.11
15.28
25.41
32.21
35.96
37.33
37.04
35.79
34.07
32.28
30.65
29.40
28.62
28.30
28.34
28.53
28.69
28.70
28.52
28.11
27.43
26.37
24.85
22.80
20.26
17.33
14.03
10.30
6.02
1.13
-4.24
-9.75
-14.96
-19.52
-23.30
-26.52
-29.60
-33.03
-37.16
-42.08
-47.44
-52.52
-56.20
-57.22
-54.50
-47.62
-36.99
-23.89
-10.06
2.86
13.78
22.25
28.36
32.32
34.31
34.37
32.62
29.49
25.71
22.21
19.77
18.76
19.08
20.24
21.63
22.77
23.39
23.52
23.28
22.80
22.11
21.05
19.41
16.95
13.59
9.43
4.74
-0.15
-4.97
-9.54
-13.80
-17.76
-21.38
-24.72
-27.92
-31.28
-35.32
-40.46
-46.73
-53.55
-59.66
-63.47
-63.56
-59.13
-50.24
-37.79
-23.18
-7.88
6.73
19.60
29.91
37.12
41.04
41.96
40.60
38.00
35.21
32.91
31.38
30.48
29.88
29.36
28.91
28.74
29.08
29.94
30.95
31.54
31.09
29.33
26.43
22.89
19.24
15.79
12.47
8.95
4.97
0.50
-4.16
-8.66
-12.78
-16.62
-20.44
-24.53
-29.00
-33.83
-38.97
-44.48
-50.36
-56.33
-61.53
-64.60
-64.03
-58.80
-48.88
-35.36
-20.10
-5.16
7.90
18.23
25.74
30.72
33.57
34.62
34.09
32.32
29.76
27.04
24.75
23.31
22.89
23.33
24.38
25.72
27.12
28.40
29.43
29.99
29.79
28.63
26.38
23.13
19.15
14.75
10.15
5.46
0.66
-4.28
-9.28
-14.14
-18.62
-22.54
-25.93
-29.07
-32.35
-36.21
-40.92
-46.47
-52.44
-57.98
-61.94
-63.06
-60.28
-53.12
-41.90
-27.77
-12.40
2.38
15.12
24.94
31.63
35.42
36.81
36.33
34.56
32.05
29.34
26.97
25.30
24.53
24.58
25.27
26.28
27.33
28.18
28.60
28.39
27.44
25.73
23.42
20.78
18.12
15.58
13.07
10.27
6.86
2.65
-2.28
-7.61
-12.95
-18.06
-22.83
-27.35
-31.77
-36.30
-41.15
-46.49
-52.29
-58.17
-63.24
-66.19
-65.60
-60.53
-50.88
-37.57
-22.33
-7.16
6.24
16.87
24.49
29.45
32.30
33.57
33.59
32.56
30.64
28.13
25.49
23.27
21.94
21.75
22.62
24.16
25.81
27.04
27.51
27.14
26.11
24.74
23.22
21.62
19.77
17.42
14.36
10.56
6.21
1.60
-2.95
-7.22
-11.16
-14.81
-18.33
-21.86
-25.58
-29.71
-34.48
-40.06
-46.41
-53.04
-58.93
-62.73
-63.10
-59.10
-50.64
-38.47
-23.99
-8.96
5.05
16.76
25.44
30.87
33.30
33.34
31.81
29.56
27.22
25.19
23.60
22.51
21.90
21.84
22.35
23.33
24.59
25.84
26.87
27.49
27.63
27.23
26.26
24.68
22.53
19.93
17.04
13.99
10.73
7.11
2.95
-1.76
-6.77
-11.61
-15.78
-19.03
-21.50
-23.75
-26.53
-30.52
-35.94
-42.42
-48.90
-53.80
-55.50
-52.80
-45.34
-33.83
-19.81
-5.22
8.18
19.23
27.43
32.86
35.85
36.78
35.99
33.85
30.83
27.53
24.59
22.52
21.56
21.59
22.24
23.03
23.60
23.84
23.88
23.91
24.04
24.14
23.89
22.90
20.96
18.06
14.44
10.38
6.15
1.86
-2.39
-6.48
-10.30
-13.70
-16.61
-19.09
-21.31
-23.53
-26.03
-29.12
-33.03
-37.90
-43.54
-49.34
-54.15
-56.51
-55.02
-48.89
-38.28
-24.42
-9.24
5.17
17.20
26.03
31.67
34.68
35.81
35.70
34.79
33.31
31.42
29.31
27.19
25.27
23.77
22.81
22.43
22.56
22.97
23.36
23.47
23.09
22.16
20.73
18.89
16.73
14.30
11.57
8.51
5.08
1.24
-2.95
-7.38
-11.84
-16.09
-19.93
-23.24
-26.17
-28.99
-32.09
-35.79
-40.15
-44.87
-49.30
-52.46
-53.32
-51.01
-45.14
-35.95
-24.32
-11.61
0.75
11.55
20.06
26.05
29.69
31.28
31.19
29.81
27.57
25.01
22.65
20.89
19.86
19.43
19.32
19.29
19.20
19.08
18.97
18.86
18.67
18.18
17.14
15.35
12.81
9.73
6.42
3.23
0.31
-2.40
-5.18
-8.31
-11.94
-16.00
-20.18
-24.17
-27.74
-30.95
-34.05
-37.38
-41.14
-45.24
-49.13
-51.86
-52.30
-49.46
-42.93
-33.08
-21.03
-8.33
3.45
13.15
20.20
24.57
26.65
26.97
26.08
24.43
22.38
20.22
18.18
16.52
15.45
15.10
15.44
16.24
17.16
17.82
17.95
17.50
16.54
15.23
13.69
11.93
9.87
7.38
4.41
0.95
-2.91
-7.04
-11.25
-15.38
-19.32
-23.04
-26.59
-30.11
-33.82
-37.92
-42.50
-47.50
-52.52
-56.86
-59.55
-59.58
-56.17
-49.07
-38.73
-26.25
-13.10
-0.72
9.82
17.99
23.78
27.47
29.41
29.88
29.08
27.31
24.99
22.62
20.73
19.62
19.32
19.58
20.05
20.44
20.67
20.78
20.86
20.87
20.56
19.65
17.89
15.26
11.99
8.46
4.96
1.62
-1.65
-5.02
-8.63
-12.46
-16.36
-20.20
-23.93
-27.69
-31.74
-36.32
-41.54
-47.12
-52.42
-56.36
-57.70
-55.36
-48.82
-38.32
-24.91
-10.17
4.17
16.65
26.31
32.79
36.20
37.05
36.01
33.81
31.07
28.26
25.65
23.42
21.71
20.63
20.25
20.50
21.14
21.79
22.09
21.77
20.80
19.35
17.67
15.91
13.99
11.73
8.87
5.27
1.00
-3.67
-8.40
-12.93
-17.10
-20.95
-24.60
-28.28
-32.26
-36.80
-42.05
-47.94
-53.94
-59.08
-62.05
-61.55
-56.71
-47.44
-34.55
-19.44
-3.78
10.98
23.82
34.19
41.87
46.82
49.18
49.31
47.81
45.52
43.33
41.94
41.68
42.50
44.14
46.22
48.40
50.45
52.23
53.73
55.16
56.96
59.60
63.17
67.02
69.53
68.54
61.99
48.76
29.18
4.93
-21.44
-47.26
-70.25
-88.81
-102.00
-109.62
-112.22
-111.17
-108.34
-105.67
-104.45
-104.84
-105.81
-105.45
-101.72
-93.12
-79.26
-60.97
-40.13
-19.12
-0.18
15.10
26.04
32.83
36.17
36.95
35.95
33.85
31.24
28.71
26.79
25.85
25.91
26.72
27.84
28.84
29.49
29.69
29.50
28.92
27.89
26.33
24.16
21.37
18.05
14.26
10.02
5.34
0.21
-5.25
-10.82
-16.14
-20.91
-24.98
-28.46
-31.79
-35.53
-40.19
-45.88
-52.29
-58.43
-62.95
-64.29
-61.15
-52.85
-39.63
-22.72
-4.06
14.11
29.91
42.10
50.31
54.88
56.52
56.00
53.95
50.88
47.18
43.27
39.63
36.71
34.83
34.10
34.36
35.18
36.01
36.31
35.79
34.39
32.26
29.57
26.33
22.38
17.50
11.64
5.03
-1.79
-8.19
-13.78
-18.59
-23.13
-28.15
-34.27
-41.54
-49.25
-55.97
-59.91
-59.47
-53.79
-43.05
-28.45
-11.82
4.85
19.90
32.27
41.45
47.38
50.16
50.03
47.39
42.89
37.45
32.18
28.06
25.70
25.08
25.67
26.64
27.24
27.09
26.23
24.96
23.60
22.19
20.51
18.15
14.80
10.36
5.04
-0.80
-6.79
-12.61
-18.08
-23.18
-28.00
-32.82
-38.04
-44.04
-50.92
-58.24
-64.85
-69.11
-69.25
-64.03
-53.25
-37.91
-19.97
-1.79
14.51
27.62
37.09
43.26
46.77
48.22
48.00
46.30
43.36
39.66
35.93
32.93
31.25
30.96
31.61
32.47
32.84
32.34
31.01
29.24
27.37
25.59
23.73
21.37
18.13
13.86
8.73
3.21
-2.19
-7.13
-11.54
-15.62
-19.72
-24.09
-28.89
-34.20
-40.05
-46.37
-52.87
-58.71
-62.57
-62.97
-58.72
-49.48
-36.02
-20.02
-3.50
11.71
24.41
34.13
40.92
45.08
46.89
46.59
44.41
40.76
36.32
31.88
28.25
25.91
24.96
25.03
25.58
26.06
26.20
25.97
25.47
24.72
23.55
21.72
18.90
15.01
10.20
4.83
-0.66
-5.85
-10.56
-14.80
-18.74
-22.64
-26.66
-30.93
-35.41
-40.16
-45.23
-50.64
-56.18
-61.21
-64.63
-65.14
-61.68
-53.82
-42.08
-27.79
-12.66
1.66
14.03
23.84
30.95
35.42
37.39
37.10
34.95
31.58
27.72
24.11
21.24
19.35
18.40
18.21
18.54
19.11
19.67
19.94
19.76
19.04
17.83
16.23
14.25
11.80
8.75
4.96
0.47
-4.51
-9.63
-14.57
-19.15
-23.39
-27.46
-31.57
-35.95
-40.77
-46.07
-51.66
-56.99
-61.11
-62.80
-60.87
-54.61
-44.08
-30.30
-14.93
0.16
13.41
23.89
31.40
36.20
38.73
39.44
38.63
36.57
33.61
30.21
26.91
24.22
22.50
21.86
22.20
23.21
24.50
25.65
26.30
26.14
25.06
23.10
20.42
17.25
13.79
10.12
6.22
2.12
-2.05
-6.01
-9.52
-12.46
-14.93
-17.23
-19.67
-22.48
-25.73
-29.43
-33.44
-37.47
-40.86
-42.58
-41.36
-36.03
-26.02
-11.59
6.08
25.16
43.43
58.65
68.89
72.83
69.99
60.84
46.77
29.77
12.10
-4.13
-17.28
-26.34
-31.09
-32.00
-30.16
-26.91
-23.50
-20.74
-18.78
-17.29
-15.68
-13.53
-10.81
-7.91
-5.46
-4.12
-4.31
-6.09
-9.18
-13.07
-17.26
-21.37
-25.27
-29.02
-32.73
-36.60
-40.80
-45.54
-50.92
-56.72
-62.25
-66.30
-67.44
-64.49
-57.02
-45.56
-31.52
-16.69
-2.71
9.27
18.68
25.35
29.37
30.90
30.25
27.91
24.54
20.92
17.80
15.71
14.92
15.37
16.71
18.49
20.21
21.56
22.41
22.88
23.05
22.91
22.22
20.59
17.68
13.42
8.11
2.29
-3.45
-8.70
-13.38
-17.72
-22.04
-26.67
-31.86
-37.68
-44.09
-50.79
-57.04
-61.77
-63.63
-61.46
-54.69
-43.68
-29.63
-14.29
0.62
13.78
24.50
32.55
37.99
40.97
41.74
40.68
38.39
35.59
32.95
30.94
29.72
29.25
29.28
29.64
30.16
30.75
31.30
31.71
31.85
31.53
30.53
28.59
25.49
21.12
15.61
9.36
2.90
-3.22
-8.71
-13.59
-18.19
-22.94
-28.27
-34.46
-41.49
-49.08
-56.55
-62.79
-66.40
-65.99
-60.62
-50.25
-35.88
-19.28
-2.55
12.53
24.83
33.94
39.91
43.02
43.68
42.39
39.82
36.83
34.22
32.54
31.96
32.25
32.95
33.63
34.01
34.05
33.84
33.51
33.06
32.36
31.19
29.27
26.39
22.43
17.37
11.37
4.70
-2.30
-9.18
-15.50
-20.99
-25.59
-29.62
-33.65
-38.34
-44.14
-50.89
-57.73
-63.23
-65.72
-63.93
-57.30
-46.27
-32.06
-16.42
-1.10
12.46
23.39
31.35
36.43
38.96
39.31
37.90
35.15
31.55
27.72
24.30
21.84
20.60
20.49
21.04
21.71
22.01
21.73
20.99
19.99
18.97
17.94
16.68
14.83
12.03
8.10
3.10
-2.62
-8.53
-14.09
-18.88
-22.77
-25.85
-28.53
-31.36
-34.91
-39.58
-45.38
-51.71
-57.37
-60.77
-60.36
-55.16
-45.19
-31.51
-15.91
-0.40
13.43
24.67
33.11
39.00
42.67
44.31
44.01
41.90
38.37
34.15
30.22
27.43
26.25
26.48
27.47
28.35
28.49
27.70
26.30
24.78
23.50
22.45
21.23
19.23
15.94
11.20
5.28
-1.20
-7.52
-13.11
-17.72
-21.52
-24.95
-28.63
-33.07
-38.54
-44.94
-51.78
-58.19
-62.99
-64.90
-62.85
-56.33
-45.58
-31.73
-16.40
-1.35
12.02
22.90
31.05
36.60
39.76
40.78
39.88
37.45
34.08
30.52
27.53
25.63
25.05
25.56
26.69
27.84
28.54
28.56
27.95
26.88
25.52
23.85
21.66
18.68
14.71
9.79
4.22
-1.60
-7.26
-12.55
-17.46
-22.15
-26.85
-31.72
-36.84
-42.21
-47.74
-53.27
-58.48
-62.75
-65.22
-64.84
-60.74
-52.58
-40.73
-26.37
-11.16
3.16
15.27
24.41
30.51
33.89
35.07
34.57
32.87
30.43
27.74
25.29
23.45
22.51
22.49
23.24
24.48
25.88
27.12
27.93
28.10
27.49
26.11
24.01
21.37
18.37
15.12
11.68
8.00
4.06
-0.18
-4.63
-9.21
-13.82
-18.41
-22.96
-27.44
-31.83
-36.12
-40.50
-45.24
-50.58
-56.36
-61.71
-65.18
-65.06
-60.17
-50.36
-36.70
-21.16
-5.87
7.49
18.11
25.90
31.16
34.24
35.36
34.66
32.43
29.18
25.74
23.03
21.73
22.04
23.63
25.77
27.69
28.87
29.17
28.78
27.96
26.89
25.53
23.78
21.47
18.49
14.82
10.46
5.52
0.21
-5.21
-10.46
-15.39
-20.02
-24.55
-29.20
-34.20
-39.65
-45.58
-51.85
-57.98
-63.18
-66.28
-66.06
-61.58
-52.64
-39.94
-24.94
-9.46
4.82
16.74
25.75
31.75
34.96
35.68
34.33
31.45
27.74
24.06
21.19
19.64
19.54
20.59
22.21
23.79
24.94
25.50
25.56
25.23
24.54
23.35
21.46
18.63
14.79
10.05
4.70
-0.87
-6.27
-11.22
-15.66
-19.75
-23.77
-28.04
-32.75
-37.95
-43.47
-48.97
-53.94
-57.62
-59.06
-57.31
-51.68
-42.08
-29.25
-14.57
0.19
13.44
24.02
31.47
35.77
37.29
36.50
33.99
30.39
26.39
22.69
19.82
18.14
17.62
18.03
18.89
19.66
19.92
19.46
18.39
16.99
15.51
13.98
12.14
9.59
5.98
1.31
-4.06
-9.61
-14.89
-19.68
-24.13
-28.57
-33.44
-39.04
-45.33
-51.90
-57.85
-61.96
-62.87
-59.58
-51.77
-39.93
-25.32
-9.53
5.81
19.42
30.37
38.16
42.60
43.93
42.72
39.81
36.16
32.54
29.48
27.18
25.66
24.88
24.83
25.51
26.74
28.19
29.37
29.80
29.17
27.51
25.01
21.93
18.49
14.68
10.48
5.84
0.89
-4.16
-9.10
-13.82
-18.33
-22.74
-27.15
-31.62
-36.30
-41.37
-47.04
-53.34
-59.86
-65.60
-69.14
-68.98
-64.09
-54.29
-40.42
-24.10
-7.28
8.28
21.34
31.31
38.10
41.95
43.23
42.36
39.85
36.34
32.59
29.40
27.36
26.73
27.36
28.78
30.37
31.53
31.92
31.41
30.11
28.25
26.01
23.51
20.72
17.52
13.73
9.25
4.12
-1.48
-7.26
-12.92
-18.19
-22.94
-27.13
-30.90
-34.54
-38.53
-43.29
-48.93
-54.92
-60.00
-62.47
-60.70
-53.91
-42.44
-27.87
-12.28
2.37
14.84
24.76
32.21
37.44
40.42
41.05
39.28
35.54
30.68
25.78
21.84
19.36
18.36
18.43
19.09
19.93
20.70
21.29
21.62
21.61
21.13
20.06
18.25
15.61
12.09
7.70
2.60
-2.93
-8.50
-13.76
-18.44
-22.57
-26.36
-30.27
-34.83
-40.45
-47.29
-54.87
-62.12
-67.42
-69.07
-65.79
-57.29
-44.36
-28.64
-12.13
3.44
16.90
27.74
35.85
41.29
44.13
44.50
42.74
39.49
35.63
32.12
29.68
28.62
28.78
29.68
30.78
31.80
32.75
33.82
35.09
36.32
37.00
36.49
34.32
30.50
25.42
19.71
13.94
8.40
3.04
-2.35
-7.93
-13.65
-19.27
-24.43
-28.92
-32.80
-36.43
-40.37
-45.11
-50.79
-57.09
-63.08
-67.50
-68.98
-66.41
-59.28
-47.84
-33.14
-16.80
-0.62
13.84
25.53
34.07
39.62
42.54
43.30
42.29
39.92
36.76
33.48
30.71
28.87
28.04
28.02
28.52
29.30
30.26
31.29
32.17
32.57
32.16
30.79
28.56
25.79
22.75
19.45
15.67
11.07
5.50
-0.81
-7.31
-13.32
-18.39
-22.44
-25.82
-29.07
-32.76
-37.26
-42.66
-48.79
-55.07
-60.56
-64.00
-64.05
-59.72
-50.74
-37.79
-22.35
-6.26
8.79
21.67
31.77
38.94
43.21
44.71
43.72
40.81
36.82
32.69
29.22
26.84
25.66
25.52
26.15
27.27
28.60
29.84
30.74
31.18
31.14
30.77
30.19
29.38
28.18
26.31
23.54
19.89
15.56
10.87
6.11
1.36
-3.58
-9.02
-15.31
-22.66
-31.08
-40.31
-49.75
-58.50
-65.41
-69.29
-69.16
-64.59
-55.86
-43.93
-30.25
-16.41
-3.77
6.72
14.61
19.81
22.51
22.99
21.62
18.85
15.26
11.55
8.41
6.41
5.87
6.76
8.75
11.30
13.87
16.05
17.66
18.72
19.36
19.65
19.53
18.73
16.95
14.01
10.00
5.38
0.82
-3.06
-5.92
-7.89
-9.42
-11.11
-13.47
-16.81
-21.07
-25.92
-30.49
-33.43
-32.94
-27.36
-15.93
0.45
18.94
35.41
45.66
46.96
38.95
23.65
4.48
-14.93
-31.81
-44.57
-52.63
-56.02
-55.15
-50.85
-44.39
-37.27
-30.80
-25.65
-21.69
-18.14
-14.14
-9.19
-3.44
2.46
7.67
11.49
13.53
13.68
12.03
8.73
4.09
-1.51
-7.54
-13.47
-18.84
-23.52
-27.71
-31.94
-36.93
-43.25
-51.03
-59.75
-68.21
-74.75
-77.60
-75.38
-67.45
-54.24
-37.15
-18.26
0.19
16.39
29.27
38.60
44.66
47.99
49.05
48.17
45.71
42.28
38.69
35.81
34.26
34.14
35.08
36.39
37.46
37.93
37.83
37.36
36.75
36.07
35.10
33.44
30.61
26.29
20.43
13.40
5.86
-1.47
-8.07
-13.83
-19.10
-24.53
-30.76
-38.20
-46.79
-55.90
-64.30
-70.40
-72.59
-69.67
-61.29
-48.13
-31.87
-14.61
1.61
15.39
26.05
33.58
38.27
40.45
40.41
38.47
35.09
31.01
27.06
23.99
22.18
21.64
21.98
22.68
23.25
23.45
23.23
22.67
21.87
20.77
19.15
16.72
13.24
8.59
2.94
-3.38
-9.87
-16.01
-21.46
-26.18
-30.42
-34.76
-39.88
-46.24
-53.83
-61.90
-69.06
-73.52
-73.68
-68.56
-58.16
-43.49
-26.24
-8.44
8.12
22.12
32.87
40.24
44.42
45.83
44.90
42.24
38.56
34.72
31.57
29.76
29.50
30.51
32.14
33.55
34.13
33.60
32.16
30.27
28.40
26.77
25.12
22.94
19.63
14.88
8.85
2.15
-4.48
-10.47
-15.64
-20.23
-24.73
-29.72
-35.61
-42.62
-50.59
-58.80
-66.01
-70.58
-70.86
-65.77
-55.22
-40.23
-22.66
-4.67
11.93
25.98
37.05
45.14
50.52
53.38
53.99
52.70
50.13
47.11
44.54
43.07
42.93
43.91
45.46
47.04
48.28
49.06
49.42
49.38
48.86
47.69
45.70
42.82
39.15
34.91
30.34
25.65
20.91
16.05
10.91
5.33
-0.76
-7.27
-13.91
-20.31
-26.13
-31.19
-35.61
-39.82
-44.43
-50.02
-56.86
-64.57
-71.98
-77.31
-78.59
-74.33
-64.13
-48.96
-30.82
-12.18
4.81
18.85
29.54
37.10
41.89
44.16
43.98
41.50
37.19
31.87
26.65
22.50
20.04
19.34
20.02
21.45
22.98
24.17
24.78
24.74
24.03
22.66
20.63
17.90
14.45
10.28
5.39
-0.15
-6.12
-12.20
-18.01
-23.23
-27.76
-31.70
-35.39
-39.18
-43.47
-48.52
-54.52
-61.40
-68.66
-75.27
-79.64
-80.00
-75.03
-64.40
-49.04
-30.92
-12.37
4.59
18.75
29.71
37.65
42.87
45.63
46.09
44.57
41.63
38.10
34.84
32.49
31.31
31.16
31.64
32.40
33.20
33.99
34.73
35.20
35.07
33.89
31.37
27.52
22.72
17.47
12.19
7.07
1.99
-3.22
-8.73
-14.42
-20.05
-25.30
-30.00
-34.25
-38.36
-42.83
-48.09
-54.29
-61.08
-67.49
-72.00
-72.94
-68.94
-59.50
-45.27
-27.82
-9.25
8.48
24.03
36.86
46.97
54.53
59.68
62.38
62.70
61.07
58.36
55.79
54.53
55.33
58.13
62.09
65.64
67.00
64.57
57.43
45.58
29.98
12.26
-5.62
-21.89
-35.28
-45.18
-51.59
-55.02
-56.24
-56.10
-55.36
-54.50
-53.73
-53.01
-52.20
-51.24
-50.33
-49.90
-50.52
-52.68
-56.55
-61.76
-67.33
-71.76
-73.32
-70.51
-62.57
-49.76
-33.41
-15.47
1.97
17.25
29.40
38.16
43.76
46.60
47.15
45.85
43.25
39.98
36.80
34.35
33.06
33.01
33.95
35.48
37.22
38.88
40.32
41.45
42.10
42.06
41.08
38.97
35.73
31.51
26.62
21.35
15.98
10.73
5.68
0.81
-4.03
-9.07
-14.63
-20.90
-27.94
-35.63
-43.68
-51.76
-59.36
-65.84
-70.23
-71.47
-68.55
-61.01
-49.21
-34.33
-18.15
-2.52
11.11
21.95
29.85
35.01
37.69
38.06
36.33
32.80
28.13
23.23
19.14
16.66
16.08
17.14
19.11
21.14
22.59
23.13
22.83
21.91
20.61
19.01
17.08
14.68
11.75
8.18
4.03
-0.62
-5.59
-10.66
-15.58
-20.17
-24.45
-28.64
-33.15
-38.45
-44.87
-52.38
-60.43
-67.89
-73.17
-74.62
-71.01
-62.02
-48.48
-32.15
-15.21
0.40
13.48
23.69
31.25
36.60
40.00
41.52
41.17
39.15
36.02
32.52
29.46
27.43
26.74
27.34
28.93
31.00
32.96
34.29
34.67
34.05
32.59
30.55
28.05
25.06
21.37
16.81
11.42
5.52
-0.43
-6.06
-11.23
-16.09
-20.97
-26.18
-31.87
-38.04
-44.59
-51.44
-58.38
-64.94
-70.27
-73.08
-71.97
-65.88
-54.60
-38.98
-20.79
-2.23
14.69
28.66
39.17
46.37
50.73
52.70
52.68
50.98
48.09
44.60
41.21
38.53
36.93
36.46
36.87
37.77
38.81
39.74
40.42
40.75
40.59
39.69
37.83
34.88
30.93
26.26
21.16
15.85
10.35
4.59
-1.50
-7.82
-14.12
-19.99
-25.07
-29.24
-32.64
-35.75
-39.21
-43.67
-49.43
-56.20
-62.89
-67.71
-68.71
-64.41
-54.52
-40.05
-23.13
-6.22
8.64
20.36
28.78
34.35
37.62
38.89
38.24
35.73
31.72
26.99
22.60
19.54
18.34
18.89
20.46
22.09
22.95
22.63
21.30
19.45
17.60
15.97
14.43
12.49
9.61
5.40
-0.10
-6.45
-12.94
-18.85
-23.81
-27.79
-31.23
-34.72
-38.85
-44.03
-50.38
-57.54
-64.69
-70.53
-73.42
-71.87
-64.97
-52.93
-37.10
-19.58
-2.61
12.10
23.70
32.15
37.80
41.10
42.29
41.56
39.21
35.77
32.02
28.80
26.76
26.10
26.62
27.79
28.96
29.59
29.43
28.54
27.17
25.62
23.99
22.16
19.76
16.39
11.85
6.28
0.11
-6.08
-11.88
-17.14
-22.01
-26.77
-31.66
-36.84
-42.41
-48.43
-54.88
-61.41
-67.24
-71.04
-71.34
-66.85
-57.13
-42.75
-25.23
-6.65
11.01
26.24
38.24
46.87
52.44
55.45
56.43
55.94
54.48
52.52
50.49
48.75
47.60
47.31
48.04
49.96
53.06
57.18
61.75
65.68
67.34
64.83
56.61
42.10
22.17
-1.04
-24.68
-46.10
-63.50
-76.22
-84.47
-88.98
-90.65
-90.39
-89.21
-88.17
-88.24
-89.97
-93.20
-96.95
-99.65
-99.57
-95.32
-86.24
-72.63
-55.73
-37.30
-19.23
-3.09
10.19
20.25
27.16
31.14
32.47
31.54
28.90
25.37
21.89
19.36
18.37
19.12
21.33
24.50
27.99
31.22
33.76
35.37
35.94
35.51
34.13
31.88
28.79
24.92
20.33
15.24
9.89
4.54
-0.62
-5.59
-10.47
-15.47
-20.84
-26.84
-33.70
-41.56
-50.21
-58.92
-66.36
-70.87
-70.87
-65.42
-54.60
-39.53
-22.02
-4.10
12.51
26.63
37.64
45.37
49.95
51.67
51.06
48.80
45.75
42.71
40.30
38.79
38.17
38.24
38.71
39.37
39.99
40.32
40.09
39.08
37.21
34.60
31.50
28.14
24.52
20.39
15.40
9.32
2.28
-5.28
-12.67
-19.34
-25.00
-29.76
-34.06
-38.49
-43.63
-49.84
-57.18
-65.14
-72.67
-78.24
-80.11
-76.85
-67.79
-53.37
-35.03
-14.91
4.84
22.52
37.19
48.62
56.95
62.45
65.31
65.74
64.08
60.94
57.12
53.43
50.49
48.58
47.68
47.63
48.19
49.10
50.07
50.71
50.54
49.15
46.28
41.95
36.45
30.20
23.65
17.15
10.84
4.70
-1.44
-7.74
-14.23
-20.73
-26.93
-32.53
-37.49
-42.02
-46.59
-51.74
-57.92
-65.18
-73.06
-80.52
-86.01
-87.76
-84.32
-74.98
-60.15
-41.35
-20.77
-0.76
16.79
30.68
40.44
46.15
48.25
47.48
44.75
41.11
37.53
34.75
33.15
32.73
33.21
34.19
35.35
36.44
37.37
38.01
38.24
37.85
36.61
34.33
30.90
26.44
21.19
15.54
9.82
4.22
-1.30
-6.93
-12.86
-19.12
-25.42
-31.29
-36.22
-39.95
-42.66
-44.94
-47.61
-51.48
-57.02
-64.13
-72.10
-79.58
-84.77
-85.81
-81.32
-70.83
-55.04
-35.73
-15.24
4.12
20.64
33.43
42.27
47.41
49.31
48.53
45.81
42.07
38.28
35.31
33.66
33.34
34.00
35.14
36.33
37.35
38.15
38.77
39.09
38.89
37.89
35.80
32.52
28.17
23.06
17.62
12.22
7.13
2.37
-2.20
-6.73
-11.28
-15.72
-19.76
-23.11
-25.67
-27.63
-29.51
-32.00
-35.80
-41.32
-48.42
-56.28
-63.38
-67.85
-67.91
-62.47
-51.51
-36.11
-18.17
0.15
17.04
31.30
42.48
50.60
55.92
58.71
59.16
57.54
54.29
50.19
46.16
43.01
41.26
40.88
41.44
42.34
43.09
43.52
43.65
43.59
43.22
42.24
40.18
36.73
31.84
25.86
19.30
12.72
6.47
0.63
-4.91
-10.41
-16.05
-21.89
-27.76
-33.40
-38.53
-42.96
-46.78
-50.30
-54.07
-58.61
-64.20
-70.45
-76.30
-80.03
-79.84
-74.48
-63.75
-48.68
-31.21
-13.56
2.36
15.36
25.00
31.41
34.96
36.12
35.38
33.21
30.10
26.52
22.95
19.83
17.60
16.57
16.81
18.09
19.90
21.60
22.68
22.77
21.79
19.75
16.77
13.05
8.88
4.61
0.52
-3.28
-6.99
-10.99
-15.63
-20.98
-26.74
-32.35
-37.31
-41.44
-45.03
-48.76
-53.32
-59.04
-65.60
-71.92
-76.41
-77.42
-73.67
-64.76
-51.25
-34.51
-16.40
1.21
16.83
29.50
38.87
44.99
48.17
48.85
47.59
45.04
41.97
39.06
36.85
35.58
35.16
35.29
35.54
35.63
35.40
34.84
34.00
32.92
31.60
29.98
27.93
25.31
21.97
17.81
12.85
7.27
1.34
-4.59
-10.20
-15.27
-19.78
-23.85
-27.77
-31.97
-36.84
-42.71
-49.52
-56.74
-63.29
-67.76
-68.70
-65.12
-56.77
-44.22
-28.81
-12.22
3.88
18.12
29.55
37.65
42.28
43.59
42.03
38.28
33.29
28.02
23.39
20.01
18.09
17.46
17.66
18.21
18.70
18.94
18.83
18.37
17.46
15.91
13.52
10.14
5.77
0.54
-5.24
-11.27
-17.20
-22.79
-27.87
-32.47
-36.76
-41.08
-45.84
-51.34
-57.57
-63.96
-69.39
-72.37
-71.42
-65.60
-54.87
-40.25
-23.50
-6.63
8.68
21.42
31.24
38.26
42.66
44.59
44.14
41.55
37.43
32.70
28.34
25.13
23.29
22.55
22.35
22.14
21.68
21.04
20.48
20.15
19.94
19.48
18.22
15.71
11.81
6.69
0.81
-5.30
-11.22
-16.73
-21.79
-26.47
-30.93
-35.41
-40.24
-45.79
-52.24
-59.37
-66.30
-71.58
-73.52
-70.71
-62.61
-49.71
-33.51
-15.98
0.90
15.61
27.32
35.80
41.24
44.03
44.58
43.37
40.87
37.67
34.40
31.63
29.73
28.79
28.60
28.82
29.13
29.32
29.31
29.05
28.45
27.28
25.25
22.13
17.81
12.36
6.09
-0.59
-7.19
-13.33
-18.78
-23.59
-28.10
-32.82
-38.36
-45.21
-53.44
-62.61
-71.60
-78.72
-82.07
-80.06
-71.99
-58.35
-40.80
-21.65
-3.21
12.73
25.25
34.18
39.86
42.82
43.58
42.66
40.59
37.94
35.28
33.11
31.76
31.40
31.95
33.18
34.71
36.08
36.88
36.83
35.90
34.17
31.83
28.98
25.55
21.35
16.16
9.92
2.86
-4.56
-11.83
-18.53
-24.54
-29.98
-35.16
-40.49
-46.37
-53.13
-60.80
-68.99
-76.65
-82.18
-83.74
-79.84
-69.96
-54.78
-36.14
-16.42
2.15
17.98
30.35
39.22
44.87
47.63
47.80
45.72
41.93
37.31
32.88
29.62
28.10
28.38
29.98
32.13
34.06
35.29
35.65
35.26
34.35
33.04
31.23
28.66
25.01
20.07
13.93
6.87
-0.60
-8.00
-14.96
-21.26
-26.92
-32.11
-37.18
-42.59
-48.81
-56.15
-64.46
-72.90
-79.91
-83.55
-82.10
-74.68
-61.60
-44.34
-24.98
-5.63
12.05
27.00
38.67
46.81
51.42
52.76
51.49
48.56
45.05
41.87
39.57
38.23
37.68
37.67
38.01
38.61
39.37
40.10
40.52
40.34
39.33
37.36
34.42
30.56
25.89
20.59
14.81
8.70
2.33
-4.27
-10.98
-17.61
-23.83
-29.34
-34.05
-38.21
-42.49
-47.72
-54.49
-62.67
-71.19
-78.11
-81.20
-78.60
-69.50
-54.51
-35.40
-14.64
5.39
22.86
36.77
46.82
53.14
56.12
56.28
54.31
50.99
47.18
43.60
40.81
39.09
38.50
38.90
40.08
41.74
43.51
45.01
45.80
45.51
43.97
41.17
37.37
32.99
28.44
23.94
19.47
14.75
9.43
3.29
-3.58
-10.72
-17.53
-23.49
-28.41
-32.53
-36.37
-40.56
-45.58
-51.67
-58.80
-66.67
-74.58
-81.36
-85.43
-85.10
-79.11
-67.18
-50.28
-30.49
-10.36
7.86
22.73
33.81
41.34
45.84
47.79
47.60
45.67
42.61
39.19
36.22
34.27
33.53
33.79
34.61
35.59
36.51
37.31
38.05
38.63
38.74
37.93
35.79
32.17
27.33
21.86
16.37
11.27
6.54
1.86
-3.18
-8.78
-14.77
-20.69
-26.05
-30.63
-34.54
-38.23
-42.28
-47.23
-53.38
-60.64
-68.32
-75.16
-79.42
-79.34
-73.65
-62.12
-45.72
-26.40
-6.50
11.90
27.35
39.20
47.35
52.06
53.66
52.62
49.62
45.54
41.41
38.13
36.29
35.96
36.79
38.22
39.64
40.72
41.35
41.61
41.54
41.04
39.84
37.68
34.44
30.26
25.51
20.61
15.90
11.48
7.22
2.86
-1.75
-6.62
-11.61
-16.47
-21.03
-25.20
-29.03
-32.60
-36.03
-39.55
-43.47
-48.17
-53.85
-60.29
-66.63
-71.32
-72.51
-68.62
-58.94
-43.94
-25.19
-4.90
14.68
31.84
45.61
55.66
62.12
65.30
65.69
63.94
61.02
58.04
56.10
55.91
57.40
59.67
61.07
59.85
54.81
45.81
33.92
20.94
8.78
-1.26
-8.72
-13.97
-17.74
-20.76
-23.49
-26.07
-28.49
-30.72
-32.77
-34.68
-36.50
-38.23
-39.85
-41.32
-42.59
-43.70
-44.80
-46.27
-48.55
-52.20
-57.50
-64.30
-71.76
-78.44
-82.53
-82.33
-76.75
-65.73
-50.35
-32.50
-14.35
2.25
16.12
26.85
34.51
39.33
41.54
41.35
39.15
35.58
31.53
27.92
25.45
24.42
24.73
25.96
27.60
29.19
30.41
31.10
31.24
30.91
30.17
28.98
27.25
24.82
21.60
17.59
12.96
7.93
2.72
-2.51
-7.63
-12.57
-17.30
-21.82
-26.19
-30.55
-35.04
-39.77
-44.83
-50.26
-56.00
-61.82
-67.12
-70.85
-71.68
-68.38
-60.22
-47.52
-31.57
-14.39
1.94
15.89
26.75
34.59
39.88
43.12
44.61
44.45
42.77
39.92
36.49
33.22
30.73
29.32
28.97
29.44
30.39
31.56
32.71
33.61
34.01
33.65
32.31
29.98
26.76
22.94
18.82
14.60
10.40
6.10
1.54
-3.47
-8.95
-14.73
-20.43
-25.62
-30.07
-33.88
-37.47
-41.47
-46.45
-52.58
-59.42
-65.92
-70.49
-71.53
-67.86
-59.20
-46.28
-30.66
-14.20
1.35
14.75
25.34
32.80
37.05
38.14
36.39
32.49
27.50
22.61
18.79
16.57
16.02
16.80
18.36
20.15
21.67
22.58
22.68
21.97
20.64
18.93
17.06
15.06
12.76
9.90
6.28
1.92
-2.94
-7.89
-12.60
-16.84
-20.62
-24.09
-27.45
-30.95
-34.85
-39.35
-44.56
-50.30
-55.94
-60.32
-61.99
-59.52
-52.02
-39.51
-23.04
-4.48
14.01
30.49
43.67
53.00
58.62
61.09
61.28
60.22
58.86
58.00
58.00
58.55
58.74
57.31
53.18
45.89
35.86
24.25
12.54
2.02
-6.59
-13.12
-17.78
-20.90
-22.75
-23.54
-23.55
-23.22
-23.04
-23.52
-24.91
-27.18
-30.05
-33.11
-36.06
-38.85
-41.78
-45.40
-50.33
-56.98
-65.32
-74.61
-83.48
-90.09
-92.54
-89.41
-80.20
-65.59
-47.31
-27.70
-9.04
6.98
19.61
28.94
35.51
39.88
42.36
43.08
42.18
40.07
37.45
35.19
34.04
34.37
36.12
38.83
41.84
44.45
46.17
46.73
46.11
44.52
42.17
39.26
35.77
31.55
26.32
19.88
12.31
4.04
-4.21
-11.71
-17.94
-22.87
-26.97
-31.01
-35.80
-41.90
-49.48
-58.15
-67.00
-74.58
-79.15
-79.04
-73.20
-61.66
-45.65
-27.24
-8.74
7.93
21.65
32.01
39.01
42.81
43.60
41.71
37.80
32.84
27.95
24.08
21.77
21.04
21.56
22.81
24.28
25.63
26.68
27.40
27.83
27.92
27.55
26.42
24.20
20.62
15.58
9.25
2.05
-5.37
-12.41
-18.63
-23.95
-28.66
-33.33
-38.65
-45.24
-53.32
-62.53
-71.77
-79.24
-82.89
-80.94
-72.49
-57.93
-38.88
-17.73
3.07
21.55
36.59
47.81
55.32
59.45
60.69
59.65
57.10
53.92
50.89
48.62
47.42
47.38
48.47
50.59
53.52
56.90
60.13
62.50
63.30
62.05
58.69
53.67
47.79
41.91
36.65
32.02
27.24
21.10
12.28
0.02
-15.41
-32.75
-50.08
-65.57
-78.03
-87.30
-94.09
-99.57
-104.72
-109.85
-114.36
-116.90
-115.77
-109.53
-97.55
-80.24
-59.01
-36.03
-13.60
6.29
22.32
33.96
41.40
45.22
46.26
45.30
43.12
40.36
37.67
35.65
34.80
35.42
37.37
40.25
43.40
46.22
48.33
49.60
50.04
49.70
48.50
46.28
42.92
38.36
32.71
26.20
19.17
11.95
4.88
-1.77
-7.87
-13.44
-18.77
-24.26
-30.25
-36.87
-44.04
-51.53
-59.21
-67.09
-75.10
-82.75
-88.85
-91.56
-88.92
-79.68
-63.90
-43.15
-20.08
2.46
22.14
37.67
48.71
55.55
58.72
58.90
56.80
53.17
48.85
44.63
41.11
38.69
37.57
37.72
38.96
40.96
43.26
45.34
46.73
47.10
46.28
44.22
40.93
36.52
31.22
25.33
19.19
13.07
7.07
1.10
-4.96
-11.20
-17.54
-23.76
-29.64
-35.10
-40.36
-45.93
-52.45
-60.27
-69.17
-78.03
-84.91
-87.61
-84.35
-74.51
-58.96
-39.73
-19.34
-0.05
16.67
30.14
40.27
47.21
51.14
52.34
51.24
48.56
45.18
42.00
39.71
38.58
38.54
39.23
40.24
41.25
42.19
43.08
43.94
44.59
44.60
43.49
40.90
36.87
31.79
26.29
20.89
15.79
10.78
5.47
-0.46
-7.06
-14.03
-20.96
-27.46
-33.38
-38.83
-44.06
-49.41
-55.24
-61.93
-69.70
-78.40
-87.15
-94.28
-97.61
-95.08
-85.57
-69.34
-48.09
-24.43
-1.12
19.63
36.49
49.02
57.37
61.97
63.42
62.41
59.76
56.37
53.13
50.73
49.53
49.54
50.48
51.91
53.43
54.75
55.75
56.36
56.47
55.86
54.22
51.29
46.92
41.21
34.53
27.37
20.26
13.50
7.14
0.93
-5.54
-12.60
-20.26
-28.19
-35.76
-42.42
-47.89
-52.28
-56.10
-59.99
-64.58
-70.24
-76.95
-84.20
-90.83
-95.15
-95.24
-89.52
-77.37
-59.52
-37.97
-15.44
5.44
22.82
35.94
44.94
50.40
52.97
53.11
51.18
47.66
43.26
38.88
35.41
33.38
32.86
33.52
34.83
36.30
37.63
38.65
39.18
39.01
37.86
35.53
32.00
27.46
22.18
16.43
10.34
3.96
-2.68
-9.44
-16.07
-22.28
-27.87
-32.88
-37.60
-42.52
-48.14
-54.84
-62.57
-70.69
-77.93
-82.43
-82.35
-76.36
-64.22
-46.99
-26.78
-6.14
12.65
28.05
39.41
46.82
50.77
51.82
50.58
47.59
43.46
38.88
34.54
31.05
28.82
27.94
28.14
28.93
29.70
30.01
29.62
28.57
27.03
25.14
22.91
20.15
16.60
12.07
6.52
0.16
-6.63
-13.38
-19.69
-25.34
-30.34
-34.92
-39.40
-44.12
-49.41
-55.53
-62.57
-70.37
-78.21
-84.75
-88.20
-86.80
-79.42
-66.01
-47.83
-27.02
-6.03
13.03
28.79
40.63
48.56
52.90
54.14
52.93
50.04
46.34
42.69
39.75
37.88
37.09
37.14
37.63
38.20
38.63
38.82
38.81
38.55
37.88
36.52
34.11
30.48
25.69
20.09
14.07
7.98
1.90
-4.28
-10.76
-17.57
-24.54
-31.29
-37.54
-43.20
-48.53
-54.05
-60.42
-68.16
-77.34
-87.37
-96.78
-103.52
-105.35
-100.65
-89.01
-71.54
-50.68
-29.36
-10.22
5.15
16.35
23.96
28.91
31.97
33.49
33.64
32.56
30.77
29.16
28.69
30.01
33.09
37.17
41.10
43.82
44.81
44.20
42.64
40.84
39.25
37.85
36.21
33.73
29.89
24.49
17.78
10.33
2.86
-4.10
-10.32
-16.02
-21.67
-27.90
-35.18
-43.71
-53.26
-63.13
-72.03
-78.30
-80.19
-76.35
-66.44
-51.31
-32.94
-13.83
3.75
18.25
29.09
36.43
40.72
42.37
41.65
38.84
34.49
29.51
25.05
22.14
21.32
22.44
24.76
27.24
28.99
29.58
29.10
27.94
26.51
24.94
22.97
20.03
15.59
9.40
1.71
-6.79
-15.15
-22.54
-28.53
-33.27
-37.32
-41.52
-46.67
-53.31
-61.56
-70.96
-80.40
-88.22
-92.45
-91.25
-83.60
-69.59
-50.61
-28.93
-7.06
12.90
29.72
42.95
52.74
59.35
63.04
64.06
62.74
59.71
55.85
52.07
49.17
47.61
47.44
48.38
49.93
51.46
52.50
52.67
51.83
50.01
47.30
43.79
39.53
34.51
28.76
22.44
15.74
8.95
2.23
-4.28
-10.60
-16.74
-22.76
-28.81
-35.08
-41.81
-49.21
-57.40
-66.31
-75.57
-84.42
-91.54
-95.24
-93.72
-85.68
-70.87
-50.46
-26.91
-3.27
17.68
34.19
45.75
52.87
56.52
57.64
56.94
54.92
52.06
48.94
46.23
44.48
43.97
44.60
45.97
47.59
48.98
49.81
49.83
48.88
46.82
43.55
39.05
33.53
27.34
20.93
14.71
8.84
3.19
-2.59
-8.83
-15.61
-22.66
-29.37
-35.18
-39.74
-43.24
-46.26
-49.64
-54.19
-60.44
-68.33
-77.10
-85.22
-90.61
-91.15
-85.32
-72.81
-54.78
-33.53
-11.77
8.14
24.67
37.19
45.67
50.33
51.45
49.50
45.22
39.75
34.40
30.32
28.18
28.02
29.31
31.22
32.97
34.07
34.37
34.01
33.19
32.04
30.53
28.53
25.86
22.39
18.13
13.16
7.63
1.64
-4.66
-11.18
-17.77
-24.19
-30.16
-35.44
-39.99
-44.14
-48.59
-54.19
-61.57
-70.57
-79.98
-87.67
-91.12
-88.28
-78.40
-62.31
-42.18
-20.83
-0.83
16.13
29.37
38.96
45.29
48.75
49.64
48.32
45.42
41.81
38.44
36.01
34.82
34.71
35.30
36.21
37.22
38.26
39.26
39.96
39.93
38.66
35.84
31.46
25.91
19.74
13.47
7.38
1.38
-4.72
-11.13
-17.80
-24.40
-30.49
-35.75
-40.15
-44.01
-47.96
-52.68
-58.72
-66.26
-74.90
-83.58
-90.62
-94.03
-92.02
-83.61
-68.98
-49.53
-27.47
-5.22
15.20
32.49
46.02
55.74
61.89
64.96
65.63
64.72
63.15
61.71
60.92
60.94
61.64
62.74
63.99
65.18
66.28
67.27
68.15
68.75
68.72
67.63
65.03
60.79
55.04
48.28
41.10
33.96
26.98
19.96
12.60
4.75
-3.38
-11.27
-18.29
-24.04
-28.55
-32.28
-35.97
-40.36
-46.02
-53.17
-61.46
-69.95
-77.11
-81.12
-80.29
-73.69
-61.51
-45.15
-26.83
-8.95
6.57
18.74
27.35
32.77
35.40
35.57
33.46
29.35
23.77
17.60
11.90
7.63
5.37
5.13
6.41
8.41
10.33
11.68
12.28
12.27
11.76
10.78
9.10
6.44
2.55
-2.55
-8.61
-15.22
-21.95
-28.55
-34.88
-40.94
-46.71
-52.20
-57.43
-62.57
-67.96
-74.00
-80.95
-88.57
-95.95
-101.54
-103.58
-100.56
-91.82
-77.88
-60.14
-40.56
-21.02
-2.98
12.64
25.31
34.71
40.68
43.32
43.11
40.91
37.86
35.02
33.11
32.31
32.40
32.90
33.38
33.68
33.85
34.11
34.57
35.12
35.35
34.69
32.59
28.78
23.39
16.87
9.87
2.95
-3.57
-9.72
-15.77
-22.19
-29.38
-37.67
-47.08
-57.24
-67.19
-75.42
-80.08
-79.48
-72.70
-59.98
-42.74
-23.23
-3.86
13.42
27.42
37.74
44.55
48.23
49.24
48.08
45.35
41.76
38.03
34.86
32.67
31.63
31.58
32.17
33.00
33.73
34.14
34.12
33.64
32.67
31.18
29.14
26.47
23.08
18.83
13.62
7.43
0.43
-6.99
-14.32
-21.07
-26.99
-32.11
-36.83
-41.73
-47.40
-54.14
-61.77
-69.39
-75.50
-78.22
-75.85
-67.42
-53.15
-34.41
-13.45
7.24
25.59
40.31
50.97
57.80
61.37
62.31
61.20
58.61
55.07
51.27
47.85
45.41
44.22
44.21
44.92
45.68
45.90
45.31
44.03
42.44
40.88
39.45
37.83
35.50
31.96
27.08
21.21
15.08
9.44
4.79
1.12
-2.05
-5.42
-9.56
-14.69
-20.55
-26.48
-31.74
-35.77
-38.43
-40.10
-41.53
-43.66
-47.34
-53.08
-60.81
-69.71
-78.26
-84.42
-86.14
-81.86
-71.15
-54.84
-34.89
-13.78
6.14
23.19
36.58
46.22
52.43
55.55
55.91
53.86
49.97
45.17
40.57
37.29
35.94
36.55
38.56
41.12
43.43
45.05
45.95
46.36
46.53
46.48
45.96
44.54
41.82
37.59
32.01
25.50
18.69
12.24
6.59
1.90
-2.09
-5.84
-9.91
-14.61
-19.97
-25.66
-31.20
-36.10
-40.10
-43.23
-45.84
-48.47
-51.66
-55.84
-61.22
-67.58
-74.20
-79.79
-82.74
-81.51
-75.11
-63.51
-47.70
-29.46
-10.87
6.20
20.41
31.02
37.81
40.88
40.62
37.67
32.88
27.21
21.56
16.65
12.96
10.73
9.94
10.44
11.94
14.06
16.42
18.68
20.54
21.71
21.89
20.79
18.30
14.51
9.88
5.06
0.66
-3.03
-6.20
-9.37
-13.15
-17.95
-23.73
-29.94
-35.69
-40.26
-43.33
-45.26
-46.91
-49.44
-53.90
-60.71
-69.43
-78.65
-86.33
-90.26
-88.78
-81.23
-68.21
-51.44
-33.22
-15.69
-0.31
12.14
21.48
27.71
30.98
31.55
29.70
26.17
22.35
19.92
20.12
23.30
28.87
35.73
42.82
48.89
53.36
56.63
59.77
63.60
68.06
72.27
75.06
75.42
71.87
63.81
52.22
39.61
28.61
20.99
17.16
16.13
15.74
11.83
0.32
-20.67
-49.89
-83.86
-117.98
-147.70
-169.61
-173.66
-155.08
-118.52
-75.85
-37.97
-9.78
9.30
21.68
29.07
32.12
30.14
23.20
13.04
4.04
-0.36
0.92
6.43
13.56
20.21
25.59
28.13
27.56
24.96
21.95
20.47
23.14
31.88
47.09
66.70
85.94
100.75
109.17
108.46
98.58
81.34
58.81
32.70
4.40
-26.01
-57.63
-87.64
-112.91
-130.82
-140.12
-141.09
-134.52
-114.88
-82.05
-39.39
6.26
45.59
70.60
78.84
72.46
56.43
37.49
20.92
11.09
10.06
16.84
27.73
36.88
37.72
26.78
7.92
-13.81
-33.05
-45.39
-48.55
-42.10
-27.09
-5.74
18.83
41.95
56.48
57.92
49.79
35.91
19.72
3.41
-11.00
-22.61
-31.53
-38.59
-43.90
-47.25
-49.65
-52.70
-57.81
-64.97
-71.98
-74.51
-67.66
-47.87
-15.13
25.83
67.63
103.01
127.46
140.19
143.74
142.09
138.72
135.20
130.77
123.94
113.93
101.60
89.01
78.45
71.21
67.09
64.50
61.23
55.62
47.08
36.08
23.58
10.69
-1.55
-12.21
-20.70
-27.16
-32.65
-39.31
-49.86
-67.11
-93.02
-128.04
-170.65
-217.18
-262.13
-299.06
-322.01
-327.06
-313.72
-285.15
-247.23
-206.66
-168.84
-136.64
-110.20
-87.85
-67.43
-47.32
-26.83
-6.06
14.59
34.78
54.35
73.35
91.76
109.39
125.76
140.17
151.86
160.17
164.79
165.70
163.23
157.85
150.16
140.70
130.01
118.50
106.51
94.18
81.45
68.27
54.73
41.52
30.02
22.05
19.28
22.49
31.03
42.97
55.70
66.83
74.96
79.78
81.80
81.61
79.53
75.44
69.19
60.96
51.61
42.41
34.70
29.24
25.95
23.93
21.92
18.87
14.39
8.80
2.90
-2.58
-7.31
-11.62
-16.17
-21.72
-28.75
-37.38
-47.45
-58.62
-70.39
-81.89
-91.78
-98.20
-99.22
-93.42
-80.51
-61.70
-39.39
-16.50
4.37
21.52
34.34
42.94
47.76
49.16
47.49
43.19
37.08
30.32
24.18
19.62
16.97
15.93
15.67
15.30
14.15
11.92
8.72
4.81
0.42
-4.32
-9.45
-15.12
-21.49
-28.71
-36.84
-45.88
-55.65
-65.69
-75.15
-82.69
-86.73
-85.77
-78.98
-66.53
-49.70
-30.51
-11.13
6.63
21.71
33.69
42.63
48.73
52.16
53.10
51.85
48.95
45.24
41.67
39.12
38.08
38.47
39.71
40.91
41.36
40.82
39.55
38.18
37.14
36.35
35.07
32.24
27.04
19.32
9.81
-0.26
-9.58
-17.37
-23.63
-29.05
-34.73
-41.70
-50.66
-61.55
-73.61
-85.32
-94.67
-99.62
-98.59
-90.90
-77.04
-58.61
-37.84
-17.10
1.68
17.31
29.36
37.91
43.27
45.85
46.06
44.56
42.24
40.14
39.13
39.62
41.45
43.97
46.46
48.45
49.94
51.15
52.34
53.40
53.77
52.68
49.44
43.88
36.32
27.56
18.58
10.18
2.83
-3.33
-8.44
-12.79
-16.69
-20.53
-24.71
-29.56
-35.25
-41.66
-48.35
-54.75
-60.43
-65.29
-69.65
-74.14
-79.45
-86.03
-93.89
-102.54
-111.20
-119.11
-125.87
-131.57
-136.70
-141.92
-147.81
-154.76
-162.86
-171.84
-180.94
-188.71
-193.23
-192.42
-184.82
-170.24
-149.97
-126.45
-102.47
-80.36
-61.45
-46.29
-34.90
-27.18
-23.09
-22.45
-24.79
-29.09
-33.74
-36.56
-35.19
-27.65
-13.14
7.43
31.44
55.27
75.50
90.12
98.95
103.37
105.39
106.70
108.22
110.19
112.52
115.16
118.08
121.24
124.45
127.50
130.29
132.94
135.63
138.34
140.51
141.00
138.23
130.69
117.54
98.99
76.56
52.73
30.36
11.93
-1.19
-8.90
-12.21
-12.52
-11.00
-8.13
-3.84
2.21
10.15
19.65
30.05
40.60
50.68
59.87
67.83
74.10
78.19
79.76
78.86
76.13
72.61
69.45
67.43
66.76
67.06
67.58
67.64
66.80
65.01
62.54
59.87
57.51
55.98
55.71
57.08
60.36
65.69
73.05
82.12
92.36
102.97
113.06
121.80
128.71
133.62
136.65
137.97
137.48
134.68
128.67
118.55
103.66
83.91
59.74
32.06
2.23
-28.09
-56.94
-82.37
-102.82
-117.70
-127.50
-133.73
-138.26
-142.65
-147.61
-152.93
-157.85
-161.47
-163.22
-162.89
-160.66
-156.87
-151.91
-146.21
-140.24
-134.48
-129.33
-124.98
-121.21
-117.41
-112.65
-106.07
-97.17
-86.19
-74.04
-61.92
-50.88
-41.37
-33.13
-25.47
-17.76
-9.84
-2.21
4.20
8.51
10.18
9.36
6.58
2.49
-2.58
-8.72
-16.27
-25.37
-35.47
-45.14
-52.21
-54.51
-50.61
-40.50
-25.66
-8.62
7.87
21.74
32.01
38.92
43.53
47.32
51.69
57.62
65.27
73.78
81.29
85.40
84.05
76.31
62.99
46.45
29.88
16.20
7.09
2.57
1.09
0.29
-2.21
-8.13
-18.12
-31.76
-47.81
-64.68
-80.67
-94.22
-103.90
-108.57
-107.50
-100.70
-89.12
-74.58
-59.32
-45.46
-34.42
-26.73
-22.09
-19.64
-18.37
-17.40
-16.03
-13.83
-10.60
-6.33
-1.29
4.07
9.25
13.87
17.77
21.10
24.19
27.27
30.18
32.21
32.26
29.30
22.90
13.64
2.98
-7.24
-15.46
-20.97
-24.02
-25.67
-27.18
-29.58
-33.21
-37.64
-41.83
-44.53
-44.68
-41.69
-35.69
-27.30
-17.43
-6.98
3.32
12.82
20.88
26.88
30.31
31.03
29.41
26.35
22.98
20.38
19.29
20.01
22.37
25.90
29.90
33.67
36.60
38.39
39.00
38.50
36.95
34.21
30.08
24.40
17.18
8.75
-0.43
-10.01
-19.95
-30.44
-41.47
-52.44
-61.93
-68.27
-69.93
-66.23
-57.69
-46.00
-33.40
-21.93
-12.78
-6.15
-1.85
0.60
1.78
2.16
1.91
1.10
-0.23
-1.89
-3.48
-4.67
-4.84
-2.86
2.34
11.04
22.29
33.94
43.12
47.05
43.51
32.11
14.79
-4.93
-23.44
-38.13
-48.20
-54.58
-55.16
-50.09
-42.25
-35.22
-30.71
-27.95
-24.77
-19.67
-12.68
-6.29
-2.19
-1.55
-4.26
-9.43
-15.88
-22.00
-26.85
-30.21
-33.53
-37.38
-41.61
-44.90
-45.60
-42.26
-32.88
-16.78
5.02
28.38
49.76
66.36
77.40
83.50
86.63
91.17
100.72
116.79
136.12
155.05
169.74
178.09
179.74
166.61
136.81
94.79
60.71
38.82
27.80
20.85
15.99
13.60
15.16
22.80
36.73
55.72
75.81
95.51
114.57
132.90
147.76
154.09
147.62
126.93
95.97
61.51
33.15
18.34
19.95
34.78
56.34
78.61
92.28
92.40
79.32
59.03
37.04
14.73
-10.63
-40.12
-75.12
-113.44
-149.92
-180.03
-200.90
-212.55
-212.87
-201.20
-177.64
-143.66
-101.94
-56.06
-10.58
30.13
62.68
85.47
98.06
101.43
97.23
88.20
78.04
70.47
68.16
71.78
80.00
89.57
96.95
99.20
95.11
85.16
70.91
54.11
36.34
19.02
3.40
-9.23
-17.86
-22.06
-22.15
-19.30
-15.07
-11.05
-8.43
-8.11
-10.70
-16.65
-26.15
-39.03
-54.55
-71.32
-87.57
-101.52
-111.89
-118.12
-120.51
-119.94
-117.62
-114.79
-112.45
-111.34
-111.82
-113.80
-116.69
-119.39
-120.50
-118.79
-113.57
-105.00
-94.05
-82.05
-70.31
-59.70
-50.66
-43.33
-37.87
-34.68
-34.30
-37.26
-43.64
-52.81
-63.23
-72.64
-78.50
-78.60
-71.62
-57.41
-36.91
-11.86
15.72
43.87
70.98
95.82
117.54
135.64
149.92
160.36
167.22
170.88
171.89
170.91
168.59
165.48
161.88
157.79
152.91
146.77
138.90
129.03
117.12
103.28
87.61
69.99
50.10
27.59
2.47
-24.51
-51.87
-77.73
-100.43
-119.15
-134.26
-147.08
-159.29
-172.18
-186.03
-199.84
-211.49
-218.28
-217.62
-207.89
-188.95
-162.24
-130.40
-96.58
-63.71
-34.04
-8.99
10.68
24.69
33.17
36.74
36.58
34.34
31.83
30.54
31.34
34.30
38.89
44.33
49.89
55.14
59.96
64.37
68.29
71.46
73.47
73.94
72.66
69.69
65.21
59.48
52.67
44.96
36.62
28.07
19.79
12.13
5.13
-1.55
-8.49
-16.24
-24.93
-33.96
-41.91
-46.80
-46.61
-40.00
-26.95
-9.00
11.12
30.31
46.17
57.64
65.04
69.42
71.74
72.28
70.64
66.27
59.15
50.15
40.91
33.28
28.56
27.15
28.47
31.33
34.48
36.89
38.03
37.71
36.00
32.98
28.70
23.21
16.59
9.02
0.84
-7.52
-15.64
-23.21
-30.09
-36.32
-42.08
-47.67
-53.49
-60.11
-68.03
-77.48
-87.96
-98.03
-105.45
-107.71
-102.90
-90.40
-71.23
-47.77
-23.04
0.20
19.97
35.21
45.66
51.45
52.99
50.87
45.99
39.45
32.55
26.38
21.64
18.51
16.70
15.77
15.28
15.11
15.32
16.13
17.64
19.62
21.47
22.24
20.94
16.89
10.03
0.97
-9.18
-19.15
-28.02
-35.42
-41.61
-47.27
-53.29
-60.42
-69.10
-79.28
-90.19
-100.30
-107.49
-109.53
-104.77
-92.74
-74.32
-51.63
-27.31
-3.86
16.90
34.00
47.13
56.34
61.84
63.85
62.75
59.19
54.09
48.51
43.41
39.46
36.83
35.29
34.35
33.47
32.25
30.61
28.64
26.56
24.51
22.44
20.00
16.62
11.64
4.64
-4.41
-14.94
-26.01
-36.55
-45.74
-53.26
-59.38
-64.83
-70.50
-77.18
-85.16
-93.96
-102.22
-107.80
-108.29
-101.69
-87.16
-65.46
-38.94
-10.87
15.44
37.55
54.35
66.01
73.35
77.34
78.60
77.41
73.97
68.78
62.72
56.93
52.33
49.38
47.87
47.19
46.63
45.81
44.73
43.65
42.80
42.15
41.33
39.71
36.66
31.76
25.01
16.79
7.77
-1.37
-10.15
-18.45
-26.53
-34.87
-43.97
-54.18
-65.62
-77.93
-90.19
-100.80
-107.70
-108.77
-102.57
-88.93
-69.22
-46.03
-22.40
-0.87
17.02
30.78
40.57
46.66
49.15
48.02
43.45
36.19
27.55
19.23
12.75
9.05
8.15
9.31
11.37
13.31
14.65
15.45
16.11
16.88
17.47
17.10
14.74
9.73
2.05
-7.55
-17.92
-27.96
-37.09
-45.31
-53.07
-61.00
-69.70
-79.68
-91.25
-104.44
-118.63
-132.33
-143.20
-148.53
-146.01
-134.67
-115.30
-90.33
-63.05
-36.68
-13.52
5.30
19.54
29.35
34.89
36.31
34.09
29.32
23.74
19.35
17.73
19.56
24.42
31.14
38.37
45.13
51.05
56.26
61.05
65.54
69.54
72.58
74.00
73.22
69.91
64.05
56.04
46.57
36.48
26.52
17.09
8.21
-0.53
-9.88
-20.65
-33.39
-48.01
-63.45
-77.67
-88.00
-91.78
-87.23
-74.00
-53.39
-27.92
-0.67
25.59
48.85
67.95
82.45
92.20
97.24
97.80
94.43
88.17
80.46
72.81
66.45
61.88
58.84
56.55
54.08
50.83
46.73
42.19
37.87
34.22
31.33
28.75
25.71
21.39
15.23
7.35
-1.57
-10.49
-18.40
-24.73
-29.67
-33.99
-38.95
-45.75
-55.18
-67.22
-80.78
-93.75
-103.25
-106.43
-101.25
-87.23
-65.68
-39.34
-11.53
14.75
37.40
55.30
68.02
75.56
78.22
76.56
71.62
64.83
57.74
51.68
47.42
44.99
43.86
43.18
42.19
40.52
38.28
35.87
33.69
31.77
29.69
26.66
21.91
15.13
6.67
-2.51
-11.29
-18.76
-24.61
-29.15
-33.26
-38.00
-44.29
-52.48
-62.05
-71.44
-78.24
-79.75
-73.89
-59.92
-38.87
-13.31
13.42
38.25
59.01
74.76
85.41
91.25
92.64
89.86
83.42
74.28
63.85
53.68
45.07
38.70
34.52
32.05
30.66
29.94
29.69
29.71
29.66
28.92
26.78
22.70
16.62
8.96
0.48
-8.02
-16.01
-23.44
-30.63
-38.24
-47.05
-57.66
-70.20
-83.89
-96.94
-106.70
-110.28
-105.42
-91.41
-69.43
-42.29
-13.61
13.22
35.72
52.66
63.81
69.53
70.46
67.37
61.19
53.03
44.19
35.90
29.12
24.44
21.98
21.53
22.63
24.77
27.36
29.79
31.47
31.90
30.81
28.15
24.13
19.08
13.26
6.69
-0.89
-9.96
-21.08
-34.61
-50.36
-67.26
-83.25
-95.48
-100.99
-97.63
-84.84
-64.01
-38.16
-11.05
13.93
34.54
49.97
60.47
66.72
69.26
68.41
64.36
57.61
49.21
40.62
33.44
28.77
26.90
27.19
28.39
29.16
28.57
26.31
22.69
18.28
13.61
8.86
3.83
-1.93
-8.90
-17.42
-27.70
-39.79
-53.47
-68.00
-81.85
-92.65
-97.62
-94.37
-81.90
-61.14
-34.79
-6.54
20.07
42.58
59.90
72.03
79.42
82.48
81.49
76.88
69.53
60.82
52.36
45.46
40.81
38.27
37.04
36.08
34.53
31.91
28.15
23.51
18.29
12.73
6.88
0.63
-6.27
-14.09
-23.09
-33.43
-45.14
-57.96
-71.14
-83.27
-92.27
-95.71
-91.58
-78.91
-58.34
-32.02
-3.06
25.32
50.49
70.70
85.10
93.43
95.82
92.85
85.55
75.47
64.45
54.27
46.25
40.93
37.99
36.61
35.79
34.80
33.35
31.58
29.76
27.95
25.80
22.63
17.63
10.36
1.00
-9.67
-20.51
-30.53
-39.26
-46.86
-54.09
-61.95
-71.32
-82.74
-96.06
-110.29
-123.50
-133.15
-136.50
-131.53
-117.65
-96.02
-69.38
-41.17
-14.57
8.15
25.92
38.56
46.34
49.68
49.19
45.70
40.47
35.01
30.77
28.75
29.28
32.00
36.10
40.74
45.27
49.39
53.11
56.50
59.53
61.99
63.49
63.58
61.99
58.62
53.70
47.60
40.81
33.72
26.60
19.60
12.75
6.08
-0.45
-6.90
-13.33
-19.80
-26.30
-32.71
-38.81
-44.42
-49.49
-54.17
-58.78
-63.77
-69.59
-76.62
-84.98
-94.32
-103.50
-110.59
-113.21
-109.19
-97.42
-78.40
-54.24
-27.97
-2.62
19.54
37.37
50.64
59.57
64.47
65.56
63.26
58.36
52.09
45.90
41.10
38.40
37.81
38.70
40.23
41.61
42.43
42.61
42.20
41.25
39.62
37.16
33.74
29.45
24.50
19.12
13.42
7.35
0.76
-6.52
-14.55
-23.13
-31.79
-39.91
-46.83
-52.20
-56.16
-59.39
-63.02
-68.09
-75.10
-83.48
-91.59
-97.01
-97.37
-91.15
-78.19
-59.80
-38.32
-16.37
3.79
20.75
33.95
43.38
49.24
51.80
51.40
48.65
44.43
39.95
36.35
34.47
34.61
36.45
39.27
42.20
44.49
45.69
45.67
44.56
42.62
40.08
37.09
33.61
29.44
24.32
18.06
10.68
2.45
-6.10
-14.37
-21.95
-28.70
-34.83
-40.77
-47.00
-53.93
-61.78
-70.53
-79.73
-88.43
-95.03
-97.60
-94.40
-84.53
-68.44
-47.97
-25.81
-4.69
13.37
27.37
37.19
43.22
45.92
45.72
43.11
38.82
33.83
29.23
25.92
24.32
24.37
25.56
27.24
28.82
29.98
30.68
31.01
31.02
30.60
29.45
27.13
23.35
18.01
11.33
3.65
-4.70
-13.46
-22.44
-31.41
-40.01
-47.81
-54.52
-60.06
-64.77
-69.29
-74.40
-80.74
-88.46
-97.01
-104.93
-110.08
-110.17
-103.43
-89.32
-68.83
-44.29
-18.62
5.37
25.77
41.65
53.00
60.30
64.20
65.24
63.90
60.71
56.33
51.63
47.47
44.59
43.39
43.84
45.59
48.10
50.83
53.28
55.05
55.74
55.02
52.72
48.86
43.69
37.65
31.15
24.46
17.71
10.91
4.08
-2.70
-9.27
-15.52
-21.47
-27.31
-33.35
-39.86
-47.08
-55.08
-63.70
-72.36
-79.94
-84.81
-85.13
-79.44
-67.25
-49.53
-28.46
-6.85
12.65
28.30
39.46
46.31
49.42
49.36
46.61
41.70
35.43
28.89
23.29
19.61
18.37
19.41
22.09
25.50
28.76
31.22
32.61
32.92
32.26
30.78
28.43
25.02
20.33
14.29
7.18
-0.42
-7.76
-14.31
-19.97
-25.11
-30.32
-36.08
-42.63
-49.98
-58.12
-67.08
-76.84
-86.81
-95.57
-100.96
-100.62
-92.86
-77.49
-55.97
-31.01
-5.77
17.09
35.84
49.85
59.24
64.42
65.89
64.16
59.88
53.91
47.30
41.16
36.38
33.46
32.46
33.03
34.54
36.25
37.44
37.53
36.15
33.22
28.91
23.55
17.41
10.61
3.09
-5.22
-14.23
-23.61
-32.90
-41.72
-49.94
-57.65
-65.06
-72.30
-79.47
-86.65
-94.16
-102.39
-111.51
-120.91
-128.97
-133.17
-130.91
-120.46
-101.74
-76.51
-47.86
-19.24
6.48
27.56
43.53
54.79
62.09
66.17
67.54
66.63
63.96
60.31
56.67
54.10
53.37
54.71
57.73
61.50
64.95
67.10
67.47
66.02
63.13
59.36
55.16
50.69
45.74
39.94
32.90
24.59
15.32
5.71
-3.56
-12.05
-19.66
-26.64
-33.40
-40.34
-47.79
-55.98
-65.08
-74.89
-84.59
-92.56
-96.51
-94.14
-84.09
-66.60
-43.73
-18.75
4.96
24.92
40.09
50.66
57.43
61.09
62.06
60.61
57.26
52.93
48.89
46.25
45.59
46.79
49.07
51.45
53.04
53.37
52.40
50.43
47.89
45.14
42.32
39.21
35.44
30.58
24.48
17.32
9.58
1.80
-5.65
-12.66
-19.36
-25.92
-32.46
-39.06
-45.88
-53.20
-61.32
-70.23
-79.28
-87.07
-91.60
-90.96
-83.93
-70.59
-52.32
-31.50
-10.75
7.80
22.87
34.10
41.72
46.12
47.69
46.80
43.98
40.04
36.03
32.95
31.37
31.30
32.19
33.23
33.71
33.29
32.00
30.16
28.13
26.07
23.82
20.97
16.93
11.30
4.05
-4.38
-13.15
-21.34
-28.32
-33.96
-38.67
-43.21
-48.36
-54.70
-62.39
-71.18
-80.27
-88.31
-93.46
-93.67
-87.32
-73.73
-53.71
-29.45
-3.88
20.13
40.53
56.35
67.60
74.75
78.47
79.48
78.56
76.70
74.91
74.10
74.81
77.23
81.24
86.57
92.72
98.84
103.75
105.98
104.29
98.12
87.85
74.62
59.86
44.70
29.74
15.12
0.79
-13.20
-26.59
-39.08
-50.48
-60.83
-70.30
-79.04
-87.04
-94.24
-100.66
-106.58
-112.54
-119.02
-126.06
-132.84
-137.63
-138.18
-132.43
-119.36
-99.42
-74.52
-47.45
-21.04
2.54
22.01
37.00
47.63
54.30
57.48
57.78
56.02
53.19
50.32
48.29
47.63
48.45
50.49
53.20
55.94
58.16
59.45
59.65
58.76
56.84
53.87
49.80
44.61
38.42
31.60
24.60
17.81
11.32
4.94
-1.70
-8.85
-16.46
-24.11
-31.25
-37.42
-42.49
-46.76
-50.83
-55.53
-61.57
-69.43
-78.92
-89.05
-97.97
-103.29
-102.74
-94.94
-79.93
-59.25
-35.49
-11.58
10.01
27.71
40.89
49.63
54.40
55.85
54.77
52.02
48.55
45.26
42.84
41.62
41.56
42.38
43.64
45.02
46.23
47.06
47.23
46.45
44.44
41.14
36.76
31.71
26.46
21.26
16.11
10.73
4.81
-1.84
-9.15
-16.75
-24.21
-31.07
-37.08
-42.23
-46.78
-51.24
-56.25
-62.41
-70.01
-78.76
-87.60
-94.76
-98.11
-95.75
-86.68
-71.20
-50.91
-28.26
-5.81
14.37
31.05
43.77
52.52
57.50
59.02
57.57
54.04
49.55
45.38
42.47
41.30
41.71
43.15
44.94
46.56
47.72
48.32
48.34
47.68
46.16
43.60
39.95
35.26
29.79
23.85
17.69
11.45
5.08
-1.60
-8.74
-16.35
-24.25
-32.07
-39.42
-46.06
-52.02
-57.71
-63.74
-70.76
-79.14
-88.55
-97.79
-104.85
-107.29
-103.01
-91.01
-71.88
-47.75
-21.64
3.41
25.15
42.41
55.01
63.30
67.82
69.14
67.87
64.89
61.25
58.05
56.07
55.62
56.46
58.01
59.62
60.88
61.70
62.19
62.50
62.52
61.92
60.18
56.93
52.12
46.08
39.30
32.21
25.01
17.61
9.84
1.57
-7.11
-15.91
-24.44
-32.32
-39.34
-45.50
-51.00
-56.20
-61.63
-67.81
-75.22
-84.00
-93.64
-102.80
-109.41
-111.09
-105.92
-93.11
-73.55
-49.56
-24.24
-0.51
19.67
35.46
46.87
54.26
57.92
58.10
55.27
50.30
44.48
39.25
35.70
34.30
34.81
36.53
38.70
40.78
42.41
43.45
43.75
43.19
41.64
39.05
35.48
31.05
25.85
19.93
13.33
6.13
-1.48
-9.23
-16.84
-24.13
-31.10
-37.76
-44.23
-50.60
-57.11
-64.12
-72.00
-80.75
-89.67
-97.15
-100.89
-98.69
-89.27
-72.87
-51.35
-27.56
-4.43
15.80
31.97
43.87
51.74
55.97
56.86
54.81
50.44
44.78
39.11
34.61
32.13
31.85
33.35
35.75
38.09
39.60
39.87
38.92
37.03
34.61
31.92
29.04
25.70
21.53
16.11
9.29
1.30
-7.33
-15.98
-24.16
-31.73
-38.82
-45.67
-52.56
-59.69
-67.26
-75.53
-84.52
-93.76
-101.89
-106.74
-105.94
-97.76
-81.94
-60.04
-34.96
-10.02
12.05
29.75
42.81
51.66
56.90
58.92
58.03
54.63
49.54
43.93
39.03
35.78
34.51
34.90
36.23
37.66
38.58
38.76
38.28
37.37
36.20
34.78
32.97
30.48
26.98
22.21
16.11
8.84
0.80
-7.56
-15.86
-23.95
-31.82
-39.58
-47.30
-55.08
-63.10
-71.67
-81.02
-90.92
-100.25
-106.94
-108.44
-102.62
-88.70
-67.76
-42.40
-15.98
8.49
28.95
44.56
55.33
61.70
64.19
63.39
60.02
55.11
49.87
45.51
42.87
42.20
43.17
44.99
46.82
48.07
48.47
48.11
47.16
45.73
43.73
40.92
37.01
31.81
25.27
17.54
8.95
-0.08
-9.11
-17.86
-26.19
-34.19
-42.00
-49.82
-57.91
-66.50
-75.75
-85.46
-94.81
-102.18
-105.42
-102.41
-91.95
-74.34
-51.42
-26.07
-1.29
20.59
38.33
51.64
60.74
66.01
67.75
66.39
62.61
57.55
52.59
49.01
47.55
48.23
50.43
53.19
55.67
57.36
58.11
57.98
57.02
55.16
52.28
48.27
43.13
37.02
30.08
22.47
14.28
5.56
-3.62
-13.07
-22.45
-31.37
-39.39
-46.31
-52.24
-57.71
-63.55
-70.61
-79.40
-89.62
-100.03
-108.44
-112.35
-109.62
-99.26
-81.77
-59.01
-33.72
-8.65
13.98
32.90
47.60
58.12
64.67
67.64
67.65
65.59
62.68
60.13
58.85
59.10
60.46
62.10
63.25
63.56
63.27
62.96
63.09
63.65
64.01
63.23
60.51
55.63
49.06
41.86
35.08
29.33
24.58
20.21
15.43
9.79
3.40
-3.10
-8.79
-12.80
-14.61
-14.15
-12.00
-9.34
-8.02
-10.18
-17.64
-31.05
-49.36
-69.91
-89.12
-103.72
-111.64
-112.33
-106.47
-95.29
-80.15
-62.34
-43.30
-24.68
-8.23
4.67
13.39
18.25
20.30
20.93
21.35
22.33
24.17
26.77
29.84
33.05
36.10
38.82
41.08
42.81
43.98
44.52
44.35
43.44
41.71
39.09
35.47
30.81
25.25
19.15
13.05
7.43
2.50
-1.95
-6.46
-11.62
-17.68
-24.40
-31.08
-36.85
-41.16
-43.97
-45.87
-47.85
-50.99
-56.11
-63.48
-72.59
-82.11
-90.05
-94.08
-92.20
-83.31
-67.73
-47.13
-24.10
-1.43
18.69
34.95
47.01
55.03
59.34
60.31
58.40
54.41
49.55
45.17
42.41
41.74
42.80
44.69
46.38
47.28
47.39
47.14
47.06
47.30
47.49
46.85
44.57
40.25
34.07
26.80
19.43
12.79
7.24
2.58
-1.81
-6.54
-11.99
-18.15
-24.62
-30.92
-36.63
-41.58
-45.81
-49.65
-53.62
-58.38
-64.46
-72.01
-80.40
-88.13
-93.09
-93.13
-86.80
-73.89
-55.60
-34.10
-11.99
8.45
25.62
38.79
47.88
53.20
55.26
54.57
51.80
47.75
43.38
39.69
37.40
36.74
37.35
38.48
39.42
39.75
39.58
39.28
39.19
39.26
39.08
37.98
35.45
31.32
25.90
19.84
13.83
8.37
3.56
-0.83
-5.21
-10.00
-15.39
-21.31
-27.47
-33.51
-39.08
-44.02
-48.32
-52.28
-56.43
-61.45
-67.84
-75.59
-83.78
-90.66
-94.00
-91.82
-83.21
-68.57
-49.61
-28.71
-8.25
9.96
24.88
36.12
43.71
47.88
49.07
47.88
45.13
41.77
38.72
36.65
35.86
36.23
37.37
38.81
40.25
41.57
42.86
44.13
45.26
45.89
45.50
43.65
40.20
35.34
29.61
23.60
17.77
12.24
6.81
1.09
-5.21
-12.07
-19.11
-25.77
-31.52
-36.17
-39.94
-43.34
-47.01
-51.55
-57.29
-64.22
-71.78
-78.85
-83.78
-84.76
-80.41
-70.21
-54.87
-36.16
-16.37
2.31
18.22
30.46
38.77
43.32
44.53
43.03
39.68
35.46
31.39
28.21
26.34
25.75
26.14
27.13
28.40
29.83
31.32
32.75
33.85
34.28
33.73
32.09
29.43
25.96
21.84
17.15
11.93
6.19
0.05
-6.31
-12.69
-18.99
-25.15
-31.07
-36.62
-41.61
-45.93
-49.70
-53.37
-57.59
-62.99
-69.76
-77.32
-84.31
-88.76
-88.68
-82.78
-70.82
-53.93
-34.23
-14.17
4.14
19.45
31.39
40.17
46.14
49.55
50.49
49.14
46.01
41.98
38.09
35.25
33.93
34.01
35.05
36.50
37.91
39.15
40.21
40.98
41.22
40.56
38.62
35.23
30.54
24.94
18.96
13.03
7.34
1.81
-3.82
-9.81
-16.25
-22.91
-29.44
-35.42
-40.70
-45.45
-50.18
-55.51
-61.88
-69.20
-76.75
-83.15
-86.69
-85.82
-79.65
-68.24
-52.62
-34.47
-15.71
1.99
17.40
29.81
38.88
44.46
46.63
45.66
42.16
37.10
31.65
26.88
23.54
21.89
21.64
22.24
23.07
23.69
23.91
23.69
23.03
21.84
19.97
17.28
13.69
9.16
3.74
-2.44
-9.13
-16.05
-22.86
-29.31
-35.38
-41.33
-47.67
-54.93
-63.35
-72.51
-81.19
-87.56
-89.61
-85.82
-75.77
-60.29
-41.22
-20.88
-1.32
16.02
30.37
41.47
49.22
53.74
55.20
54.10
51.18
47.34
43.52
40.44
38.50
37.78
38.02
38.81
39.69
40.36
40.72
40.83
40.79
40.46
39.49
37.30
33.38
27.51
19.91
11.16
2.03
-6.79
-14.87
-22.18
-28.98
-35.81
-43.28
-51.91
-61.83
-72.57
-82.90
-90.93
-94.51
-91.91
-82.36
-66.43
-45.94
-23.45
-1.50
17.93
33.72
45.56
53.56
58.04
59.35
57.92
54.37
49.58
44.65
40.59
38.09
37.31
37.82
38.85
39.61
39.60
38.79
37.39
35.66
33.63
31.01
27.32
22.16
15.56
7.99
0.14
-7.31
-14.01
-20.06
-25.92
-32.16
-39.29
-47.59
-56.97
-66.86
-76.10
-83.04
-85.78
-82.69
-72.93
-56.86
-36.00
-12.72
10.44
31.25
48.19
60.45
67.85
70.66
69.57
65.54
59.80
53.63
48.17
44.12
41.67
40.45
39.75
38.85
37.31
35.13
32.65
30.29
28.20
26.15
23.55
19.77
14.37
7.28
-1.13
-10.32
-19.68
-28.77
-37.35
-45.44
-53.30
-61.41
-70.32
-80.35
-91.25
-101.94
-110.48
-114.58
-112.17
-102.16
-84.92
-62.28
-37.02
-12.03
10.37
28.87
43.09
53.18
59.48
62.25
61.82
58.79
54.11
49.03
44.74
41.99
40.96
41.33
42.54
44.16
45.90
47.58
48.95
49.58
48.98
46.81
43.08
38.21
32.79
27.27
21.79
16.05
9.56
1.90
-6.98
-16.67
-26.44
-35.49
-43.30
-49.80
-55.49
-61.28
-68.22
-76.98
-87.37
-98.09
-106.85
-110.92
-107.98
-96.97
-78.52
-54.76
-28.67
-3.20
19.32
37.59
51.13
60.07
64.86
66.21
65.07
62.57
59.89
57.99
57.43
58.25
60.06
62.22
64.11
65.32
65.77
65.67
65.35
64.99
64.45
63.24
60.74
56.52
50.62
43.56
36.15
29.12
22.79
17.01
11.29
5.15
-1.66
-9.03
-16.59
-23.89
-30.58
-36.52
-41.84
-46.93
-52.39
-58.90
-66.94
-76.39
-86.23
-94.55
-98.92
-97.16
-88.09
-72.05
-50.89
-27.35
-4.32
15.95
32.24
44.20
52.10
56.41
57.65
56.41
53.41
49.59
45.87
43.00
41.38
40.99
41.55
42.74
44.30
46.07
47.88
49.44
50.30
50.02
48.26
44.97
40.39
34.93
29.08
23.13
17.22
11.25
5.06
-1.49
-8.42
-15.52
-22.50
-29.01
-34.88
-40.11
-44.94
-49.81
-55.27
-61.79
-69.57
-78.28
-86.85
-93.52
-96.27
-93.31
-83.75
-68.03
-47.87
-25.81
-4.54
13.80
28.03
37.88
43.77
46.40
46.48
44.71
41.83
38.69
36.15
34.90
35.27
37.00
39.48
41.95
43.84
45.01
45.62
45.99
46.23
46.24
45.67
44.16
41.48
37.66
33.03
27.97
22.83
17.78
12.79
7.69
2.38
-3.18
-8.82
-14.28
-19.26
-23.52
-26.97
-29.71
-32.04
-34.42
-37.42
-41.40
-46.21
-51.09
-54.75
-55.85
-53.47
-47.44
-38.23
-26.77
-14.20
-1.78
9.13
17.24
21.58
21.96
19.05
14.22
8.97
4.39
0.92
-1.49
-2.93
-3.36
-2.53
-0.45
2.62
6.09
9.43
12.42
15.15
17.89
20.67
23.17
24.74
24.70
22.60
18.55
13.19
7.51
2.51
-1.22
-3.67
-5.44
-7.50
-10.70
-15.40
-21.28
-27.54
-33.33
-38.20
-42.25
-45.97
-49.98
-54.74
-60.45
-67.04
-74.06
-80.59
-85.21
-86.17
-81.90
-71.66
-55.97
-36.62
-16.12
3.04
19.09
31.21
39.38
43.98
45.47
44.31
41.05
36.44
31.46
27.13
24.28
23.25
23.83
25.41
27.20
28.68
29.61
30.03
30.08
29.78
28.98
27.46
25.07
21.78
17.64
12.71
7.00
0.52
-6.64
-14.18
-21.68
-28.69
-34.93
-40.36
-45.22
-49.92
-54.97
-60.86
-67.88
-75.79
-83.69
-89.94
-92.56
-89.82
-80.81
-65.90
-46.66
-25.35
-4.36
14.45
29.92
41.63
49.63
54.17
55.56
54.25
50.87
46.29
41.50
37.44
34.74
33.56
33.68
34.63
35.92
37.20
38.20
38.78
38.73
37.86
35.99
33.05
29.09
24.24
18.65
12.40
5.57
-1.73
-9.30
-16.82
-23.98
-30.54
-36.50
-42.07
-47.72
-53.96
-61.26
-69.76
-79.06
-88.12
-95.31
-98.72
-96.68
-88.23
-73.50
-53.79
-31.16
-7.97
13.68
32.26
46.93
57.39
63.78
66.60
66.65
65.03
62.94
61.54
61.67
63.88
68.26
74.42
81.39
87.65
91.45
91.32
86.71
78.11
66.78
54.07
40.64
26.48
11.29
-4.76
-20.69
-34.96
-46.32
-54.45
-60.20
-65.00
-69.99
-75.47
-80.88
-85.41
-88.63
-90.93
-93.34
-97.02
-102.63
-109.81
-117.09
-122.17
-122.56
-116.32
-102.70
-82.40
-57.45
-30.56
-4.52
18.45
36.97
50.45
59.00
63.22
64.01
62.47
59.64
56.47
53.62
51.53
50.38
50.28
51.19
52.93
55.21
57.59
59.55
60.64
60.58
59.26
56.73
53.03
48.21
42.24
35.12
26.87
17.67
7.87
-2.03
-11.50
-20.10
-27.64
-34.21
-40.28
-46.45
-53.36
-61.44
-70.67
-80.41
-89.36
-95.73
-97.64
-93.61
-83.05
-66.45
-45.31
-21.79
1.80
23.39
41.41
54.92
63.56
67.59
67.74
65.06
60.71
55.80
51.20
47.55
45.23
44.34
44.74
46.02
47.68
49.22
50.28
50.66
50.30
49.16
47.16
44.22
40.23
35.21
29.16
22.19
14.46
6.24
-2.08
-10.12
-17.50
-24.11
-30.07
-35.73
-41.60
-48.21
-56.00
-65.14
-75.38
-85.77
-94.68
-99.97
-99.56
-92.11
-77.55
-57.31
-33.84
-9.98
11.93
30.37
44.76
55.12
61.68
64.73
64.63
62.02
57.88
53.47
49.99
48.24
48.31
49.72
51.66
53.41
54.64
55.43
55.99
56.39
56.39
55.46
53.06
48.96
43.34
36.75
29.74
22.69
15.60
8.28
0.46
-7.91
-16.59
-25.18
-33.23
-40.47
-46.85
-52.63
-58.30
-64.50
-71.85
-80.75
-91.01
-101.65
-110.84
-116.26
-115.74
-107.95
-92.97
-72.29
-48.44
-24.27
-2.24
16.06
29.94
39.37
44.79
46.77
46.05
43.45
39.87
36.26
33.45
32.01
32.20
33.91
36.68
39.96
43.14
45.83
47.82
49.07
49.56
49.17
47.67
44.80
40.52
35.06
28.92
22.70
16.79
11.22
5.70
-0.15
-6.56
-13.38
-20.19
-26.39
-31.59
-35.78
-39.36
-43.06
-47.69
-53.90
-61.98
-71.65
-81.92
-91.09
-97.02
-97.54
-91.16
-77.61
-58.04
-34.84
-10.82
11.43
30.25
44.94
55.55
62.47
66.11
66.86
65.30
62.27
58.77
55.77
53.92
53.36
53.77
54.63
55.52
56.25
56.89
57.55
58.19
58.53
58.00
56.11
52.58
47.54
41.47
34.93
28.34
21.81
15.23
8.36
1.15
-6.27
-13.58
-20.48
-26.85
-32.75
-38.44
-44.21
-50.36
-57.15
-64.71
-72.96
-81.33
-88.66
-93.27
-93.31
-87.40
-75.16
-57.49
-36.49
-14.80
5.05
21.33
33.33
41.24
45.74
47.56
47.22
45.09
41.53
37.14
32.77
29.37
27.61
27.69
29.21
31.40
33.45
34.78
35.19
34.77
33.68
31.99
29.63
26.46
22.41
17.56
12.08
6.16
-0.08
-6.58
-13.30
-20.11
-26.80
-33.09
-38.87
-44.17
-49.28
-54.62
-60.65
-67.70
-75.79
-84.37
-92.20
-97.48
-98.19
-92.82
-80.95
-63.56
-42.79
-21.31
-1.51
15.06
27.82
36.92
42.78
45.85
46.52
45.29
42.83
39.97
37.44
35.71
34.91
34.98
35.77
37.19
39.14
41.43
43.71
45.49
46.25
45.67
43.66
40.34
36.02
30.95
25.37
19.43
13.24
6.87
0.39
-6.09
-12.49
-18.63
-24.43
-29.85
-35.01
-40.14
-45.51
-51.47
-58.30
-66.15
-74.79
-83.40
-90.48
-94.10
-92.43
-84.44
-70.36
-51.67
-30.72
-9.92
8.87
24.61
36.98
46.01
51.78
54.32
53.82
50.88
46.49
41.90
38.26
36.27
35.99
37.02
38.68
40.37
41.70
42.46
42.60
42.03
40.67
38.46
35.41
31.65
27.34
22.57
17.31
11.48
4.95
-2.22
-9.85
-17.58
-25.06
-31.97
-38.22
-43.93
-49.47
-55.39
-62.19
-70.04
-78.46
-86.17
-91.26
-91.78
-86.30
-74.52
-57.47
-37.23
-16.32
2.95
18.99
31.05
39.12
43.57
44.94
43.83
40.86
36.81
32.54
28.93
26.65
26.00
26.82
28.57
30.56
32.13
32.91
32.82
32.05
30.90
29.57
28.06
26.12
23.35
19.38
14.05
7.54
0.35
-6.90
-13.74
-19.90
-25.45
-30.64
-35.84
-41.43
-47.81
-55.18
-63.46
-71.95
-79.33
-83.88
-83.86
-78.20
-66.84
-50.86
-32.14
-12.81
5.31
20.98
33.56
42.83
48.76
51.47
51.26
48.75
44.89
40.78
37.40
35.37
34.85
35.56
37.05
38.87
40.72
42.40
43.80
44.79
45.18
44.74
43.28
40.64
36.86
32.11
26.72
21.01
15.28
9.58
3.82
-2.16
-8.46
-15.00
-21.50
-27.64
-33.22
-38.34
-43.49
-49.31
-56.36
-64.66
-73.43
-81.10
-85.67
-85.26
-78.76
-66.27
-49.01
-29.08
-8.85
9.60
24.79
36.02
43.29
47.08
48.10
47.13
44.84
41.82
38.57
35.55
33.16
31.72
31.37
31.97
33.20
34.54
35.55
35.89
35.50
34.50
33.07
31.23
28.82
25.48
20.87
14.86
7.68
-0.20
-8.07
-15.33
-21.54
-26.54
-30.52
-33.97
-37.67
-42.47
-49.04
-57.52
-67.26
-76.75
-83.91
-86.64
-83.46
-74.05
-59.32
-41.18
-21.90
-3.58
12.33
25.07
34.43
40.49
43.47
43.70
41.66
38.00
33.52
29.06
25.37
22.95
22.06
22.62
24.28
26.46
28.50
29.86
30.20
29.46
27.78
25.34
22.25
18.54
14.18
9.18
3.60
-2.37
-8.53
-14.66
-20.57
-26.23
-31.77
-37.42
-43.53
-50.45
-58.35
-67.03
-75.77
-83.27
-87.88
-87.92
-82.25
-70.68
-54.14
-34.45
-13.88
5.49
22.14
35.39
45.12
51.58
55.11
56.05
54.83
52.03
48.50
45.21
43.05
42.64
44.21
47.51
52.07
57.27
62.50
67.15
70.50
71.69
69.78
64.11
54.66
42.28
28.41
14.66
2.09
-9.01
-19.04
-28.57
-37.87
-46.75
-54.80
-61.79
-67.99
-74.10
-80.87
-88.63
-97.03
-104.97
-110.88
-113.05
-110.07
-101.23
-86.73
-67.77
-46.22
-24.21
-3.61
14.29
28.86
39.87
47.41
51.72
53.26
52.70
50.90
48.75
46.91
45.75
45.32
45.51
46.16
47.14
48.33
49.53
50.52
50.99
50.73
49.55
47.48
44.59
41.01
36.82
32.03
26.60
20.49
13.83
6.84
-0.03
-6.38
-11.93
-16.70
-21.01
-25.43
-30.59
-36.97
-44.73
-53.48
-62.24
-69.49
-73.37
-72.24
-65.13
-52.22
-34.82
-15.16
4.36
21.63
35.38
45.14
51.03
53.53
53.18
50.63
46.56
41.81
37.22
33.56
31.29
30.53
31.02
32.28
33.75
34.95
35.68
35.89
35.65
35.06
34.08
32.58
30.26
26.83
22.12
16.18
9.30
1.93
-5.44
-12.44
-18.82
-24.62
-30.00
-35.33
-41.10
-47.84
-55.90
-65.22
-75.08
-83.99
-90.03
-91.33
-86.74
-76.27
-61.10
-43.22
-24.81
-7.74
6.83
18.40
26.97
32.77
36.08
37.13
36.22
33.78
30.43
26.96
24.17
22.67
22.71
24.09
26.24
28.50
30.31
31.40
31.76
31.47
30.55
28.89
26.37
22.91
18.62
13.73
8.48
3.02
-2.65
-8.56
-14.68
-20.84
-26.77
-32.28
-37.35
-42.21
-47.24
-52.85
-59.17
-65.84
-71.93
-75.97
-76.33
-71.68
-61.48
-46.23
-27.39
-6.90
13.39
31.97
47.78
59.93
67.60
70.09
67.23
59.67
48.94
37.02
25.76
16.38
9.29
4.44
1.74
1.28
3.24
7.52
13.47
19.87
25.27
28.57
29.31
27.83
24.92
21.50
18.27
15.54
13.21
10.90
8.08
4.27
-0.83
-7.18
-14.37
-21.77
-28.69
-34.69
-39.71
-44.10
-48.48
-53.51
-59.69
-67.10
-75.27
-83.10
-88.93
-90.97
-87.78
-78.88
-64.91
-47.50
-28.83
-10.91
4.73
17.33
26.62
32.68
35.75
36.16
34.39
31.11
27.16
23.37
20.54
19.14
19.36
20.94
23.39
26.06
28.37
30.05
31.02
31.39
31.21
30.47
29.03
26.77
23.66
19.68
14.89
9.30
2.97
-3.92
-11.02
-17.89
-24.20
-29.88
-35.22
-40.77
-47.07
-54.35
-62.34
-70.17
-76.49
-79.76
-78.58
-72.11
-60.33
-44.21
-25.51
-6.36
11.25
25.90
36.93
44.33
48.53
50.08
49.56
47.59
44.77
41.69
38.89
36.69
35.22
34.45
34.29
34.64
35.38
36.36
37.28
37.76
37.40
35.86
32.99
28.79
23.39
17.07
10.17
3.13
-3.72
-10.15
-16.14
-21.80
-27.25
-32.56
-37.78
-43.05
-48.65
-54.99
-62.30
-70.26
-77.81
-83.23
-84.67
-80.71
-70.94
-56.08
-37.79
-18.14
0.84
17.58
31.13
41.08
47.47
50.61
51.00
49.25
46.05
42.14
38.22
34.90
32.59
31.47
31.51
32.43
33.83
35.25
36.25
36.57
36.11
34.98
33.34
31.30
28.80
25.56
21.22
15.47
8.29
0.01
-8.75
-17.27
-24.96
-31.63
-37.48
-43.05
-48.99
-55.82
-63.74
-72.44
-81.08
-88.30
-92.42
-91.82
-85.45
-73.18
-56.05
-36.05
-15.55
3.30
19.11
31.33
40.10
45.76
48.60
48.81
46.65
42.71
37.97
33.63
30.76
29.95
31.10
33.49
36.16
38.20
39.12
38.90
37.90
36.57
35.21
33.81
31.98
29.14
24.72
18.52
10.73
1.97
-6.92
-15.19
-22.35
-28.36
-33.58
-38.70
-44.55
-51.78
-60.57
-70.30
-79.46
-85.96
-87.64
-83.02
-71.84
-55.15
-35.07
-14.06
5.73
22.84
36.59
46.75
53.34
56.42
56.24
53.28
48.40
42.75
37.55
33.75
31.84
31.75
32.93
34.65
36.24
37.33
37.83
37.78
37.24
36.15
34.35
31.57
27.60
22.31
15.74
8.10
-0.21
-8.62
-16.53
-23.45
-29.28
-34.28
-39.10
-44.53
-51.25
-59.45
-68.65
-77.60
-84.39
-87.01
-83.78
-74.08
-58.57
-39.03
-17.88
2.58
20.63
35.42
46.72
54.63
59.29
60.82
59.45
55.75
50.67
45.43
41.26
38.94
38.60
39.73
41.42
42.80
43.36
43.05
42.12
40.86
39.36
37.43
34.70
30.81
25.62
19.26
12.09
4.55
-2.97
-10.26
-17.23
-23.91
-30.38
-36.78
-43.30
-50.27
-58.05
-66.78
-76.09
-84.76
-90.87
-92.22
-87.13
-75.13
-57.26
-35.86
-13.74
6.57
23.48
36.38
45.35
50.76
52.95
52.24
49.11
44.32
38.88
33.87
30.08
27.90
27.23
27.71
28.89
30.46
32.26
34.22
36.14
37.65
38.23
37.30
34.53
29.88
23.69
16.57
9.14
1.91
-4.83
-10.99
-16.68
-22.05
-27.31
-32.67
-38.42
-44.91
-52.52
