1706878609.00
64.000000
-0.00
-0.00
-0.00
-0.00
-0.00
-0.00
-0.00
-0.00
-0.00
-0.00
0.00
0.01
0.01
-0.00
-0.03
-0.05
-0.05
0.00
0.13
0.36
0.66
1.01
1.37
1.72
2.06
2.40
2.79
3.24
3.80
4.42
5.06
5.66
6.20
6.68
7.15
7.68
8.31
9.14
10.09
11.04
11.88
12.56
13.14
13.76
14.65
15.96
17.91
20.32
22.90
25.38
27.58
29.57
31.68
34.32
37.81
42.54
48.15
54.10
59.83
64.97
69.58
74.14
79.34
85.71
93.76
103.00
112.62
121.73
129.77
136.75
143.30
150.75
157.77
166.64
177.95
191.79
206.97
220.57
228.25
225.36
208.53
176.87
132.76
80.05
23.07
-34.94
-92.44
-149.16
-205.23
-260.37
-313.74
-363.87
-409.83
-450.89
-486.48
-515.70
-537.16
-549.13
-549.84
-538.20
-514.00
-478.41
-433.56
-382.08
-326.58
-269.34
-212.06
-156.02
-102.24
-51.59
-5.04
36.53
72.46
102.48
126.73
145.72
160.16
170.75
178.12
182.67
184.68
184.38
182.06
178.05
172.76
166.60
159.93
152.98
145.91
138.78
131.63
124.51
117.48
110.62
103.98
97.64
91.61
85.92
80.57
75.58
70.95
66.70
62.84
59.36
56.26
53.55
51.23
49.30
47.73
46.53
45.64
45.02
44.54
44.11
43.55
42.69
41.36
39.38
36.64
33.07
28.69
23.52
17.70
11.43
4.95
-1.47
-7.58
-13.14
-17.95
-21.88
-24.87
-26.88
-27.98
-28.25
-27.82
-26.82
-25.38
-23.64
-21.68
-19.58
-17.39
-15.15
-12.90
-10.66
-8.42
-6.18
-3.91
-1.60
0.81
3.37
6.08
8.96
12.05
15.42
19.14
23.26
27.86
32.98
38.69
44.84
51.33
58.03
64.80
71.51
78.06
84.33
90.30
95.97
101.16
105.79
109.86
113.44
116.62
119.54
122.38
125.29
128.47
131.75
134.98
138.03
140.70
142.69
143.66
143.07
140.17
136.28
131.82
127.02
122.02
116.89
111.66
106.38
101.08
95.85
90.80
85.78
80.71
75.60
70.51
65.50
60.66
56.10
51.91
48.23
44.92
41.87
39.02
36.33
33.75
31.27
28.91
26.69
24.66
22.72
20.79
18.82
16.80
14.72
12.62
10.55
8.55
6.67
4.83
2.96
1.00
-1.09
-3.29
-5.55
-7.76
-9.87
-11.85
-13.71
-15.56
-17.47
-19.46
-21.51
-23.47
-25.20
-26.57
-27.59
-28.40
-29.30
-30.55
-32.37
-34.71
-37.37
-39.98
-42.28
-44.23
-46.08
-48.35
-51.54
-55.97
-61.56
-67.82
-74.09
-79.79
-84.83
-89.66
-95.12
-102.14
-111.27
-122.42
-134.91
-147.76
-160.09
-171.54
-182.34
-193.28
-205.51
-220.30
-238.82
-261.56
-287.68
-314.49
-337.51
-351.56
-352.25
-337.67
-309.21
-271.13
-229.03
-187.95
-151.02
-119.24
-92.20
-69.23
-50.02
-34.66
-23.07
-14.44
-7.21
0.47
9.93
21.51
34.31
46.71
57.09
64.39
68.29
68.90
66.37
60.48
50.73
36.66
18.32
-3.46
-27.09
-50.62
-72.07
-89.84
-102.80
-110.28
-112.06
-108.39
-99.96
-87.99
-73.91
-59.12
-44.68
-31.19
-18.92
-8.02
1.31
8.79
14.15
17.23
18.07
16.86
13.88
9.51
4.23
-1.27
-6.17
-9.64
-11.12
-10.55
-8.40
-5.54
-3.06
-2.05
-3.44
-7.90
-15.68
-26.45
-39.13
-52.12
-63.64
-72.28
-77.30
-78.65
-76.69
-71.76
-64.07
-53.66
-40.84
-26.34
-11.36
2.70
14.58
23.46
29.08
31.72
32.12
31.28
30.15
29.42
29.22
29.21
28.79
27.51
25.28
22.45
19.54
17.03
15.10
13.61
12.29
10.82
9.00
6.66
3.68
-0.06
-4.46
-9.13
-13.21
-15.51
-14.77
-10.05
-1.04
11.86
27.64
45.01
62.69
79.52
94.55
106.88
115.89
121.25
123.18
122.40
119.99
117.06
114.44
112.68
112.08
112.81
114.99
118.58
123.36
128.83
134.43
139.58
143.81
146.75
147.92
146.77
142.77
135.65
125.61
113.49
100.52
88.12
77.50
69.49
64.36
61.87
61.33
61.57
61.24
58.88
53.42
44.36
31.95
17.03
0.65
-16.20
-32.84
-48.88
-64.10
-78.32
-91.38
-103.22
-113.90
-123.64
-132.63
-140.84
-148.01
-153.82
-158.16
-161.28
-163.87
-166.79
-170.78
-176.23
-183.00
-190.43
-197.48
-202.85
-205.31
-203.91
-198.17
-188.10
-174.21
-157.26
-138.11
-117.67
-96.80
-76.39
-57.23
-40.05
-25.55
-14.37
-7.05
-3.93
-4.79
-8.85
-14.69
-20.63
-25.17
-27.36
-27.06
-24.74
-21.27
-17.61
-14.54
-12.62
-12.16
-13.22
-15.58
-18.81
-22.29
-25.56
-28.33
-30.81
-33.52
-37.13
-41.97
-47.69
-53.05
-56.22
-55.40
-49.41
-38.33
-23.24
-5.99
11.61
28.10
42.61
54.68
64.03
70.52
74.18
75.36
74.76
73.31
71.89
71.09
71.08
71.69
72.57
73.27
73.47
73.00
71.78
69.84
67.16
63.67
59.24
53.74
47.14
39.62
31.61
23.63
16.22
9.74
4.39
0.22
-2.75
-4.49
-5.03
-4.27
-1.95
2.44
9.65
20.26
34.24
50.68
67.79
83.40
95.58
103.12
105.75
103.81
97.89
88.62
76.66
63.03
49.11
36.52
26.63
20.08
16.60
15.14
14.29
12.93
10.46
6.90
2.71
-1.59
-5.62
-9.19
-12.28
-14.91
-17.04
-18.57
-19.46
-19.78
-19.85
-20.28
-21.80
-25.02
-30.08
-36.44
-42.79
-47.40
-48.67
-45.67
-38.56
-28.45
-17.04
-6.04
3.31
10.35
14.98
17.38
17.84
16.66
14.22
10.97
7.47
4.33
1.98
0.77
0.82
2.14
4.46
7.38
10.32
12.66
13.95
14.05
13.16
11.73
10.18
8.74
7.35
5.65
3.10
-0.90
-6.82
-14.83
-24.62
-35.12
-44.61
-50.92
-52.06
-46.82
-35.29
-18.90
-0.01
18.87
35.73
49.47
59.75
66.62
70.07
70.00
66.36
59.52
50.43
40.50
31.14
23.30
17.23
12.55
8.60
4.75
0.75
-3.45
-7.63
-11.56
-15.01
-17.79
-19.77
-20.94
-21.41
-21.41
-21.31
-21.54
-22.52
-24.44
-27.13
-29.94
-31.82
-31.56
-28.25
-21.55
-11.87
-0.15
12.42
24.72
35.83
45.05
51.79
55.66
56.54
54.68
50.71
45.48
39.78
34.25
29.24
24.88
21.18
17.99
15.04
11.94
8.29
3.81
-1.44
-7.12
-12.70
-17.67
-21.84
-25.37
-28.74
-32.58
-37.45
-43.68
-51.29
-59.91
-68.81
-76.81
-82.52
-84.66
-82.52
-76.33
-67.25
-57.03
-47.45
-39.72
-34.37
-31.35
-30.34
-30.90
-32.56
-34.70
-36.59
-37.44
-36.59
-33.74
-28.92
-22.45
-14.87
-6.84
0.89
7.60
12.73
16.03
17.48
17.29
15.65
12.66
8.43
3.28
-2.08
-6.70
-9.65
-10.51
-9.46
-7.27
-4.73
-2.16
0.84
5.28
12.20
22.19
35.01
49.71
64.95
79.44
92.27
102.86
110.96
116.46
119.42
120.09
118.92
116.47
113.29
109.75
106.05
102.25
98.33
94.28
90.14
85.83
81.22
76.04
69.98
62.83
54.61
45.55
36.08
26.60
17.39
8.46
-0.36
-9.29
-18.53
-28.03
-37.54
-46.53
-54.27
-59.92
-62.77
-62.35
-58.68
-52.23
-43.80
-34.37
-24.77
-15.71
-7.75
-1.42
2.79
4.47
3.54
0.39
-4.12
-8.84
-12.62
-14.67
-14.76
-13.20
-10.71
-8.17
-6.34
-5.71
-6.42
-8.33
-11.17
-14.63
-18.47
-22.52
-26.70
-30.92
-35.16
-39.42
-43.75
-48.15
-52.40
-56.05
-58.43
-58.79
-56.53
-51.40
-43.62
-33.88
-23.14
-12.46
-2.81
5.07
10.74
14.12
15.43
15.09
13.62
11.54
9.33
7.32
5.77
4.76
4.29
4.22
4.43
4.87
5.58
6.72
8.36
10.39
12.39
13.65
13.31
10.73
5.64
-1.67
-10.51
-19.91
-28.83
-36.30
-41.38
-43.31
-41.58
-36.13
-27.42
-16.45
-4.47
7.32
18.08
27.35
35.05
41.08
45.31
47.51
47.50
45.43
41.85
37.64
33.83
31.27
30.38
31.05
32.75
34.71
36.12
36.42
35.42
33.30
30.51
27.57
24.83
22.42
20.08
17.31
13.46
8.09
1.17
-6.75
-14.55
-20.77
-23.99
-23.27
-18.42
-10.04
0.59
11.96
22.57
31.31
37.46
40.73
41.24
39.29
35.49
30.51
25.12
19.98
15.53
11.84
8.71
5.69
2.35
-1.51
-5.88
-10.46
-14.91
-18.96
-22.57
-25.92
-29.36
-33.20
-37.60
-42.52
-47.64
-52.54
-56.70
-59.66
-60.95
-60.19
-57.08
-51.54
-43.80
-34.41
-24.18
-13.98
-4.58
3.50
9.91
14.44
16.95
17.41
16.04
13.36
10.17
7.27
5.27
4.30
4.08
4.04
3.63
2.56
0.87
-1.13
-3.13
-4.97
-6.71
-8.60
-10.91
-13.89
-17.65
-22.21
-27.42
-32.93
-38.11
-42.12
-44.05
-43.18
-39.23
-32.45
-23.62
-13.74
-3.85
5.21
12.87
18.77
22.76
24.87
25.35
24.61
23.29
21.94
21.03
20.73
20.92
21.28
21.39
20.94
19.74
17.83
15.38
12.63
9.78
6.91
3.94
0.64
-3.29
-8.21
-14.41
-22.09
-31.14
-40.98
-50.59
-58.55
-63.38
-63.95
-59.81
-51.31
-39.58
-26.11
-12.42
0.24
11.00
19.37
25.21
28.60
29.77
29.10
27.07
24.20
21.05
18.16
15.94
14.63
14.26
14.64
15.44
16.30
16.84
16.83
16.15
14.81
12.90
10.52
7.74
4.60
1.11
-2.77
-7.09
-11.97
-17.49
-23.57
-29.78
-35.28
-39.05
-40.09
-37.83
-32.28
-24.08
-14.19
-3.61
6.76
16.30
24.47
30.90
35.29
37.58
37.94
36.76
34.60
31.98
29.36
27.03
25.22
24.05
23.55
23.62
23.96
24.18
23.87
22.77
20.88
18.39
15.59
12.65
9.56
6.16
2.31
-2.14
-7.22
-12.97
-19.30
-26.00
-32.58
-38.12
-41.51
-41.65
-37.98
-30.61
-20.47
-8.98
2.37
12.37
20.36
26.13
29.79
31.51
31.43
29.67
26.48
22.36
18.05
14.32
11.78
10.62
10.54
10.99
11.34
11.17
10.40
9.13
7.54
5.71
3.57
0.96
-2.23
-6.03
-10.38
-15.21
-20.53
-26.37
-32.70
-39.22
-45.31
-50.01
-52.26
-51.20
-46.43
-38.27
-27.63
-15.89
-4.39
5.75
13.93
19.92
23.86
26.00
26.62
26.04
24.59
22.69
20.76
19.18
18.19
17.82
17.89
18.08
18.07
17.63
16.72
15.36
13.68
11.75
9.56
7.05
4.15
0.90
-2.72
-6.71
-11.22
-16.43
-22.45
-29.10
-35.72
-41.30
-44.66
-44.86
-41.53
-34.96
-25.98
-15.68
-5.13
4.81
13.51
20.58
25.70
28.71
29.58
28.55
26.10
22.90
19.66
16.97
15.15
14.23
14.04
14.28
14.63
14.89
14.94
14.73
14.19
13.23
11.72
9.58
6.79
3.39
-0.59
-5.12
-10.26
-15.96
-22.06
-28.06
-33.23
-36.67
-37.62
-35.64
-30.75
-23.44
-14.49
-4.85
4.60
13.09
20.03
25.09
28.07
29.01
28.14
25.91
22.88
19.70
16.97
15.08
14.13
13.94
14.16
14.38
14.32
13.87
13.04
11.93
10.54
8.81
6.65
3.99
0.83
-2.81
-6.97
-11.71
-17.03
-22.76
-28.35
-32.95
-35.55
-35.36
-32.02
-25.80
-17.45
-8.01
1.45
10.04
17.12
22.23
25.16
25.83
24.43
21.40
17.39
13.19
9.55
7.03
5.85
5.80
6.39
6.94
6.93
6.08
4.47
2.41
0.17
-2.13
-4.60
-7.47
-11.00
-15.32
-20.43
-26.16
-32.07
-37.50
-41.56
-43.31
-42.07
-37.62
-30.38
-21.29
-11.52
-2.14
6.06
12.57
17.12
19.53
19.81
18.19
15.13
11.35
7.66
4.71
2.84
2.03
1.94
2.11
2.08
1.60
0.60
-0.78
-2.40
-4.12
-5.95
-8.14
-11.05
-15.05
-20.34
-26.71
-33.51
-39.65
-43.95
-45.42
-43.58
-38.55
-30.94
-21.63
-11.59
-1.67
7.34
14.85
20.39
23.65
24.57
23.36
20.48
16.59
12.44
8.68
5.82
4.03
3.14
2.74
2.34
1.61
0.44
-1.05
-2.69
-4.44
-6.38
-8.78
-11.84
-15.78
-20.66
-26.48
-33.03
-39.86
-46.17
-50.85
-52.71
-50.85
-45.00
-35.63
-23.96
-11.56
0.09
10.05
18.29
25.55
33.06
41.86
52.42
64.33
76.61
88.06
97.61
104.48
108.07
108.01
104.28
97.56
89.32
81.46
75.41
71.12
66.79
59.35
45.83
24.79
-2.94
-34.50
-66.07
-94.11
-116.23
-131.33
-139.28
-140.47
-135.58
-125.52
-111.63
-95.58
-79.18
-64.06
-51.22
-41.04
-33.26
-27.32
-22.71
-19.16
-16.68
-15.31
-14.90
-14.90
-14.45
-12.66
-9.02
-3.62
2.84
9.29
14.71
18.48
20.60
21.68
22.64
24.35
27.09
30.32
32.75
32.72
28.86
20.56
8.29
-6.65
-22.47
-37.45
-50.13
-59.56
-65.32
-67.53
-66.84
-64.26
-60.97
-57.88
-55.44
-53.45
-51.14
-47.42
-41.02
-30.68
-15.21
6.30
34.03
66.93
102.48
136.84
165.62
184.99
192.88
189.50
177.10
159.06
138.70
118.33
99.02
80.84
63.46
46.68
30.60
15.66
2.53
-8.16
-15.86
-20.24
-21.34
-19.53
-15.51
-10.17
-4.36
1.13
5.69
8.91
10.57
10.82
10.12
9.17
8.69
9.18
10.77
13.42
17.24
22.77
31.00
43.06
59.47
79.52
100.90
120.12
133.53
138.63
135.05
124.84
111.55
99.01
89.92
85.07
83.40
82.59
79.81
72.21
57.38
33.97
2.39
-34.55
-71.81
-103.30
-123.94
-131.47
-127.33
-115.68
-101.58
-88.88
-79.25
-72.37
-67.16
-62.82
-59.20
-56.48
-54.50
-52.52
-49.47
-44.68
-38.26
-31.28
-25.22
-21.25
-19.70
-20.00
-21.11
-22.02
-22.30
-22.23
-22.58
-24.09
-27.22
-31.86
-37.44
-43.13
-48.01
-51.18
-52.02
-50.16
-45.59
-38.67
-30.10
-20.66
-11.13
-2.16
5.87
12.69
18.15
22.12
24.51
25.22
24.31
21.94
18.56
14.80
11.38
8.91
7.66
7.44
7.79
8.08
7.86
6.93
5.36
3.44
1.45
-0.42
-2.12
-3.70
-5.34
-7.27
-9.76
-13.04
-17.19
-21.97
-26.77
-30.72
-32.88
-32.59
-29.66
-24.40
-17.57
-10.01
-2.53
4.26
10.01
14.50
17.63
19.38
19.87
19.32
18.09
16.57
15.10
13.90
13.01
12.39
11.91
11.41
10.74
9.82
8.65
7.30
5.91
4.61
3.45
2.34
1.10
-0.48
-2.58
-5.22
-8.34
-11.83
-15.60
-19.48
-23.18
-26.17
-27.73
-27.15
-24.02
-18.36
-10.69
-1.84
7.36
16.19
24.10
30.69
35.63
38.68
39.74
39.03
36.97
34.19
31.30
28.72
26.64
25.04
23.82
22.82
21.93
21.03
20.02
18.75
17.08
14.94
12.35
9.50
6.60
3.78
0.95
-2.20
-6.10
-11.01
-16.84
-23.06
-28.79
-33.09
-35.23
-35.02
-32.66
-28.69
-23.72
-18.23
-12.60
-7.14
-2.19
1.89
4.66
5.90
5.62
4.09
1.76
-0.85
-3.24
-5.11
-6.32
-6.93
-7.15
-7.30
-7.68
-8.45
-9.60
-10.91
-12.18
-13.22
-14.08
-14.91
-15.96
-17.49
-19.67
-22.61
-26.29
-30.58
-35.05
-39.04
-41.65
-42.07
-39.74
-34.68
-27.43
-18.90
-10.08
-1.78
5.46
11.35
15.70
18.34
19.15
18.20
15.80
12.52
9.01
5.78
3.09
0.96
-0.79
-2.37
-3.93
-5.56
-7.31
-9.22
-11.33
-13.69
-16.29
-19.11
-22.22
-25.74
-29.97
-35.18
-41.46
-48.56
-55.81
-62.19
-66.56
-67.99
-66.08
-61.14
-54.11
-46.26
-38.80
-32.47
-27.40
-23.14
-18.89
-13.94
-7.76
-0.26
8.38
17.81
27.55
37.08
45.78
53.13
58.80
62.87
65.68
67.75
69.33
70.29
70.00
67.68
62.71
54.93
44.84
33.43
22.08
12.20
4.98
1.17
0.87
3.66
8.66
14.93
21.65
28.25
34.33
39.58
43.73
46.50
47.78
47.59
46.13
43.72
40.63
37.08
33.25
29.27
25.26
21.41
17.87
14.78
12.17
10.04
8.35
7.01
5.94
5.04
4.16
3.06
1.49
-0.69
-3.45
-6.56
-9.73
-12.72
-15.43
-17.90
-20.14
-21.99
-23.11
-23.05
-21.49
-18.35
-13.94
-8.81
-3.62
1.01
4.66
7.06
8.20
8.21
7.37
5.98
4.32
2.54
0.68
-1.23
-3.17
-5.04
-6.67
-7.91
-8.79
-9.40
-9.96
-10.68
-11.65
-12.93
-14.52
-16.43
-18.75
-21.55
-24.74
-27.99
-30.72
-32.19
-31.83
-29.38
-25.03
-19.28
-12.78
-6.10
0.41
6.48
11.90
16.34
19.44
20.97
20.98
19.78
17.91
15.82
13.77
11.76
9.68
7.46
5.18
2.99
1.10
-0.47
-1.85
-3.31
-5.07
-7.28
-9.93
-12.97
-16.39
-20.15
-24.08
-27.88
-31.05
-32.97
-33.14
-31.30
-27.52
-22.15
-15.71
-8.75
-1.81
4.56
9.82
13.55
15.54
15.92
15.17
13.93
12.78
12.05
11.68
11.36
10.71
9.57
8.04
6.42
5.02
3.95
3.06
2.00
0.40
-1.95
-5.05
-8.73
-12.78
-17.05
-21.29
-25.18
-28.14
-29.51
-28.73
-25.55
-20.26
-13.47
-6.06
1.17
7.61
12.95
16.99
19.67
21.04
21.24
20.48
19.07
17.31
15.39
13.43
11.47
9.48
7.49
5.52
3.69
2.08
0.76
-0.28
-1.17
-2.15
-3.55
-5.66
-8.61
-12.35
-16.59
-20.95
-24.94
-28.08
-29.90
-30.05
-28.25
-24.47
-18.90
-12.00
-4.48
2.87
9.27
14.20
17.44
19.05
19.33
18.61
17.24
15.46
13.44
11.37
9.43
7.79
6.50
5.54
4.72
3.89
2.89
1.69
0.33
-1.16
-2.77
-4.66
-6.99
-9.98
-13.76
-18.38
-23.58
-28.86
-33.46
-36.54
-37.41
-35.70
-31.48
-25.28
-17.90
-10.17
-2.79
3.77
9.28
13.63
16.77
18.68
19.40
19.06
17.97
16.52
15.14
14.15
13.63
13.41
13.17
12.59
11.51
10.02
8.37
6.79
5.45
4.28
3.10
1.64
-0.28
-2.74
-5.74
-9.21
-13.12
-17.37
-21.74
-25.78
-28.93
-30.57
-30.21
-27.68
-23.16
-17.08
-10.04
-2.65
4.54
11.03
16.37
20.20
22.32
22.79
21.89
20.15
18.09
16.13
14.49
13.21
12.19
11.30
10.44
9.53
8.51
7.37
6.08
4.64
3.07
1.35
-0.50
-2.48
-4.56
-6.76
-9.17
-11.92
-15.12
-18.67
-22.18
-25.04
-26.49
-25.99
-23.30
-18.65
-12.58
-5.81
0.99
7.28
12.77
17.22
20.53
22.64
23.59
23.43
22.39
20.77
18.96
17.36
16.17
15.44
15.03
14.69
14.19
13.43
12.31
10.80
8.88
6.57
3.91
1.07
-1.82
-4.73
-7.73
-11.01
-14.77
-19.02
-23.50
-27.72
-31.08
-33.04
-33.19
-31.35
-27.54
-22.03
-15.22
-7.76
-0.34
6.41
11.99
16.13
18.77
20.02
20.10
19.33
18.09
16.79
15.78
15.23
15.09
15.12
15.00
14.52
13.64
12.51
11.30
10.19
9.14
8.01
6.56
4.61
2.06
-1.06
-4.68
-8.71
-13.07
-17.65
-22.26
-26.55
-30.05
-32.13
-32.27
-30.12
-25.74
-19.49
-12.03
-4.06
3.75
10.89
16.96
21.72
25.03
26.91
27.53
27.15
26.06
24.52
22.69
20.72
18.72
16.89
15.39
14.30
13.46
12.60
11.40
9.78
7.86
5.91
4.16
2.53
0.71
-1.75
-5.07
-9.17
-13.68
-18.19
-22.39
-26.14
-29.36
-31.81
-33.06
-32.56
-29.99
-25.34
-19.06
-11.84
-4.38
2.72
9.09
14.47
18.70
21.65
23.26
23.59
22.85
21.34
19.46
17.56
15.91
14.63
13.72
13.06
12.51
11.95
11.34
10.71
10.12
9.57
9.01
8.31
7.36
6.03
4.25
1.93
-0.96
-4.44
-8.34
-12.28
-15.60
-17.52
-17.32
-14.66
-9.67
-2.94
4.63
12.16
18.96
24.69
29.29
32.92
35.79
38.01
39.67
40.80
41.53
42.08
42.72
43.63
44.73
45.63
45.74
44.50
41.65
37.29
31.90
26.06
20.19
14.50
8.89
3.19
-2.85
-9.34
-16.29
-23.68
-31.39
-39.22
-46.81
-53.57
-58.77
-61.77
-62.16
-59.97
-55.66
-49.90
-43.51
-37.13
-31.24
-26.15
-22.06
-19.08
-17.22
-16.33
-16.07
-16.01
-15.72
-14.85
-13.30
-11.20
-8.88
-6.73
-5.11
-4.28
-4.33
-5.22
-6.87
-9.18
-11.98
-15.07
-18.14
-21.01
-23.69
-26.49
-29.78
-33.79
-38.27
-42.47
-45.34
-45.92
-43.73
-38.95
-32.30
-24.71
-17.12
-10.28
-4.78
-1.02
0.74
0.56
-1.12
-3.63
-6.29
-8.70
-10.84
-12.98
-15.35
-17.95
-20.36
-22.05
-22.61
-22.02
-20.64
-18.99
-17.49
-16.28
-15.45
-15.05
-15.38
-16.76
-19.35
-22.87
-26.51
-29.22
-29.96
-28.20
-23.96
-17.73
-10.27
-2.31
5.64
13.25
20.32
26.66
31.97
35.92
38.19
38.60
37.26
34.46
30.77
26.81
23.21
20.46
18.87
18.39
18.66
19.06
18.90
17.64
15.18
11.82
8.20
4.97
2.45
0.54
-1.05
-2.66
-4.34
-5.71
-6.20
-5.26
-2.69
1.34
6.41
12.22
18.57
25.43
32.60
39.55
45.44
49.44
51.11
50.64
48.70
46.04
43.18
40.19
36.88
33.14
29.10
25.16
21.81
19.37
17.85
16.98
16.38
15.65
14.50
12.69
10.02
6.36
1.68
-3.80
-9.52
-14.67
-18.27
-19.49
-17.85
-13.48
-7.03
0.45
7.80
14.09
18.72
21.52
22.66
22.50
21.54
20.23
18.92
17.79
16.83
15.82
14.50
12.61
10.09
7.12
4.12
1.54
-0.35
-1.49
-2.12
-2.60
-3.26
-4.33
-5.88
-7.90
-10.35
-13.23
-16.40
-19.62
-22.45
-24.32
-24.74
-23.44
-20.48
-16.24
-11.28
-6.18
-1.33
3.06
6.94
10.21
12.65
13.84
13.37
11.00
6.82
1.38
-4.57
-10.23
-15.17
-19.47
-23.63
-28.37
-34.18
-41.01
-48.07
-54.03
-57.48
-57.61
-54.76
-50.47
-47.23
-47.81
-54.25
-66.89
-83.62
-100.04
-110.57
-110.48
-97.89
-74.95
-47.09
-21.13
-2.39
7.39
10.38
11.56
16.73
30.80
56.49
93.46
137.75
181.87
216.48
233.59
230.45
211.71
188.44
173.70
176.63
198.12
230.37
260.65
277.07
273.33
250.26
213.85
171.59
129.38
90.31
55.31
24.60
-1.57
-22.84
-39.82
-54.58
-70.34
-89.97
-114.14
-140.44
-163.93
-179.24
-182.98
-175.27
-159.66
-141.50
-125.68
-114.92
-109.33
-107.10
-105.79
-103.45
-99.23
-93.34
-86.69
-80.44
-75.52
-72.51
-71.47
-72.05
-73.52
-75.04
-75.87
-75.42
-73.42
-69.77
-64.65
-58.23
-50.79
-42.50
-33.47
-23.76
-13.56
-3.26
6.42
14.53
20.20
23.01
23.16
21.56
19.49
18.17
18.28
19.82
22.07
24.05
24.86
24.05
21.64
18.10
14.03
9.91
5.89
1.84
-2.52
-7.36
-12.60
-17.89
-22.74
-26.73
-29.66
-31.49
-32.31
-32.15
-30.89
-28.38
-24.46
-19.16
-12.75
-5.61
1.82
9.21
16.26
22.69
28.11
32.07
34.17
34.26
32.60
29.80
26.60
23.60
21.03
18.73
16.45
14.00
11.46
9.15
7.39
6.25
5.44
4.40
2.47
-0.70
-5.13
-10.46
-16.09
-21.39
-25.83
-28.97
-30.52
-30.28
-28.15
-24.18
-18.63
-11.88
-4.43
3.17
10.44
16.99
22.48
26.59
29.00
29.52
28.13
25.17
21.28
17.28
14.05
12.09
11.49
11.89
12.63
12.97
12.35
10.51
7.51
3.85
0.16
-2.93
-5.11
-6.51
-7.68
-9.42
-12.37
-16.87
-22.85
-29.88
-37.33
-44.39
-50.16
-53.70
-54.21
-51.25
-45.02
-36.21
-25.98
-15.37
-5.16
4.29
12.89
20.59
27.19
32.32
35.63
36.93
36.36
34.39
31.67
28.84
26.40
24.60
23.49
22.98
22.91
23.08
23.25
23.12
22.26
20.34
17.17
12.83
7.71
2.37
-2.75
-7.37
-11.57
-15.59
-19.73
-24.06
-28.42
-32.31
-35.10
-36.19
-35.13
-31.78
-26.32
-19.20
-11.08
-2.71
5.27
12.38
18.34
23.01
26.36
28.34
28.93
28.21
26.37
23.71
20.57
17.31
14.23
11.56
9.45
8.02
7.31
7.25
7.62
8.06
8.11
7.40
5.66
2.86
-0.86
-5.24
-10.00
-14.94
-19.95
-25.02
-30.08
-35.04
-39.66
-43.58
-46.33
-47.44
-46.61
-43.75
-39.19
-33.60
-27.82
-22.60
-18.34
-15.03
-12.41
-10.22
-8.53
-7.87
-9.15
-13.22
-20.47
-30.48
-41.98
-53.30
-62.89
-69.89
-74.43
-77.32
-79.62
-82.01
-84.52
-86.60
-87.45
-86.20
-82.27
-75.34
-65.52
-53.43
-40.44
-28.38
-18.80
-12.06
-6.44
1.90
18.03
46.49
89.16
143.65
203.27
258.52
300.02
321.61
322.31
306.45
282.11
258.27
241.85
235.82
238.61
245.11
248.74
243.62
226.21
195.80
154.34
105.55
54.18
5.25
-36.70
-68.12
-87.39
-95.36
-95.27
-91.99
-90.27
-93.17
-101.05
-111.86
-122.35
-129.57
-131.89
-129.36
-123.29
-115.51
-107.77
-101.21
-96.25
-92.64
-89.72
-86.54
-82.19
-75.94
-67.46
-57.02
-45.45
-34.08
-24.28
-17.12
-13.04
-11.75
-12.37
-13.73
-14.71
-14.49
-12.77
-9.77
-6.13
-2.67
-0.15
0.96
0.57
-1.06
-3.36
-5.75
-7.75
-9.15
-10.01
-10.74
-11.87
-13.97
-17.30
-21.77
-26.75
-31.34
-34.55
-35.74
-34.78
-32.02
-28.08
-23.47
-18.48
-13.11
-7.22
-0.78
5.98
12.50
18.11
22.18
24.33
24.55
23.19
20.86
18.18
15.69
13.58
11.82
10.20
8.56
6.93
5.48
4.43
3.80
3.37
2.66
1.16
-1.48
-5.30
-10.06
-15.29
-20.43
-24.98
-28.48
-30.59
-31.09
-29.85
-26.84
-22.20
-16.18
-9.11
-1.47
6.19
13.24
19.07
23.18
25.25
25.19
23.21
19.76
15.43
10.92
6.89
3.90
2.26
2.05
3.02
4.72
6.51
7.74
7.88
6.58
3.77
-0.35
-5.42
-11.06
-16.93
-22.82
-28.57
-33.97
-38.65
-42.05
-43.55
-42.59
-38.93
-32.73
-24.61
-15.48
-6.32
2.04
9.11
14.65
18.67
21.25
22.48
22.51
21.67
20.36
19.06
18.08
17.40
16.69
15.46
13.36
10.42
7.04
3.89
1.61
0.51
0.37
0.58
0.22
-1.51
-5.15
-10.72
-17.85
-25.80
-33.73
-40.75
-46.04
-48.89
-48.78
-45.47
-39.23
-30.79
-21.19
-11.51
-2.56
5.35
12.28
18.35
23.54
27.47
29.65
29.70
27.68
24.25
20.38
17.01
14.63
13.23
12.30
11.25
9.68
7.51
4.91
2.18
-0.47
-2.94
-5.26
-7.51
-9.85
-12.57
-16.09
-20.97
-27.69
-36.46
-47.03
-58.50
-69.35
-77.73
-81.92
-80.91
-74.92
-65.51
-55.22
-46.79
-42.24
-42.23
-45.85
-51.16
-55.92
-58.56
-58.75
-57.53
-56.84
-58.69
-64.31
-73.50
-84.44
-94.15
-99.23
-96.81
-85.23
-64.47
-36.15
-3.03
31.91
66.42
99.77
132.79
167.32
204.94
245.53
286.42
322.63
348.07
357.73
349.97
327.89
298.95
272.41
255.56
250.44
252.82
254.16
245.63
222.29
184.90
138.74
90.22
43.63
0.06
-41.26
-80.49
-115.43
-142.03
-156.71
-158.78
-151.46
-140.46
-131.30
-126.97
-126.94
-128.19
-127.22
-122.06
-113.02
-102.25
-92.43
-85.57
-82.37
-82.40
-84.58
-87.84
-91.44
-94.98
-98.24
-100.98
-102.81
-103.23
-101.69
-97.77
-91.26
-82.32
-71.47
-59.46
-47.09
-35.04
-23.69
-13.19
-3.56
5.13
12.65
18.70
23.01
25.45
26.09
25.24
23.35
20.98
18.67
16.90
15.99
16.05
17.00
18.50
20.06
21.13
21.13
19.61
16.23
10.98
4.05
-4.01
-12.54
-20.77
-28.01
-33.75
-37.64
-39.48
-39.24
-36.98
-32.82
-26.95
-19.64
-11.29
-2.46
6.27
14.30
21.12
26.42
30.03
31.93
32.27
31.26
29.26
26.75
24.25
22.22
20.92
20.34
20.25
20.30
20.14
19.52
18.29
16.28
13.32
9.29
4.18
-1.74
-7.95
-13.86
-19.00
-23.24
-26.77
-29.91
-32.80
-35.25
-36.65
-36.28
-33.61
-28.53
-21.37
-12.78
-3.43
6.02
14.96
22.75
28.67
32.13
32.82
31.03
27.59
23.72
20.60
18.98
19.04
20.29
21.99
23.32
23.76
23.10
21.39
18.82
15.58
11.79
7.56
3.01
-1.67
-6.34
-10.89
-15.44
-20.24
-25.57
-31.59
-38.08
-44.41
-49.60
-52.58
-52.47
-48.91
-42.11
-32.86
-22.16
-11.05
-0.37
9.33
17.67
24.39
29.24
32.21
33.46
33.44
32.84
32.24
31.99
32.08
32.21
31.98
31.13
29.64
27.67
25.51
23.42
21.56
19.97
18.59
17.26
15.74
13.75
11.03
7.43
2.85
-2.63
-8.88
-15.66
-22.64
-29.32
-35.06
-39.06
-40.57
-39.10
-34.60
-27.49
-18.54
-8.69
1.23
10.49
18.57
24.96
29.31
31.46
31.54
30.12
27.98
26.00
24.77
24.51
25.04
25.97
26.83
27.26
27.02
26.05
24.40
22.19
19.70
17.17
14.76
12.40
9.77
6.42
2.04
-3.40
-9.63
-16.19
-22.61
-28.52
-33.61
-37.55
-39.87
-40.03
-37.57
-32.30
-24.47
-14.71
-3.96
6.82
16.75
25.13
31.49
35.59
37.40
37.18
35.38
32.63
29.66
27.05
25.30
24.61
24.89
25.81
26.82
27.25
26.51
24.27
20.63
16.03
11.17
6.70
2.95
-0.17
-3.08
-6.36
-10.55
-16.02
-22.92
-31.20
-40.32
-49.23
-56.30
-59.82
-58.57
-52.33
-42.11
-29.68
-16.96
-5.30
4.75
13.30
20.56
26.54
30.97
33.52
34.17
33.33
31.65
29.78
28.13
26.79
25.71
24.82
24.02
23.37
22.87
22.50
22.14
21.58
20.58
18.93
16.48
13.21
9.25
4.77
0.07
-4.64
-9.28
-13.91
-18.73
-23.94
-29.59
-35.36
-40.64
-44.51
-46.08
-44.70
-40.16
-32.81
-23.31
-12.55
-1.37
9.50
19.48
28.11
34.99
39.87
42.67
43.55
42.95
41.44
39.62
37.95
36.60
35.42
34.16
32.51
30.42
28.04
25.70
23.69
22.17
21.04
19.94
18.40
15.99
12.44
7.66
1.81
-4.77
-11.78
-19.08
-26.82
-35.42
-45.43
-57.36
-71.46
-87.64
-105.61
-124.95
-145.26
-166.29
-187.75
-209.24
-230.17
-249.75
-267.14
-281.56
-292.38
-299.06
-301.28
-299.08
-293.16
-284.92
-276.26
-268.92
-263.74
-260.10
-255.91
-248.34
-234.86
-214.12
-186.23
-152.52
-114.81
-74.76
-33.72
7.26
47.03
84.14
116.95
143.99
164.42
178.29
186.56
190.85
193.02
194.83
197.78
202.97
211.06
222.23
236.04
251.51
267.05
280.73
290.48
294.32
290.77
279.17
260.13
235.74
209.26
184.33
163.94
149.51
140.64
135.52
131.76
127.37
121.30
113.44
104.26
94.33
83.98
73.27
62.08
50.34
38.09
25.54
12.92
0.41
-11.93
-24.19
-36.52
-48.95
-61.24
-72.79
-82.61
-89.55
-92.59
-91.22
-85.63
-76.72
-65.76
-53.99
-42.28
-30.98
-20.05
-9.42
0.78
10.13
18.04
23.94
27.60
29.14
29.02
27.90
26.45
25.26
24.67
24.84
25.65
26.82
27.85
28.25
27.60
25.68
22.58
18.62
14.33
10.20
6.50
3.13
-0.34
-4.51
-9.84
-16.34
-23.47
-30.21
-35.34
-37.81
-37.04
-33.01
-26.17
-17.35
-7.51
2.43
11.53
18.95
24.06
26.54
26.54
24.66
21.85
19.10
17.10
16.11
15.97
16.25
16.40
16.03
14.88
12.94
10.38
7.44
4.40
1.43
-1.43
-4.34
-7.50
-11.20
-15.64
-20.92
-26.89
-33.05
-38.54
-42.27
-43.30
-41.09
-35.79
-28.08
-18.99
-9.49
-0.34
7.92
14.86
20.07
23.22
24.22
23.33
21.22
18.65
16.30
14.47
13.14
12.07
10.98
9.71
8.25
6.67
5.05
3.45
1.81
0.04
-2.02
-4.69
-8.37
-13.46
-20.13
-28.12
-36.57
-44.14
-49.37
-51.09
-48.82
-42.81
-33.89
-23.18
-11.76
-0.52
9.82
18.68
25.62
30.31
32.59
32.60
30.73
27.62
24.05
20.70
18.06
16.24
15.03
14.00
12.75
11.05
8.93
6.56
4.12
1.64
-1.04
-4.24
-8.28
-13.39
-19.49
-26.23
-32.89
-38.53
-42.18
-43.01
-40.60
-34.98
-26.60
-16.18
-4.51
7.59
19.33
29.82
38.18
43.61
45.68
44.50
40.78
35.59
30.08
25.15
21.29
18.56
16.70
15.33
14.10
12.79
11.43
10.19
9.29
8.73
8.17
6.95
4.20
-0.76
-8.13
-17.38
-27.33
-36.41
-43.02
-45.93
-44.58
-39.11
-30.25
-19.14
-7.02
4.91
15.69
24.62
31.25
35.44
37.15
36.51
33.72
29.12
23.22
16.76
10.62
5.60
2.18
0.34
-0.35
-0.63
-1.15
-2.36
-4.40
-7.28
-10.96
-15.45
-20.76
-26.59
-32.30
-36.91
-39.40
-39.05
-35.74
-29.91
-22.37
-14.03
-5.69
2.07
8.67
13.54
16.17
16.38
14.74
12.62
11.98
14.70
21.90
33.53
48.44
64.99
81.65
97.44
111.87
124.68
135.42
143.31
147.57
147.82
144.28
137.69
128.87
118.41
106.50
93.17
78.59
63.28
47.98
33.48
20.33
8.88
-0.57
-7.57
-11.59
-12.18
-9.29
-3.39
4.59
13.54
22.39
30.24
36.42
40.35
41.65
40.11
35.84
29.33
21.43
13.18
5.59
-0.51
-4.74
-7.17
-8.34
-9.18
-10.73
-13.92
-19.24
-26.67
-35.73
-45.67
-55.76
-65.43
-74.30
-82.06
-88.33
-92.55
-94.19
-92.88
-88.69
-82.09
-73.86
-64.81
-55.62
-46.78
-38.69
-31.74
-26.27
-22.60
-20.96
-21.32
-23.42
-26.63
-30.04
-32.59
-33.32
-31.70
-27.82
-22.45
-16.65
-11.46
-7.48
-4.88
-3.42
-2.95
-3.43
-5.02
-7.84
-11.72
-16.14
-20.40
-23.82
-25.99
-26.72
-26.01
-23.88
-20.26
-15.14
-8.69
-1.43
5.86
12.26
17.02
19.79
20.75
20.43
19.47
18.31
17.12
15.84
14.35
12.66
10.98
9.55
8.54
7.92
7.54
7.22
6.93
6.67
6.43
6.01
4.99
2.92
-0.47
-4.93
-9.67
-13.53
-15.30
-14.23
-10.16
-3.56
4.69
13.57
22.11
29.45
34.85
37.78
37.93
35.39
30.60
24.29
17.27
10.15
3.24
-3.38
-9.70
-15.61
-20.79
-24.82
-27.33
-28.21
-27.69
-26.34
-24.97
-24.33
-24.99
-27.17
-30.88
-35.89
-41.86
-48.22
-54.21
-58.82
-61.02
-60.04
-55.70
-48.52
-39.57
-30.07
-21.10
-13.26
-6.79
-1.75
1.80
3.60
3.42
1.20
-2.75
-7.73
-12.74
-16.80
-19.21
-19.76
-18.74
-16.79
-14.64
-12.82
-11.61
-11.03
-10.98
-11.37
-12.17
-13.49
-15.38
-17.89
-20.99
-24.45
-27.81
-30.30
-31.04
-29.13
-24.13
-16.05
-5.54
6.44
18.82
30.64
41.13
49.56
55.29
57.72
56.63
52.18
45.05
36.29
27.08
18.45
11.13
5.54
1.75
-0.37
-1.18
-1.07
-0.47
0.30
1.02
1.55
1.80
1.62
0.90
-0.46
-2.52
-5.28
-8.78
-13.08
-18.27
-24.32
-30.96
-37.58
-43.26
-47.03
-48.12
-46.16
-41.33
-34.16
-25.41
-15.88
-6.26
2.86
10.92
17.46
22.08
24.63
25.15
23.93
21.40
18.08
14.47
11.08
8.36
6.53
5.63
5.36
5.26
4.79
3.59
1.61
-0.95
-3.76
-6.55
-9.20
-11.85
-14.72
-18.08
-22.00
-26.32
-30.56
-34.02
-35.92
-35.65
-32.95
-28.00
-21.28
-13.48
-5.24
2.93
10.60
17.29
22.46
25.55
26.18
24.37
20.60
15.70
10.65
6.18
2.61
-0.23
-2.77
-5.49
-8.70
-12.41
-16.44
-20.53
-24.42
-28.00
-31.26
-34.38
-37.57
-41.06
-45.03
-49.55
-54.54
-59.74
-64.73
-68.89
-71.59
-72.22
-70.44
-66.25
-60.05
-52.59
-44.68
-37.07
-30.23
-24.33
-19.33
-15.02
-11.01
-6.82
-1.86
4.34
11.92
20.52
29.32
37.23
43.22
46.64
47.34
45.67
42.35
38.18
33.92
30.16
27.16
24.84
22.86
20.74
18.16
15.04
11.53
7.92
4.48
1.25
-1.78
-4.60
-7.06
-8.82
-9.59
-9.30
-8.21
-6.89
-5.95
-5.71
-6.03
-6.34
-5.98
-4.48
-1.88
1.33
4.41
6.81
8.34
9.23
9.94
10.81
11.97
13.25
14.37
15.23
15.84
16.45
17.21
18.13
18.95
19.31
18.84
17.46
15.33
12.80
10.21
7.80
5.57
3.42
1.40
-0.28
-1.07
-0.39
2.11
6.44
12.11
18.43
24.70
30.53
35.69
40.14
43.66
45.90
46.36
44.72
40.99
35.57
29.16
22.52
16.34
11.09
7.04
4.22
2.50
1.57
1.02
0.42
-0.62
-2.29
-4.62
-7.49
-10.73
-14.25
-18.07
-22.36
-27.30
-32.97
-39.20
-45.47
-50.97
-54.84
-56.36
-55.24
-51.73
-46.43
-40.12
-33.44
-26.75
-20.10
-13.45
-6.82
-0.48
5.18
9.72
12.94
14.97
16.22
17.15
18.08
19.07
19.81
20.02
19.51
18.37
16.94
15.64
14.83
14.52
14.43
14.06
12.90
10.60
7.18
3.03
-1.17
-4.58
-6.47
-6.25
-3.76
0.87
7.11
14.21
21.34
27.80
33.13
37.13
39.84
41.31
41.56
40.56
38.28
34.82
30.54
25.93
21.48
17.49
14.00
10.80
7.60
4.13
0.18
-4.47
-10.07
-16.92
-25.17
-34.62
-44.55
-53.83
-61.24
-65.84
-67.34
-66.09
-62.91
-58.62
-53.73
-48.29
-42.02
-34.53
-25.60
-15.37
-4.38
6.35
15.47
21.44
22.87
18.95
9.87
-3.16
-18.04
-32.29
-43.63
-50.37
-51.65
-47.43
-38.43
-26.07
-12.32
0.55
10.53
16.32
17.67
15.38
10.95
6.00
1.75
-1.24
-3.09
-4.45
-6.13
-8.79
-12.79
-18.11
-24.43
-31.23
-37.87
-43.60
-47.63
-49.25
-47.94
-43.62
-36.68
-27.88
-18.06
-7.89
2.33
12.62
23.04
33.47
43.42
52.13
58.82
63.05
64.88
64.92
64.01
62.86
61.68
60.07
57.21
52.23
44.71
34.81
23.26
11.07
-0.76
-11.36
-20.12
-26.49
-30.06
-30.55
-28.12
-23.32
-17.24
-11.22
-6.51
-4.06
-4.32
-7.18
-12.03
-17.86
-23.47
-27.63
-29.37
-28.19
-24.16
-17.86
-10.20
-2.15
5.41
11.88
16.85
20.12
21.61
21.39
19.72
17.03
13.83
10.65
7.86
5.58
3.66
1.90
0.08
-1.84
-3.76
-5.58
-7.28
-8.98
-10.92
-13.23
-15.94
-18.88
-21.79
-24.45
-26.69
-28.49
-29.94
-31.15
-32.32
-33.66
-35.40
-37.65
-40.34
-43.00
-44.88
-45.03
-42.53
-36.82
-27.90
-16.37
-3.30
10.00
22.35
32.91
41.28
47.51
51.89
54.79
56.53
57.38
57.54
57.33
57.10
57.25
58.07
59.70
62.07
64.96
68.15
71.42
74.55
77.30
79.46
80.86
81.54
81.80
82.18
83.37
85.91
90.00
95.36
101.32
107.13
112.33
117.02
121.67
126.75
131.87
135.45
134.89
127.31
110.50
83.56
47.27
3.96
-42.67
-87.92
-126.59
-153.94
-166.85
-164.90
-150.71
-129.19
-105.92
-85.55
-70.60
-61.34
-56.52
-54.38
-53.38
-52.58
-51.55
-50.24
-48.76
-47.30
-46.06
-45.19
-44.93
-45.57
-47.42
-50.59
-54.81
-59.42
-63.46
-66.15
-67.12
-66.55
-64.98
-62.88
-60.44
-57.34
-52.98
-46.70
-38.09
-27.15
-14.33
-0.55
13.00
25.08
34.72
41.48
45.45
47.16
47.24
46.11
43.96
40.79
36.70
32.01
27.39
23.58
21.17
20.33
20.76
21.91
23.15
23.97
24.13
23.51
22.03
19.55
16.00
11.45
6.23
0.89
-4.11
-8.47
-12.28
-15.77
-19.07
-22.01
-24.15
-24.93
-24.01
-21.42
-17.51
-12.77
-7.69
-2.60
2.22
6.55
10.17
12.85
14.43
14.86
14.19
12.56
10.26
7.69
5.39
3.88
3.57
4.56
6.59
9.06
11.17
12.12
11.29
8.41
3.53
-2.89
-10.17
-17.51
-24.23
-29.98
-34.84
-39.24
-43.70
-48.47
-53.29
-57.35
-59.52
-58.77
-54.63
-47.41
-38.09
-28.05
-18.67
-11.01
-5.65
-2.69
-1.84
-2.50
-3.91
-5.27
-5.85
-5.19
-3.14
-0.00
3.56
6.73
8.72
9.10
7.91
5.59
2.67
-0.46
-3.74
-7.40
-11.75
-16.95
-22.90
-29.25
-35.48
-40.99
-45.19
-47.52
-47.48
-44.84
-39.59
-32.12
-23.14
-13.50
-4.07
4.45
11.52
16.78
20.05
21.34
20.89
19.09
16.50
13.73
11.29
9.50
8.49
8.22
8.52
9.18
10.04
10.95
11.79
12.37
12.46
11.83
10.21
7.45
3.52
-1.39
-6.81
-11.98
-15.98
-17.95
-17.28
-13.88
-8.16
-0.90
6.87
14.27
20.55
25.21
27.96
28.70
27.53
24.76
20.86
16.41
11.95
7.86
4.38
1.64
-0.31
-1.46
-1.84
-1.67
-1.30
-1.18
-1.78
-3.49
-6.51
-10.83
-16.19
-22.08
-27.81
-32.55
-35.45
-35.87
-33.47
-28.33
-20.92
-12.04
-2.59
6.47
14.34
20.35
24.16
25.71
25.26
23.28
20.28
16.75
12.99
9.21
5.59
2.29
-0.49
-2.64
-4.20
-5.41
-6.59
-8.04
-10.00
-12.63
-16.09
-20.53
-25.89
-31.79
-37.36
-41.39
-42.65
-40.34
-34.40
-25.56
-15.04
-4.22
5.77
14.11
20.36
24.34
26.08
25.85
24.03
21.15
17.74
14.22
10.86
7.76
4.89
2.15
-0.52
-3.14
-5.67
-8.01
-10.11
-12.14
-14.50
-17.81
-22.60
-29.03
-36.63
-44.24
-50.32
-53.27
-52.07
-46.46
-37.04
-25.02
-11.82
1.31
13.44
24.00
32.57
38.75
42.24
42.86
40.88
37.03
32.33
27.82
24.10
21.21
18.66
15.86
12.46
8.55
4.62
1.20
-1.44
-3.49
-5.48
-8.18
-12.24
-18.09
-25.73
-34.64
-43.78
-51.65
-56.60
-57.27
-52.96
-43.88
-31.06
-15.99
-0.15
15.20
29.12
40.94
50.11
56.21
59.08
59.01
56.64
52.95
48.83
44.99
41.74
39.14
37.05
35.38
34.12
33.26
32.73
32.27
31.43
29.71
26.68
22.19
16.44
9.89
3.11
-3.41
-9.45
-15.14
-20.87
-27.19
-34.59
-43.26
-52.91
-62.67
-71.16
-76.73
-77.94
-73.91
-64.66
-51.10
-34.83
-17.65
-1.20
13.45
25.64
35.18
42.05
46.24
47.86
47.19
44.85
41.70
38.73
36.70
35.90
36.06
36.49
36.42
35.38
33.42
31.04
28.90
27.36
26.25
24.88
22.41
18.36
12.82
6.52
0.36
-5.04
-9.73
-14.44
-20.23
-28.06
-38.31
-50.69
-64.18
-77.29
-88.29
-95.60
-98.06
-95.23
-87.58
-76.36
-63.31
-50.08
-37.79
-26.63
-15.96
-4.63
8.22
22.67
37.66
51.31
61.67
67.65
69.87
71.00
75.11
86.32
107.15
137.23
173.14
209.47
240.70
262.96
274.86
277.20
271.64
259.66
242.06
219.16
191.54
160.49
127.85
95.52
64.95
36.98
11.93
-10.26
-30.06
-48.51
-67.19
-87.62
-110.56
-135.30
-159.76
-181.29
-197.83
-208.80
-215.04
-218.13
-219.38
-219.37
-217.98
-214.88
-209.91
-203.13
-194.59
-184.23
-172.17
-159.18
-146.74
-136.83
-131.07
-130.00
-132.99
-138.71
-145.74
-152.73
-158.22
-160.45
-157.46
-147.94
-131.85
-110.24
-84.41
-54.93
-21.82
14.30
50.85
82.96
104.92
112.71
106.11
88.96
67.42
47.17
31.35
20.18
12.30
6.60
3.23
3.47
8.54
18.71
32.75
48.48
63.51
76.03
85.18
91.05
94.28
95.42
94.67
91.85
86.76
79.60
71.19
62.79
55.67
50.66
47.96
47.21
47.70
48.75
49.83
50.60
50.76
49.95
47.79
43.94
38.35
31.26
23.21
14.72
6.12
-2.60
-11.65
-21.15
-30.77
-39.63
-46.39
-49.73
-48.74
-43.30
-34.02
-22.05
-8.72
4.75
17.39
28.40
37.17
43.21
46.33
46.61
44.47
40.60
35.82
30.97
26.74
23.61
21.72
20.95
20.87
20.95
20.67
19.68
17.80
15.11
11.78
8.06
4.15
0.12
-4.15
-8.96
-14.67
-21.58
-29.61
-38.19
-46.24
-52.37
-55.24
-53.96
-48.30
-38.79
-26.54
-12.95
0.66
13.21
23.97
32.48
38.45
41.80
42.64
41.37
38.64
35.34
32.31
30.01
28.38
26.84
24.61
21.15
16.38
10.84
5.41
0.93
-2.18
-4.04
-5.22
-6.52
-8.63
-12.02
-16.82
-22.89
-29.70
-36.44
-42.02
-45.28
-45.28
-41.51
-34.12
-23.85
-11.92
0.40
11.97
21.98
29.93
35.54
38.67
39.30
37.64
34.10
29.39
24.30
19.58
15.70
12.83
10.81
9.27
7.82
6.19
4.33
2.37
0.56
-1.00
-2.41
-4.04
-6.42
-10.01
-15.11
-21.71
-29.44
-37.51
-44.88
-50.29
-52.58
-50.90
-45.06
-35.54
-23.43
-10.11
3.13
15.27
25.62
33.80
39.54
42.69
43.24
41.45
37.87
33.36
28.82
25.00
22.35
20.81
20.04
19.45
18.49
16.81
14.35
11.31
7.99
4.69
1.51
-1.74
-5.51
-10.29
-16.50
-24.18
-32.91
-41.77
-49.49
-54.71
-56.29
-53.59
-46.62
-36.04
-22.96
-8.71
5.43
18.40
29.36
37.74
43.22
45.77
45.65
43.49
40.09
36.28
32.73
29.85
27.72
26.23
25.22
24.47
23.84
23.21
22.42
21.27
19.55
17.06
13.70
9.51
4.66
-0.61
-6.06
-11.63
-17.44
-23.79
-30.94
-38.97
-47.52
-55.76
-62.52
-66.53
-66.74
-62.60
-54.24
-42.41
-28.29
-13.26
1.39
14.59
25.55
33.79
39.12
41.61
41.63
39.81
36.96
33.96
31.49
29.99
29.53
29.86
30.56
31.19
31.48
31.33
30.85
30.18
29.34
28.13
26.20
23.17
18.89
13.50
7.43
1.29
-4.45
-9.59
-14.22
-18.73
-23.60
-29.30
-36.17
-44.17
-52.83
-61.16
-67.73
-71.04
-69.92
-63.94
-53.55
-39.89
-24.45
-8.67
6.34
19.86
31.37
40.45
46.75
50.10
50.61
48.84
45.71
42.27
39.42
37.68
37.06
37.23
37.75
38.24
38.59
38.85
39.13
39.41
39.50
39.02
37.61
34.99
31.12
26.18
20.51
14.50
8.50
2.79
-2.58
-7.69
-12.75
-18.05
-23.88
-30.42
-37.71
-45.51
-53.32
-60.31
-65.40
-67.38
-65.24
-58.44
-47.23
-32.61
-16.15
0.37
15.44
28.06
37.80
44.63
48.81
50.66
50.57
48.98
46.45
43.66
41.25
39.73
39.27
39.75
40.78
41.86
42.54
42.49
41.60
39.91
37.58
34.75
31.53
27.95
23.96
19.49
14.53
9.24
3.89
-1.19
-5.75
-9.78
-13.54
-17.49
-22.14
-27.84
-34.67
-42.38
-50.38
-57.73
-63.38
-66.22
-65.45
-60.71
-52.25
-40.85
-27.64
-13.82
-0.42
11.74
22.11
30.35
36.23
39.69
40.88
40.15
38.09
35.41
32.76
30.63
29.24
28.56
28.39
28.45
28.54
28.53
28.33
27.83
26.80
24.94
22.02
18.01
13.21
8.12
3.30
-0.91
-4.51
-7.89
-11.62
-16.26
-22.07
-28.96
-36.43
-43.63
-49.54
-53.09
-53.39
-49.96
-42.85
-32.72
-20.64
-7.90
4.29
14.98
23.56
29.71
33.42
34.87
34.42
32.54
29.78
26.65
23.58
20.91
18.84
17.42
16.55
16.04
15.66
15.20
14.52
13.58
12.39
10.96
9.22
7.09
4.42
1.08
-3.03
-7.97
-13.77
-20.42
-27.82
-35.70
-43.48
-50.27
-54.97
-56.50
-54.14
-47.77
-37.97
-25.88
-12.88
-0.30
10.90
20.11
27.11
31.81
34.19
34.32
32.38
28.75
24.04
19.07
14.67
11.46
9.70
9.23
9.62
10.35
10.99
11.26
11.09
10.40
9.13
7.16
4.41
0.88
-3.31
-8.00
-13.08
-18.62
-24.73
-31.49
-38.64
-45.43
-50.68
-53.04
-51.44
-45.46
-35.57
-22.93
-9.09
4.45
16.55
26.48
33.95
38.87
41.31
41.44
39.57
36.22
32.05
27.76
23.96
21.02
19.04
17.93
17.40
17.18
16.99
16.55
15.62
13.99
11.54
8.25
4.23
-0.35
-5.31
-10.54
-16.02
-21.79
-27.98
-34.72
-42.04
-49.70
-57.09
-63.15
-66.63
-66.43
-61.93
-53.30
-41.43
-27.62
-13.23
0.58
12.98
23.41
31.47
36.94
39.78
40.24
38.84
36.29
33.31
30.47
28.02
25.99
24.20
22.50
20.85
19.35
18.12
17.25
16.59
15.82
14.49
12.25
8.97
4.80
0.09
-4.79
-9.60
-14.28
-19.00
-24.00
-29.48
-35.48
-41.81
-47.91
-52.91
-55.79
-55.57
-51.64
-44.02
-33.36
-20.79
-7.57
5.19
16.68
26.43
34.14
39.57
42.58
43.19
41.73
38.84
35.39
32.23
29.96
28.72
28.24
28.03
27.56
26.56
25.03
23.26
21.53
19.93
18.28
16.16
13.18
9.20
4.41
-0.73
-5.71
-10.21
-14.20
-17.96
-21.80
-25.99
-30.68
-35.91
-41.70
-47.98
-54.43
-60.37
-64.78
-66.50
-64.56
-58.56
-48.79
-36.24
-22.22
-8.08
5.09
16.58
25.99
33.12
37.91
40.39
40.74
39.33
36.70
33.54
30.52
28.14
26.58
25.72
25.20
24.65
23.82
22.68
21.36
20.02
18.72
17.34
15.59
13.20
9.99
5.96
1.36
-3.46
-8.18
-12.61
-16.73
-20.74
-24.89
-29.46
-34.65
-40.48
-46.72
-52.79
-57.74
-60.39
-59.69
-55.06
-46.67
-35.45
-22.76
-10.02
1.73
11.90
20.31
26.86
31.45
33.88
34.08
32.29
29.14
25.55
22.43
20.43
19.70
19.96
20.62
21.14
21.22
20.81
20.09
19.23
18.25
16.96
15.07
12.32
8.65
4.25
-0.47
-5.03
-9.09
-12.54
-15.55
-18.54
-21.99
-26.29
-31.61
-37.76
-44.13
-49.79
-53.65
-54.76
-52.50
-46.77
-38.02
-27.12
-15.13
-3.06
8.20
17.99
25.85
31.44
34.62
35.53
34.51
32.15
29.13
26.05
23.32
21.08
19.32
17.92
16.79
15.92
15.28
14.84
14.44
13.82
12.74
11.00
8.53
5.45
1.98
-1.61
-5.13
-8.50
-11.79
-15.26
-19.17
-23.77
-29.12
-35.03
-40.98
-46.15
-49.59
-50.37
-47.94
-42.20
-33.63
-23.15
-11.88
-0.88
9.06
17.43
23.95
28.47
30.91
31.31
29.91
27.23
23.95
20.75
18.16
16.39
15.29
14.52
13.69
12.61
11.23
9.69
8.10
6.46
4.63
2.41
-0.27
-3.36
-6.62
-9.88
-13.13
-16.64
-20.85
-26.14
-32.51
-39.42
-45.81
-50.37
-51.99
-50.05
-44.62
-36.37
-26.31
-15.50
-4.80
5.11
13.76
20.71
25.59
28.13
28.32
26.42
23.01
18.86
14.76
11.38
9.06
7.82
7.40
7.37
7.32
6.97
6.23
5.12
3.77
2.23
0.47
-1.65
-4.29
-7.57
-11.56
-16.24
-21.57
-27.38
-33.29
-38.65
-42.57
-44.14
-42.62
-37.80
-30.03
-20.22
-9.50
1.01
10.49
18.38
24.37
28.31
30.09
29.79
27.71
24.43
20.72
17.32
14.68
12.91
11.72
10.67
9.35
7.62
5.57
3.43
1.40
-0.52
-2.49
-4.79
-7.71
-11.41
-15.96
-21.35
-27.32
-33.43
-38.91
-42.78
-44.02
-41.95
-36.39
-27.82
-17.24
-5.88
5.05
14.60
22.14
27.32
30.03
30.37
28.62
25.27
20.97
16.44
12.38
9.27
7.26
6.15
5.52
4.90
3.98
2.67
1.06
-0.70
-2.53
-4.51
-6.84
-9.73
-13.37
-17.88
-23.16
-28.91
-34.45
-38.79
-40.82
-39.65
-34.90
-26.93
-16.74
-5.62
5.19
14.81
22.73
28.67
32.50
34.04
33.23
30.22
25.61
20.36
15.54
11.99
10.07
9.47
9.51
9.41
8.59
6.95
4.74
2.39
0.24
-1.60
-3.30
-5.19
-7.58
-10.78
-14.92
-20.07
-26.16
-32.85
-39.47
-44.97
-48.19
-48.13
-44.30
-36.95
-26.95
-15.56
-4.03
6.61
15.70
22.86
27.89
30.78
31.64
30.79
28.76
26.14
23.51
21.30
19.69
18.73
18.26
18.15
18.21
18.32
18.33
18.07
17.28
15.73
13.27
9.89
5.79
1.29
-3.25
-7.62
-11.81
-16.02
-20.57
-25.74
-31.64
-38.07
-44.48
-50.01
-53.58
-54.17
-51.10
-44.32
-34.47
-22.75
-10.54
0.99
11.11
19.54
26.25
31.23
34.31
35.31
34.20
31.38
27.63
23.88
21.00
19.43
19.16
19.79
20.78
21.65
22.13
22.20
21.94
21.45
20.65
19.40
17.45
14.63
10.97
6.64
2.01
-2.57
-6.88
-10.95
-14.96
-19.20
-23.94
-29.30
-35.29
-41.74
-48.25
-54.12
-58.41
-60.09
-58.29
-52.67
-43.58
-32.04
-19.41
-7.01
4.26
13.92
21.86
28.04
32.40
34.78
35.12
33.66
30.92
27.66
24.66
22.48
21.35
21.15
21.58
22.22
22.72
22.85
22.52
21.81
20.84
19.68
18.34
16.70
14.57
11.81
8.42
4.53
0.37
-3.83
-7.90
-11.81
-15.61
-19.46
-23.55
-28.15
-33.48
-39.60
-46.25
-52.73
-58.01
-60.88
-60.32
-55.85
-47.69
-36.71
-24.16
-11.36
0.64
11.17
19.88
26.67
31.53
34.42
35.43
34.86
33.17
31.02
29.06
27.75
27.28
27.55
28.23
28.92
29.34
29.29
28.76
27.79
26.45
24.74
22.63
20.07
17.06
13.66
10.01
6.24
2.41
-1.48
-5.46
-9.56
-13.76
-18.00
-22.17
-26.25
-30.27
-34.40
-38.89
-43.93
-49.44
-54.85
-59.18
-61.15
-59.69
-54.27
-45.23
-33.64
-20.95
-8.51
2.77
12.50
20.60
26.98
31.47
33.84
34.02
32.36
29.55
26.53
24.16
22.93
22.87
23.71
24.96
26.25
27.35
28.20
28.77
29.02
28.84
28.07
26.57
24.26
21.12
17.26
12.79
7.91
2.85
-2.16
-6.91
-11.29
-15.38
-19.38
-23.62
-28.42
-33.99
-40.27
-46.96
-53.42
-58.83
-62.25
-62.80
-59.98
-53.72
-44.54
-33.35
-21.30
-9.43
1.50
11.03
19.00
25.35
30.00
32.86
33.92
33.32
31.47
29.00
26.61
24.89
24.11
24.19
24.80
25.53
26.08
26.27
26.06
25.38
24.16
22.27
19.70
16.54
12.98
9.22
5.39
1.52
-2.41
-6.42
-10.49
-14.59
-18.74
-23.10
-27.82
-33.07
-38.75
-44.52
-49.70
-53.35
-54.45
-52.23
-46.44
-37.49
-26.39
-14.42
-2.86
7.42
15.96
22.64
27.46
30.34
31.24
30.26
27.79
24.55
21.43
19.17
18.13
18.20
18.92
19.75
20.32
20.57
20.65
20.76
20.93
20.93
20.38
18.87
16.17
12.33
7.63
2.52
-2.55
-7.24
-11.41
-15.07
-18.51
-22.10
-26.28
-31.34
-37.32
-43.87
-50.21
-55.31
-58.09
-57.76
-53.96
-46.90
-37.26
-26.05
-14.32
-3.01
7.13
15.69
22.44
27.30
30.26
31.43
31.04
29.49
27.42
25.47
24.13
23.62
23.78
24.25
24.64
24.78
24.70
24.51
24.26
23.84
22.98
21.35
18.78
15.30
11.12
6.64
2.16
-2.10
-6.12
-10.01
-13.96
-18.15
-22.76
-27.91
-33.67
-39.95
-46.41
-52.35
-56.77
-58.61
-57.06
-51.91
-43.58
-33.07
-21.57
-10.17
0.36
9.60
17.36
23.53
27.96
30.54
31.27
30.42
28.53
26.33
24.54
23.61
23.58
24.13
24.81
25.23
25.23
24.90
24.42
23.89
23.22
22.15
20.36
17.64
13.96
9.51
4.67
-0.13
-4.48
-8.18
-11.31
-14.15
-17.14
-20.70
-25.09
-30.38
-36.37
-42.62
-48.43
-52.86
-54.95
-53.93
-49.48
-41.89
-31.98
-20.84
-9.51
1.25
11.00
19.43
26.30
31.30
34.22
35.02
34.02
31.79
29.07
26.51
24.59
23.51
23.20
23.49
24.07
24.76
25.41
25.92
26.21
26.08
25.24
23.40
20.44
16.48
11.96
7.42
3.36
-0.02
-2.88
-5.62
-8.76
-12.73
-17.66
-23.32
-29.03
-33.75
-36.25
-35.49
-30.92
-22.80
-12.08
-0.09
11.98
23.40
34.04
44.09
53.64
62.41
69.72
74.79
77.29
77.67
77.16
77.41
79.90
85.46
94.04
104.84
116.55
127.71
136.89
142.87
144.86
142.84
137.79
131.43
125.60
121.21
117.39
111.58
100.42
81.45
54.41
21.64
-12.82
-44.87
-72.06
-94.34
-113.65
-132.85
-154.47
-180.04
-209.86
-243.06
-277.49
-309.63
-334.72
-347.68
-344.50
-323.81
-287.79
-241.78
-192.77
-147.33
-109.98
-82.48
-64.16
-52.97
-46.36
-42.09
-38.36
-33.85
-27.72
-19.57
-9.61
1.47
12.60
22.63
30.61
35.97
38.55
38.53
36.30
32.47
27.89
23.60
20.71
20.12
22.25
26.90
33.40
40.97
48.90
56.67
63.82
69.67
73.35
73.94
70.86
64.06
54.12
42.01
28.85
15.69
3.44
-7.07
-15.19
-20.49
-22.92
-22.89
-21.18
-18.66
-16.07
-13.84
-12.10
-10.87
-10.19
-10.25
-11.37
-13.87
-17.92
-23.43
-29.96
-36.67
-42.51
-46.38
-47.42
-45.28
-40.22
-32.92
-24.37
-15.48
-6.93
0.80
7.48
12.88
16.83
19.20
20.02
19.48
17.97
16.02
14.15
12.75
11.91
11.51
11.22
10.73
9.89
8.78
7.56
6.32
4.95
3.12
0.46
-3.26
-7.99
-13.48
-19.47
-25.91
-32.96
-40.70
-48.85
-56.49
-62.21
-64.56
-62.62
-56.40
-46.80
-35.10
-22.49
-9.71
2.58
13.27
20.55
22.26
16.82
4.31
-13.26
-32.51
-49.86
-62.71
-69.82
-70.83
-65.56
-53.62
-34.75
-9.68
19.35
48.89
75.50
97.18
114.09
128.26
142.31
158.14
176.14
195.31
214.05
231.06
245.82
258.37
268.97
277.51
283.51
286.34
285.76
282.09
276.21
269.24
261.96
254.48
246.08
235.60
221.90
204.47
183.65
160.49
136.34
112.24
88.60
65.08
40.91
15.01
-13.60
-45.66
-81.14
-118.75
-155.73
-188.12
-211.85
-224.16
-224.73
-215.90
-201.76
-186.61
-173.50
-163.56
-156.29
-150.50
-145.13
-139.76
-134.37
-129.06
-123.70
-118.11
-112.25
-106.54
-101.68
-98.43
-97.17
-97.75
-99.51
-101.66
-103.71
-105.73
-108.25
-111.96
-117.39
-124.54
-132.74
-140.67
-146.51
-148.32
-144.53
-134.47
-118.64
-98.64
-76.60
-54.53
-33.74
-14.83
2.13
17.21
30.30
41.21
49.83
56.35
61.33
65.44
69.28
73.15
77.05
80.75
83.97
86.51
88.34
89.53
90.17
90.37
90.17
89.47
88.08
85.72
82.10
77.10
70.75
63.38
55.42
47.31
39.30
31.37
23.30
14.89
6.09
-2.85
-11.52
-19.54
-26.75
-33.32
-39.65
-46.31
-53.89
-62.81
-73.25
-84.93
-97.01
-107.99
-115.91
-118.83
-115.41
-105.39
-89.65
-69.99
-48.48
-27.01
-6.93
11.02
26.44
39.10
48.85
55.57
59.40
60.79
60.48
59.33
58.10
57.23
56.79
56.61
56.46
56.22
56.03
56.15
56.81
58.05
59.63
61.09
61.83
61.33
59.23
55.48
50.23
43.90
36.86
29.42
21.78
14.03
6.26
-1.27
-8.24
-14.25
-19.09
-22.92
-26.39
-30.43
-36.05
-43.91
-54.07
-65.79
-77.58
-87.52
-93.58
-94.17
-88.53
-76.96
-60.68
-41.51
-21.33
-1.81
15.92
31.10
43.31
52.29
57.94
60.41
60.12
57.81
54.37
50.73
47.63
45.54
44.58
44.54
45.03
45.59
45.84
45.58
44.68
43.07
40.63
37.23
32.82
27.53
21.67
15.61
9.64
3.82
-1.99
-8.09
-14.64
-21.65
-28.92
-36.18
-43.25
-50.18
-57.26
-64.90
-73.54
-83.36
-94.08
-104.83
-114.16
-120.37
-121.89
-117.74
-107.75
-92.62
-73.68
-52.52
-30.70
-9.48
10.19
27.72
42.65
54.70
63.61
69.28
71.89
71.97
70.46
68.47
66.97
66.44
66.63
66.74
65.72
62.83
57.93
51.50
44.43
37.56
31.31
25.48
19.41
12.31
3.67
-6.48
-17.63
-28.97
-39.87
-50.12
-59.94
-69.85
-80.46
-92.22
-105.32
-119.58
-134.38
-148.64
-160.86
-169.38
-172.80
-170.48
-162.71
-150.64
-135.85
-119.63
-102.68
-84.95
-65.99
-45.41
-23.25
-0.09
22.99
44.66
63.68
79.23
91.14
99.88
106.35
111.55
116.20
120.62
124.71
128.25
130.98
132.69
133.07
131.51
127.31
119.97
109.54
96.87
83.32
70.28
58.60
48.37
38.97
29.51
19.22
7.71
-4.92
-18.22
-31.41
-43.42
-52.98
-58.86
-60.13
-56.50
-48.40
-36.95
-23.57
-9.67
3.61
15.41
25.16
32.44
37.00
38.87
38.40
36.21
33.05
29.63
26.46
23.72
21.31
18.99
16.52
13.76
10.81
7.85
5.11
2.70
0.54
-1.57
-3.90
-6.71
-10.02
-13.64
-17.22
-20.34
-22.70
-24.29
-25.31
-26.19
-27.42
-29.52
-32.89
-37.69
-43.62
-49.74
-54.60
-56.47
-53.95
-46.54
-34.84
-20.38
-5.10
9.32
21.78
31.81
39.28
44.21
46.56
46.43
44.16
40.40
36.03
31.93
28.69
26.54
25.39
24.91
24.79
24.73
24.54
24.02
23.02
21.31
18.69
15.08
10.55
5.41
0.10
-4.99
-9.64
-13.92
-18.17
-22.88
-28.50
-35.42
-43.69
-53.00
-62.53
-70.99
-76.96
-79.14
-76.81
-70.02
-59.62
-46.86
-33.14
-19.54
-6.91
4.07
12.79
18.60
21.07
20.20
16.61
11.46
6.19
1.97
-0.60
-1.66
-1.93
-2.30
-3.44
-5.46
-7.94
-10.04
-10.92
-10.01
-7.34
-3.77
-0.96
-1.13
-6.46
-18.16
-35.58
-56.09
-75.54
-89.68
-95.74
-93.32
-84.36
-72.05
-59.37
-47.99
-38.03
-28.53
-18.43
-7.20
4.87
16.92
28.04
37.59
45.38
51.48
55.95
58.67
59.40
58.00
54.80
50.82
47.66
46.90
49.40
54.73
61.12
66.09
67.41
64.02
56.41
46.39
36.19
27.53
21.01
16.08
11.53
6.27
-0.28
-7.93
-16.18
-24.29
-31.69
-37.77
-41.86
-43.18
-41.16
-35.74
-27.57
-17.93
-8.25
0.30
7.26
12.68
16.97
20.37
22.83
24.08
23.87
22.21
19.48
16.34
13.49
11.47
10.44
10.24
10.41
10.40
9.79
8.46
6.52
4.21
1.67
-1.11
-4.36
-8.41
-13.57
-20.03
-27.84
-36.82
-46.52
-56.08
-64.25
-69.55
-70.64
-66.75
-57.99
-45.42
-30.79
-16.10
-3.15
6.92
13.70
17.38
18.50
17.68
15.44
12.21
8.46
4.72
1.64
-0.24
-0.66
0.20
1.78
3.33
4.26
4.26
3.38
1.91
0.09
-1.99
-4.42
-7.48
-11.37
-16.29
-22.30
-29.46
-37.73
-46.89
-56.34
-65.02
-71.47
-74.19
-72.08
-64.80
-53.14
-38.72
-23.63
-9.80
1.38
9.40
14.47
17.25
18.61
19.33
20.01
21.07
22.75
25.09
28.04
31.52
35.49
39.95
44.77
49.46
52.99
53.93
50.91
43.31
31.75
18.05
4.68
-6.11
-13.08
-16.35
-17.11
-17.01
-17.54
-19.67
-23.88
-30.09
-37.72
-45.45
-51.32
-53.06
-48.98
-38.68
-23.46
-5.99
10.84
24.90
35.64
44.00
51.58
59.75
68.94
78.52
87.28
94.01
98.01
99.28
98.33
95.97
93.00
90.15
87.90
86.49
85.88
85.67
85.23
83.79
80.75
75.86
69.33
61.68
53.52
45.33
37.23
29.04
20.49
11.33
1.53
-8.80
-19.41
-30.03
-40.44
-50.47
-60.01
-68.94
-77.12
-84.31
-90.09
-93.86
-94.91
-92.64
-86.80
-77.57
-65.54
-51.59
-36.65
-21.59
-7.20
5.73
16.47
24.47
29.54
32.04
32.79
32.88
33.29
34.62
36.95
39.94
43.04
45.77
47.87
49.35
50.48
51.59
52.94
54.59
56.41
58.15
59.59
60.60
61.16
61.28
60.76
59.08
55.40
48.78
38.53
24.61
7.73
-10.81
-29.54
-47.26
-63.29
-77.38
-89.29
-98.59
-104.56
-106.49
-104.13
-97.92
-88.93
-78.43
-67.47
-56.63
-46.10
-35.92
-26.31
-17.80
-11.04
-6.46
-3.97
-2.95
-2.40
-1.35
0.87
4.34
8.71
13.33
17.62
21.30
24.31
26.80
28.88
30.53
31.59
31.95
31.50
30.33
28.58
26.40
23.89
20.95
17.48
13.35
8.58
3.27
-2.32
-7.91
-13.27
-18.33
-23.18
-28.13
-33.56
-39.84
-47.17
-55.38
-63.87
-71.57
-77.20
-79.52
-77.76
-71.79
-62.21
-50.06
-36.60
-22.97
-10.02
1.76
12.10
20.85
27.83
32.91
36.02
37.27
37.04
35.88
34.52
33.57
33.43
34.12
35.39
36.81
38.01
38.73
38.89
38.45
37.35
35.55
33.04
29.90
26.32
22.50
18.62
14.73
10.82
6.83
2.75
-1.42
-5.64
-9.86
-14.02
-18.03
-21.84
-25.55
-29.44
-33.94
-39.50
-46.27
-53.86
-61.30
-67.26
-70.41
-69.90
-65.55
-57.86
-47.76
-36.25
-24.24
-12.37
-1.17
8.98
17.70
24.66
29.62
32.58
33.77
33.72
33.00
32.20
31.73
31.74
32.15
32.85
33.65
34.48
35.24
35.77
35.85
35.20
33.66
31.21
28.00
24.32
20.44
16.55
12.69
8.80
4.77
0.55
-3.89
-8.42
-12.94
-17.32
-21.55
-25.76
-30.19
-35.18
-41.01
-47.67
-54.72
-61.27
-66.13
-68.11
-66.45
-60.98
-52.25
-41.24
-29.17
-17.07
-5.73
4.37
13.00
19.97
25.13
28.33
29.53
28.92
26.90
24.14
21.39
19.37
18.42
18.53
19.34
20.40
21.32
21.92
22.23
22.32
22.17
21.51
20.05
17.49
13.79
9.16
3.99
-1.23
-6.20
-10.76
-15.00
-19.26
-23.90
-29.32
-35.62
-42.59
-49.54
-55.44
-59.15
-59.69
-56.55
-49.83
-40.20
-28.70
-16.44
-4.34
6.85
16.68
24.79
30.93
34.93
36.79
36.76
35.37
33.38
31.47
30.12
29.46
29.34
29.50
29.76
30.15
30.79
31.74
32.86
33.71
33.75
32.48
29.72
25.76
21.13
16.55
12.55
9.27
6.44
3.58
0.17
-4.00
-8.72
-13.48
-17.70
-20.98
-23.12
-24.12
-23.82
-21.78
-17.19
-9.05
3.36
20.09
40.24
61.85
82.20
98.31
107.66
108.86
102.12
89.24
73.21
57.31
44.26
35.28
29.65
24.77
16.96
2.67
-20.14
-51.06
-86.99
-122.89
-153.62
-175.73
-188.91
-195.80
-200.46
-206.33
-214.71
-224.68
-234.31
-242.16
-248.10
-253.04
-257.78
-262.13
-264.75
-263.84
-258.15
-247.50
-232.56
-214.24
-193.22
-169.81
-144.22
-116.75
-87.75
-57.50
-26.24
5.67
37.66
68.85
98.51
126.33
152.51
177.41
200.94
222.38
240.52
254.39
263.76
269.32
272.12
272.80
271.13
266.17
256.88
242.98
225.27
205.51
185.76
167.71
152.43
140.21
130.88
123.76
117.91
112.13
105.26
96.59
86.03
74.24
62.35
51.59
42.95
36.78
32.62
29.36
25.47
19.61
11.14
0.44
-11.24
-22.21
-31.07
-37.16
-40.47
-41.43
-40.39
-37.43
-32.50
-25.73
-17.70
-9.46
-2.28
2.80
5.29
5.29
3.42
0.40
-3.23
-7.19
-11.55
-16.38
-21.60
-26.89
-31.84
-36.09
-39.52
-42.20
-44.26
-45.73
-46.51
-46.38
-45.27
-43.39
-41.19
-39.20
-37.78
-36.87
-36.10
-34.92
-32.97
-30.39
-27.76
-26.07
-26.25
-28.96
-34.23
-41.54
-49.87
-57.86
-64.09
-67.26
-66.56
-61.83
-53.79
-43.86
-33.86
-25.44
-19.77
-17.26
-17.54
-19.72
-22.55
-24.78
-25.23
-23.08
-17.93
-9.95
0.23
11.69
23.62
35.55
47.37
59.27
71.35
83.40
94.89
105.07
113.27
119.04
122.16
122.64
120.70
116.87
112.12
107.84
105.51
106.21
110.23
116.93
124.90
132.48
138.24
141.33
141.57
139.37
135.36
130.10
123.63
115.31
103.86
87.75
65.72
37.13
2.13
-38.39
-82.76
-128.43
-172.01
-209.64
-237.84
-254.57
-260.05
-256.77
-248.61
-239.44
-231.84
-226.52
-222.71
-218.96
-214.13
-207.67
-199.52
-189.78
-178.59
-166.04
-152.32
-137.63
-122.05
-105.52
-88.14
-70.68
-54.97
-43.65
-39.25
-42.96
-53.74
-68.48
-83.07
-93.80
-98.50
-96.59
-88.54
-75.03
-56.67
-34.10
-8.51
18.07
43.08
64.08
79.47
88.86
92.91
92.94
90.40
86.52
82.09
77.50
72.76
67.68
61.96
55.32
47.64
38.92
29.30
18.92
8.05
-2.95
-13.60
-23.33
-31.73
-38.77
-44.91
-50.93
-57.54
-64.86
-72.19
-78.23
-81.52
-80.88
-75.64
-65.53
-50.50
-30.71
-6.82
19.67
46.35
70.23
88.43
98.92
100.95
95.15
83.10
66.94
48.90
31.13
15.47
3.37
-4.37
-7.67
-7.11
-3.79
1.04
6.15
10.57
13.58
14.70
13.61
10.22
4.75
-2.10
-9.15
-14.70
-16.96
-14.40
-6.28
7.13
24.55
44.08
63.53
81.04
95.34
105.85
112.64
116.18
117.16
116.36
114.45
111.92
108.92
105.34
100.72
94.52
86.35
76.16
64.32
51.44
38.11
24.68
11.13
-2.81
-17.37
-32.56
-47.97
-62.74
-75.74
-85.64
-91.18
-91.48
-86.25
-75.94
-61.70
-45.21
-28.22
-12.39
1.09
11.46
18.47
22.26
23.32
22.21
19.45
15.47
10.62
5.27
-0.12
-4.99
-8.86
-11.46
-12.78
-13.05
-12.66
-12.01
-11.48
-11.41
-12.14
-13.94
-16.97
-21.10
-25.84
-30.21
-32.93
-32.65
-28.33
-19.64
-7.14
7.81
23.51
38.30
50.97
60.91
68.00
72.44
74.47
74.37
72.30
68.41
62.82
55.75
47.53
38.62
29.59
21.08
13.65
7.76
3.70
1.54
1.09
1.77
2.68
2.66
0.63
-4.08
-11.44
-20.53
-29.70
-36.89
-40.27
-38.67
-31.89
-20.85
-7.26
6.82
19.47
29.43
36.28
40.28
42.12
42.57
42.24
41.57
40.76
39.73
38.00
34.71
28.78
19.34
6.34
-9.12
-24.96
-38.66
-48.16
-52.58
-52.44
-49.39
-45.55
-42.86
-42.68
-45.61
-51.39
-59.07
-66.99
-73.09
-75.29
-72.04
-62.80
-48.30
-30.30
-11.08
7.15
22.70
34.57
42.36
46.05
45.96
42.68
37.15
30.59
24.23
19.07
15.68
14.07
13.80
14.24
14.77
14.98
14.71
14.01
12.97
11.68
10.11
8.03
5.17
1.20
-4.09
-10.73
-18.40
-26.40
-33.69
-38.97
-41.05
-39.02
-32.62
-22.33
-9.32
4.76
18.19
29.42
37.41
41.62
42.07
39.17
33.58
26.12
17.69
9.23
1.63
-4.40
-8.40
-10.22
-10.10
-8.49
-5.98
-3.21
-0.83
0.64
0.75
-0.76
-4.01
-8.95
-15.41
-23.12
-31.64
-40.29
-48.07
-53.71
-55.96
-53.91
-47.31
-36.71
-23.40
-9.03
4.78
16.80
26.29
33.03
37.07
38.65
38.16
36.17
33.50
31.03
29.57
29.47
30.56
32.22
33.67
34.28
33.71
31.96
29.12
25.29
20.42
14.43
7.34
-0.65
-9.13
-17.52
-25.14
-31.24
-35.07
-35.97
-33.51
-27.56
-18.43
-6.83
6.23
19.50
31.64
41.41
47.80
50.38
49.21
44.94
38.58
31.23
23.91
17.31
11.90
7.82
5.09
3.61
3.18
3.61
4.62
5.81
6.71
6.72
5.26
1.85
-3.65
-11.00
-19.45
-27.85
-34.82
-39.04
-39.52
-35.86
-28.35
-17.90
-5.89
6.16
16.83
25.05
30.16
32.01
30.84
27.20
21.80
15.40
8.72
2.29
-3.49
-8.41
-12.41
-15.54
-17.87
-19.59
-20.86
-21.93
-23.04
-24.51
-26.65
-29.74
-33.95
-39.10
-44.66
-49.65
-52.84
-52.96
-49.13
-41.10
-29.42
-15.33
-0.36
13.96
26.49
36.54
43.79
48.16
49.62
48.28
44.48
38.83
32.25
25.69
19.95
15.42
12.04
9.47
7.27
5.13
2.93
0.74
-1.31
-3.34
-5.64
-8.72
-13.08
-18.94
-25.99
-33.39
-39.86
-44.00
-44.62
-41.18
-33.87
-23.51
-11.38
1.18
13.04
23.29
31.28
36.46
38.39
36.92
32.43
25.86
18.59
11.95
6.89
3.63
1.79
0.69
-0.22
-1.13
-1.87
-2.11
-1.71
-0.84
-0.12
-0.35
-2.32
-6.57
-13.17
-21.66
-31.05
-39.95
-46.79
-50.16
-49.10
-43.37
-33.54
-20.82
-6.75
7.15
19.65
29.90
37.36
41.68
42.69
40.47
35.48
28.55
20.84
13.52
7.49
3.19
0.50
-1.08
-2.14
-3.11
-4.21
-5.37
-6.45
-7.39
-8.33
-9.54
-11.35
-14.02
-17.72
-22.54
-28.43
-35.09
-41.82
-47.40
-50.34
-49.21
-43.30
-32.93
-19.41
-4.63
9.56
21.85
31.58
38.56
42.80
44.29
43.04
39.33
33.88
27.69
21.83
17.12
13.95
12.27
11.76
12.00
12.52
12.94
12.90
12.21
10.82
8.83
6.41
3.69
0.66
-2.83
-7.04
-12.22
-18.50
-25.76
-33.54
-40.87
-46.42
-48.73
-46.63
-39.73
-28.62
-14.72
0.16
14.31
26.61
36.52
43.92
48.87
51.39
51.47
49.36
45.61
41.16
37.09
34.33
33.39
34.25
36.47
39.38
42.45
45.29
47.71
49.57
50.73
50.95
50.04
47.85
44.36
39.59
33.62
26.49
18.27
9.14
-0.59
-10.37
-19.44
-26.90
-31.75
-33.25
-30.97
-25.11
-16.44
-6.16
4.38
14.01
21.85
27.37
30.33
30.56
28.08
23.15
16.41
8.94
2.02
-3.17
-5.88
-6.13
-4.59
-2.40
-0.69
-0.23
-1.21
-3.25
-5.76
-8.20
-10.31
-12.19
-14.14
-16.45
-19.25
-22.50
-26.02
-29.57
-32.98
-35.97
-38.17
-38.98
-37.75
-33.85
-27.02
-17.44
-5.77
6.88
19.21
29.77
37.27
40.66
39.39
33.63
24.37
13.41
2.99
-4.66
-8.06
-6.97
-2.54
3.04
7.19
7.74
3.57
-5.29
-17.79
-32.31
-47.26
-61.26
-73.29
-82.79
-89.49
-93.57
-95.54
-96.19
-96.33
-96.58
-97.10
-97.56
-97.18
-94.97
-90.00
-81.87
-70.78
-57.63
-43.82
-30.78
-19.58
-10.63
-3.78
1.49
5.63
8.83
11.09
12.48
13.41
14.66
17.06
21.09
26.64
32.88
38.69
43.17
46.01
47.50
48.28
48.91
49.55
49.93
49.45
47.50
43.69
37.97
30.67
22.56
14.73
8.50
5.14
5.50
9.73
17.17
26.42
35.72
43.37
48.11
49.32
47.04
41.91
34.85
26.88
18.93
11.65
5.40
0.29
-3.80
-7.17
-10.20
-13.32
-16.78
-20.59
-24.48
-27.95
-30.52
-31.99
-32.53
-32.68
-33.25
-34.95
-38.13
-42.61
-47.64
-52.05
-54.58
-54.18
-50.29
-42.99
-32.95
-21.26
-9.17
2.13
11.67
18.81
23.26
25.05
24.51
22.11
18.42
14.06
9.63
5.72
2.73
0.86
-0.05
-0.34
-0.45
-0.74
-1.32
-2.22
-3.42
-5.09
-7.48
-10.82
-15.14
-20.15
-25.33
-30.08
-33.76
-35.89
-36.01
-33.77
-29.00
-21.82
-12.71
-2.46
8.00
17.69
25.71
31.32
33.99
33.53
30.22
24.78
18.18
11.47
5.49
0.79
-2.36
-3.83
-3.69
-2.11
0.46
3.37
5.88
7.31
7.21
5.34
1.73
-3.45
-9.82
-16.78
-23.48
-28.91
-32.13
-32.37
-29.25
-22.82
-13.58
-2.45
9.34
20.48
29.72
36.11
39.18
39.05
36.32
31.95
26.97
22.19
18.09
14.76
11.99
9.47
7.03
4.69
2.60
0.94
-0.28
-1.20
-2.14
-3.49
-5.65
-8.97
-13.62
-19.45
-25.86
-31.81
-35.96
-37.10
-34.46
-28.06
-18.68
-7.64
3.57
13.68
21.74
27.24
29.94
29.84
27.27
22.81
17.25
11.55
6.51
2.64
0.04
-1.52
-2.31
-2.54
-2.28
-1.50
-0.28
1.12
2.27
2.63
1.68
-0.86
-5.09
-10.84
-17.62
-24.57
-30.60
-34.46
-35.13
-32.04
-25.36
-15.90
-4.88
6.29
16.41
24.62
30.48
33.87
34.91
33.93
31.36
27.76
23.66
19.60
15.98
13.10
11.07
9.86
9.31
9.11
9.02
8.76
8.20
7.27
5.94
4.12
1.61
-1.82
-6.32
-11.81
-17.86
-23.64
-28.05
-30.03
-28.73
-23.91
-15.90
-5.64
5.65
16.68
26.39
34.03
39.15
41.59
41.33
38.53
33.64
27.40
20.77
14.76
10.14
7.26
5.89
5.43
5.10
4.28
2.72
0.55
-1.87
-4.15
-6.04
-7.46
-8.61
-9.85
-11.72
-14.79
-19.48
-25.86
-33.36
-40.87
-46.89
-49.97
-49.19
-44.40
-36.25
-25.89
-14.66
-3.71
6.11
14.29
20.46
24.39
25.86
24.80
21.43
16.35
10.56
5.19
1.25
-0.76
-0.94
0.09
1.51
2.57
2.91
2.56
1.74
0.76
-0.25
-1.27
-2.44
-3.90
-5.80
-8.18
-11.05
-14.41
-18.17
-22.16
-25.93
-28.76
-29.70
-27.82
-22.56
-14.01
-3.02
9.04
20.70
30.72
38.42
43.67
46.68
47.80
47.33
45.44
42.28
37.99
32.80
27.11
21.39
16.10
11.60
8.07
5.47
3.68
2.49
1.72
1.19
0.72
0.10
-0.85
-2.29
-4.34
-7.11
-10.75
-15.39
-20.98
-27.11
-32.99
-37.47
-39.34
-37.80
-32.70
-24.64
-14.74
-4.23
5.85
14.85
22.40
28.24
32.14
33.90
33.50
31.21
27.57
23.28
19.02
15.29
12.39
10.47
9.55
9.59
10.46
11.85
13.35
14.44
14.72
14.02
12.40
10.22
7.91
5.77
3.78
1.56
-1.44
-5.65
-11.02
-16.79
-21.63
-23.96
-22.43
-16.43
-6.32
6.51
19.92
31.50
39.16
41.60
38.70
31.44
21.62
11.28
2.13
-4.87
-9.52
-12.12
-13.24
-13.35
-12.85
-12.06
-11.32
-10.96
-11.19
-11.94
-12.90
-13.62
-13.74
-13.22
-12.42
-12.01
-12.74
-15.13
-19.20
-24.29
-29.22
-32.57
-33.05
-30.06
-23.74
-14.94
-4.87
5.29
14.70
22.83
29.41
34.23
37.12
38.02
37.14
35.08
32.69
30.88
30.35
31.43
33.94
37.25
40.40
42.36
42.24
39.49
34.02
26.24
16.79
6.48
-4.08
-14.53
-24.78
-34.89
-44.79
-54.24
-62.76
-69.66
-74.14
-75.51
-73.25
-67.15
-57.48
-44.92
-30.57
-15.77
-1.88
9.92
18.85
24.57
27.24
27.26
25.24
21.83
17.73
13.59
10.02
7.44
6.00
5.55
5.64
5.66
5.07
3.50
0.94
-2.34
-5.76
-8.78
-11.00
-12.43
-13.46
-14.83
-17.32
-21.41
-27.01
-33.31
-38.96
-42.45
-42.49
-38.43
-30.46
-19.48
-6.91
5.75
17.20
26.54
33.34
37.43
38.87
37.90
34.88
30.43
25.42
20.81
17.46
15.87
15.98
17.27
18.96
20.38
21.08
20.93
20.05
18.59
16.74
14.61
12.28
9.65
6.49
2.45
-2.88
-9.60
-17.29
-24.98
-31.26
-34.73
-34.45
-30.26
-22.78
-13.22
-3.04
6.43
14.23
19.79
22.96
23.89
22.89
20.41
16.98
13.13
9.39
6.25
4.03
2.84
2.54
2.73
2.92
2.68
1.85
0.54
-0.90
-2.07
-2.69
-2.81
-2.75
-3.05
-4.29
-6.92
-11.08
-16.57
-22.81
-28.89
-33.78
-36.49
-36.32
-33.06
-27.01
-18.96
-9.95
-0.95
7.27
14.23
19.59
22.94
23.86
22.03
17.48
10.81
3.16
-4.08
-9.71
-13.07
-14.08
-13.16
-10.96
-8.15
-5.36
-3.10
-1.85
-1.87
-3.19
-5.51
-8.32
-11.07
-13.45
-15.48
-17.53
-20.08
-23.47
-27.60
-31.79
-34.95
-35.88
-33.66
-28.03
-19.53
-9.27
1.37
11.19
19.33
25.35
29.09
30.52
29.73
26.96
22.68
17.62
12.57
8.20
4.89
2.58
0.92
-0.54
-2.06
-3.64
-5.02
-5.88
-6.08
-5.74
-5.22
-5.03
-5.61
-7.21
-9.90
-13.65
-18.32
-23.80
-29.89
-36.17
-41.94
-46.24
-48.02
-46.52
-41.45
-33.25
-22.95
-11.82
-1.11
8.33
15.98
21.69
25.39
27.11
26.90
24.98
21.74
17.76
13.71
10.21
7.75
6.63
6.89
8.37
10.69
13.42
16.02
18.01
19.01
18.83
17.46
15.13
12.21
9.15
6.30
3.77
1.40
-1.19
-4.48
-8.76
-13.91
-19.27
-23.76
-26.08
-25.20
-20.63
-12.69
-2.32
9.15
20.39
30.34
38.24
43.66
46.47
46.78
45.02
41.89
38.31
35.13
32.88
31.66
31.21
31.04
30.77
30.17
29.33
28.43
27.70
27.16
26.62
25.73
24.07
21.41
17.78
13.57
9.36
5.78
3.20
1.55
0.40
-0.92
-3.07
-6.41
-10.83
-15.78
-20.30
-23.34
-24.03
-21.98
-17.42
-11.18
-4.32
2.15
7.72
12.36
16.39
20.11
23.52
26.20
27.62
27.34
25.33
22.04
18.26
14.92
12.79
12.31
13.45
15.79
18.53
20.65
21.13
19.19
14.44
7.04
-2.42
-13.01
-23.72
-33.73
-42.55
-50.03
-56.25
-61.25
-65.02
-67.35
-68.10
-67.32
-65.39
-63.06
-61.20
-60.54
-61.34
-63.23
-65.18
-65.84
-63.95
-58.77
-50.35
-39.47
-27.37
-15.22
-3.88
6.25
14.98
22.10
27.23
29.93
30.01
27.73
23.93
19.81
16.58
15.03
15.34
17.13
19.69
22.34
24.62
26.39
27.68
28.54
28.90
28.67
27.67
25.82
23.22
20.14
16.95
14.03
11.63
9.79
8.34
6.92
5.10
2.53
-0.94
-5.19
-9.79
-14.14
-17.56
-19.44
-19.42
-17.37
-13.42
-7.88
-1.24
5.96
13.04
19.38
24.40
27.67
28.97
28.38
26.20
22.98
19.38
16.12
13.75
12.62
12.71
13.62
14.73
15.39
15.18
14.05
12.24
10.20
8.34
6.85
5.64
4.42
2.86
0.75
-1.86
-4.72
-7.52
-10.09
-12.55
-15.27
-18.70
-23.15
-28.60
-34.65
-40.59
-45.56
-48.75
-49.51
-47.55
-42.93
-36.08
-27.74
-18.74
-9.91
-1.89
4.90
10.19
13.80
15.68
15.97
14.96
13.23
11.32
9.74
8.72
8.24
8.04
7.81
7.40
6.80
6.25
5.94
6.02
6.34
6.55
6.16
4.77
2.31
-0.98
-4.52
-7.68
-10.01
-11.42
-12.22
-12.93
-14.10
-16.15
-19.29
-23.44
-28.25
-33.05
-36.89
-38.70
-37.55
-33.01
-25.37
-15.53
-4.73
5.87
15.44
23.56
30.03
34.70
37.34
37.82
36.35
33.59
30.59
28.40
27.63
28.30
29.81
31.42
32.65
33.57
34.70
36.70
39.95
44.28
49.00
53.14
55.90
56.81
55.88
53.71
51.50
50.99
54.14
62.48
76.20
93.44
110.27
121.36
121.59
107.71
79.55
40.13
-5.13
-49.93
-88.67
-117.58
-134.97
-141.18
-137.77
-126.89
-110.83
-91.74
-71.69
-52.67
-36.53
-24.64
-17.62
-15.13
-16.04
-18.85
-22.27
-25.51
-28.35
-30.86
-32.95
-34.27
-34.19
-32.37
-29.12
-25.65
-23.81
-25.33
-30.97
-40.07
-50.63
-60.10
-66.33
-68.44
-66.93
-63.27
-59.07
-55.30
-52.01
-48.44
-43.67
-37.14
-29.03
-20.16
-11.63
-4.22
1.94
7.34
12.72
18.61
24.95
31.17
36.51
40.42
42.81
43.90
44.01
43.23
41.42
38.42
34.21
29.13
23.79
18.87
14.80
11.66
9.09
6.53
3.37
-0.81
-6.13
-12.52
-19.73
-27.51
-35.62
-43.61
-50.70
-55.78
-57.62
-55.34
-48.79
-38.74
-26.66
-14.21
-2.80
6.77
14.30
19.92
23.89
26.34
27.28
26.73
24.86
22.12
19.12
16.49
14.63
13.59
13.04
12.50
11.61
10.32
8.87
7.56
6.55
5.67
4.55
2.78
0.13
-3.35
-7.42
-11.77
-16.14
-20.30
-23.93
-26.52
-27.43
-26.05
-22.05
-15.66
-7.61
1.09
9.41
16.56
22.17
26.15
28.63
29.73
29.51
28.06
25.54
22.33
18.97
15.98
13.80
12.62
12.30
12.48
12.69
12.55
11.78
10.42
8.64
6.70
4.83
3.04
1.15
-1.18
-4.26
-8.28
-13.07
-18.16
-22.80
-26.22
-27.73
-26.91
-23.68
-18.15
-10.67
-1.68
8.17
18.02
26.82
33.51
37.30
38.01
36.16
32.87
29.58
27.54
27.42
29.10
31.78
34.38
36.05
36.58
36.47
36.72
38.24
41.41
45.91
50.85
55.09
57.73
58.15
56.18
52.16
47.16
42.98
41.75
44.94
52.07
60.18
64.34
59.46
42.56
14.26
-21.25
-57.93
-90.27
-115.00
-131.44
-140.51
-143.30
-140.27
-131.45
-117.23
-99.17
-79.91
-62.40
-48.78
-39.57
-33.74
-29.38
-24.73
-19.03
-12.61
-6.57
-2.08
0.28
0.67
-0.08
-0.88
-0.92
0.02
1.54
2.87
3.19
2.04
-0.58
-4.32
-8.76
-13.57
-18.61
-23.73
-28.51
-32.15
-33.57
-31.79
-26.35
-17.60
-6.68
4.79
15.23
23.50
29.06
31.95
32.51
31.23
28.59
25.03
21.03
17.11
13.73
11.33
10.08
9.93
10.67
11.94
13.34
14.48
15.01
14.64
13.16
10.58
7.10
3.08
-1.02
-4.81
-8.11
-11.01
-13.82
-16.97
-20.81
-25.54
-31.08
-37.04
-42.69
-47.06
-49.11
-48.01
-43.38
-35.48
-25.24
-13.99
-3.17
6.16
13.41
18.53
21.81
23.62
24.20
23.72
22.36
20.43
18.45
16.96
16.40
16.86
18.08
19.56
20.80
21.53
21.74
21.60
21.23
20.56
19.30
17.06
13.64
9.21
4.20
-0.79
-5.28
-9.01
-12.08
-14.78
-17.42
-20.27
-23.55
-27.36
-31.66
-36.10
-40.04
-42.50
-42.48
-39.24
-32.64
-23.17
-11.91
-0.09
11.14
20.98
29.02
35.06
39.03
40.94
40.84
38.94
35.66
31.68
27.81
24.83
23.28
23.35
24.76
26.90
29.01
30.49
31.08
30.84
30.12
29.25
28.36
27.30
25.67
23.11
19.46
14.93
10.00
5.18
0.80
-3.15
-6.86
-10.63
-14.64
-18.92
-23.41
-28.13
-33.09
-38.27
-43.34
-47.48
-49.55
-48.42
-43.45
-34.85
-23.64
-11.29
0.78
11.53
20.49
27.56
32.76
36.08
37.46
36.97
34.86
31.65
28.00
24.54
21.72
19.81
18.79
18.53
18.75
19.15
19.48
19.51
19.04
17.93
16.03
13.27
9.64
5.27
0.41
-4.65
-9.63
-14.32
-18.62
-22.53
-26.11
-29.56
-33.14
-37.17
-41.87
-47.16
-52.54
-57.05
-59.55
-59.03
-55.01
-47.68
-37.88
-26.78
-15.55
-5.16
3.80
10.97
16.17
19.30
20.30
19.32
16.68
12.94
8.83
5.04
2.11
0.34
-0.28
0.09
1.21
2.88
4.85
6.88
8.62
9.71
9.86
8.94
7.12
4.79
2.43
0.38
-1.30
-2.92
-4.97
-7.98
-12.31
-17.81
-23.90
-29.43
-33.15
-33.87
-30.97
-24.49
-15.22
-4.41
6.66
16.87
25.55
32.32
37.04
39.65
40.19
38.87
36.10
32.47
28.63
25.14
22.36
20.54
19.70
19.78
20.57
21.77
23.10
24.22
24.93
25.05
24.40
22.84
20.20
16.41
11.61
6.13
0.39
-5.15
-10.21
-14.80
-19.21
-23.93
-29.44
-35.92
-43.02
-49.83
-55.03
-57.24
-55.45
-49.39
-39.59
-27.25
-13.88
-0.94
10.41
19.49
26.08
30.31
32.50
33.00
32.21
30.45
28.10
25.57
23.36
21.91
21.47
22.02
23.22
24.58
25.58
25.98
25.86
25.55
25.37
25.45
25.43
24.70
22.64
18.97
13.95
8.30
2.85
-1.75
-5.42
-8.54
-11.81
-15.95
-21.38
-28.10
-35.55
-42.78
-48.56
-51.66
-51.17
-46.77
-38.81
-28.14
-15.95
-3.50
8.17
18.25
26.19
31.70
34.71
35.37
34.03
31.23
27.65
23.97
20.81
18.59
17.47
17.32
17.81
18.58
19.31
19.81
20.03
19.90
19.29
18.05
16.04
13.22
9.83
6.18
2.59
-0.80
-4.02
-7.36
-11.15
-15.68
-21.08
-27.27
-33.90
-40.28
-45.45
-48.36
-48.09
-44.16
-36.76
-26.70
-15.25
-3.74
6.72
15.40
21.91
26.12
28.05
27.84
25.80
22.42
18.35
14.37
11.11
9.00
8.08
8.12
8.70
9.42
10.02
10.42
10.57
10.33
9.48
7.73
4.95
1.27
-2.96
-7.27
-11.32
-14.99
-18.50
-22.21
-26.48
-31.53
-37.31
-43.55
-49.73
-55.06
-58.57
-59.29
-56.48
-49.94
-40.13
-28.06
-15.13
-2.68
8.26
17.07
23.51
27.58
29.41
29.25
27.52
24.82
21.90
19.38
17.68
16.82
16.61
16.78
17.16
17.73
18.55
19.57
20.49
20.85
20.19
18.23
15.03
10.94
6.47
2.03
-2.12
-6.00
-9.83
-13.95
-18.75
-24.40
-30.76
-37.20
-42.67
-45.92
-45.81
-41.78
-33.95
-23.11
-10.57
2.29
14.24
24.41
32.25
37.53
40.21
40.46
38.61
35.18
30.81
26.21
22.02
18.71
16.51
15.41
15.20
15.53
16.02
16.32
16.11
15.15
13.26
10.40
6.66
2.31
-2.27
-6.67
-10.60
-14.02
-17.15
-20.40
-24.23
-28.97
-34.72
-41.20
-47.72
-53.24
-56.56
-56.55
-52.59
-44.72
-33.82
-21.32
-8.81
2.39
11.41
18.00
22.26
24.52
25.08
24.24
22.28
19.53
16.42
13.36
10.77
8.88
7.82
7.55
7.94
8.83
10.12
11.72
13.45
15.12
16.40
16.95
16.49
14.92
12.26
8.70
4.38
-0.62
-6.24
-12.32
-18.39
-23.67
-27.18
-27.99
-25.57
-19.96
-11.82
-2.15
7.79
16.97
24.58
30.17
33.59
34.85
34.08
31.47
27.29
22.02
16.36
11.14
7.14
4.80
4.04
4.31
4.79
4.73
3.76
1.92
-0.41
-2.81
-4.95
-6.84
-8.75
-11.16
-14.52
-19.16
-24.97
-31.43
-37.62
-42.42
-44.80
-43.99
-39.71
-32.23
-22.32
-11.12
0.06
10.06
18.06
23.68
26.97
28.15
27.52
25.35
21.99
17.86
13.54
9.72
6.91
5.38
5.08
5.65
6.63
7.59
8.22
8.36
8.03
7.27
6.14
4.65
2.69
0.06
-3.50
-8.17
-14.02
-20.89
-28.34
-35.62
-41.81
-45.87
-46.87
-44.17
-37.56
-27.47
-14.89
-1.23
11.94
23.30
31.95
37.62
40.53
41.14
40.04
37.69
34.49
30.85
27.24
24.18
22.18
21.52
22.20
23.86
25.97
27.86
28.94
28.83
27.41
24.79
21.29
17.29
13.08
8.91
4.85
0.88
-3.18
-7.54
-12.44
-18.02
-24.19
-30.51
-36.17
-40.08
-41.15
-38.55
-32.07
-22.25
-10.26
2.36
14.13
23.94
31.21
35.86
38.10
38.20
36.48
33.28
29.02
24.30
19.77
16.04
13.54
12.45
12.66
13.86
15.57
17.26
18.38
18.49
17.21
14.42
10.21
4.90
-1.02
-7.06
-12.84
-18.20
-23.24
-28.24
-33.55
-39.38
-45.69
-52.05
-57.67
-61.45
-62.25
-59.21
-52.09
-41.38
-28.27
-14.35
-1.13
10.18
18.96
25.02
28.44
29.48
28.46
25.83
22.20
18.27
14.79
12.30
11.05
10.96
11.71
12.83
13.85
14.43
14.28
13.19
10.98
7.63
3.28
-1.73
-6.92
-11.85
-16.26
-20.12
-23.69
-27.48
-32.06
-37.89
-45.03
-52.95
-60.55
-66.26
-68.59
-66.44
-59.62
-48.84
-35.47
-21.06
-6.96
5.92
17.03
26.01
32.60
36.56
37.83
36.66
33.68
29.72
25.75
22.51
20.46
19.74
20.27
21.78
23.99
26.56
29.14
31.38
32.92
33.47
32.78
30.77
27.55
23.43
18.85
14.27
9.99
6.09
2.39
-1.50
-5.97
-11.33
-17.67
-24.82
-32.35
-39.49
-45.25
-48.49
-48.24
-44.02
-35.98
-24.97
-12.24
0.88
13.32
24.35
33.61
40.92
46.12
49.06
49.67
48.14
44.98
41.00
37.16
34.26
32.76
32.67
33.60
34.95
36.16
36.88
37.00
36.54
35.53
33.90
31.51
28.27
24.23
19.57
14.59
9.55
4.60
-0.20
-4.84
-9.27
-13.43
-17.26
-20.78
-24.12
-27.57
-31.56
-36.45
-42.43
-49.28
-56.15
-61.75
-64.52
-63.21
-57.29
-47.22
-34.26
-20.11
-6.32
6.02
16.35
24.45
30.25
33.66
34.65
33.42
30.46
26.58
22.68
19.55
17.66
17.00
17.23
17.87
18.49
18.91
19.16
19.39
19.66
19.83
19.57
18.50
16.32
13.02
8.87
4.27
-0.30
-4.50
-8.16
-11.32
-14.15
-16.95
-20.09
-23.91
-28.69
-34.49
-41.11
-47.86
-53.65
-57.11
-57.05
-52.77
-44.40
-32.91
-19.82
-6.74
5.08
14.95
22.68
28.31
31.94
33.60
33.34
31.42
28.38
25.01
22.12
20.30
19.69
20.03
20.74
21.28
21.39
21.12
20.72
20.40
20.14
19.64
18.46
16.27
12.99
8.86
4.25
-0.44
-4.92
-9.06
-12.85
-16.36
-19.79
-23.46
-27.75
-32.92
-38.80
-44.68
-49.32
-51.25
-49.22
-42.61
-31.72
-17.67
-2.14
13.10
26.68
37.89
46.76
53.81
59.65
64.65
68.78
71.65
72.92
72.68
71.69
71.30
72.98
77.65
85.24
94.58
103.92
111.53
116.49
118.92
119.72
119.96
120.50
121.74
123.68
126.03
128.13
128.81
126.44
119.36
106.46
87.77
64.47
38.34
10.86
-17.68
-48.34
-82.88
-122.33
-165.66
-209.07
-246.79
-272.73
-282.80
-276.41
-256.62
-228.82
-198.44
-169.16
-142.28
-117.45
-94.13
-72.71
-54.56
-41.18
-33.08
-29.23
-27.49
-25.58
-22.10
-17.05
-11.55
-7.16
-5.02
-5.39
-7.56
-10.22
-12.02
-12.07
-10.32
-7.55
-5.03
-4.06
-5.45
-9.36
-15.28
-22.36
-29.66
-36.40
-41.99
-45.86
-47.51
-46.51
-42.63
-36.14
-27.77
-18.65
-10.04
-3.15
1.26
2.88
1.79
-1.53
-6.53
-12.59
-19.06
-25.25
-30.47
-34.17
-36.05
-36.27
-35.37
-34.22
-33.64
-34.13
-35.76
-38.07
-40.32
-41.73
-41.80
-40.37
-37.81
-34.78
-32.04
-30.22
-29.57
-29.93
-30.71
-31.01
-29.73
-25.91
-18.91
-8.67
4.11
18.20
32.02
44.11
53.49
59.79
63.17
64.05
62.91
60.06
55.72
50.18
43.91
37.59
32.02
27.91
25.68
25.31
26.28
27.85
29.25
29.94
29.66
28.43
26.43
23.74
20.38
16.21
11.08
4.88
-2.34
-10.22
-18.13
-25.03
-29.68
-30.90
-27.97
-20.98
-10.89
0.75
12.32
22.53
30.75
36.83
40.90
43.03
43.22
41.53
38.17
33.69
28.87
24.49
21.10
18.89
17.69
17.09
16.65
16.02
15.05
13.78
12.34
10.78
8.99
6.68
3.48
-0.86
-6.40
-12.93
-20.07
-27.22
-33.67
-38.54
-40.87
-39.89
-35.20
-27.09
-16.47
-4.67
6.94
17.37
26.06
32.79
37.46
39.89
39.92
37.48
32.87
26.92
20.77
15.59
12.21
10.81
10.92
11.69
12.29
12.21
11.43
10.28
9.16
8.21
7.25
5.91
3.77
0.61
-3.63
-8.78
-14.60
-20.66
-26.38
-31.02
-33.73
-33.71
-30.43
-23.86
-14.51
-3.35
8.41
19.45
28.73
35.57
39.75
41.49
41.26
39.62
37.06
33.99
30.75
27.74
25.31
23.74
23.16
23.48
24.45
25.76
27.05
28.01
28.28
27.47
25.09
20.63
13.77
4.46
-6.91
-19.47
-31.97
-42.97
-51.07
-55.20
-54.87
-50.30
-42.33
-32.23
-21.32
-10.78
-1.39
6.38
12.24
16.00
17.53
16.91
14.45
10.75
6.56
2.58
-0.69
-3.04
-4.45
-5.05
-5.05
-4.72
-4.36
-4.24
-4.45
-5.02
-5.94
-7.30
-9.41
-12.68
-17.42
-23.51
-30.31
-36.65
-41.22
-42.91
-41.13
-35.97
-28.10
-18.48
-8.24
1.56
9.95
16.16
19.67
20.34
18.47
14.74
10.10
5.47
1.62
-1.10
-2.62
-3.20
-3.16
-2.81
-2.42
-2.22
-2.43
-3.24
-4.80
-7.17
-10.41
-14.49
-19.40
-24.99
-30.82
-36.11
-39.78
-40.63
-37.83
-31.22
-21.36
-9.54
2.72
13.92
22.98
29.31
32.75
33.49
31.95
28.71
24.42
19.76
15.33
11.50
8.42
5.99
4.01
2.28
0.72
-0.65
-1.79
-2.72
-3.66
-4.93
-6.97
-10.15
-14.71
-20.63
-27.50
-34.51
-40.39
-43.80
-43.53
-39.04
-30.60
-19.27
-6.54
6.09
17.53
27.12
34.62
39.90
42.89
43.52
41.91
38.44
33.79
28.82
24.35
20.98
18.95
18.16
18.19
18.52
18.62
18.16
17.03
15.27
12.95
10.06
6.49
2.05
-3.41
-9.92
-17.35
-25.47
-33.84
-41.91
-48.84
-53.58
-55.04
-52.40
-45.40
-34.53
-20.98
-6.31
7.93
20.58
30.97
38.84
44.21
47.16
47.86
46.53
43.64
39.80
35.80
32.34
29.93
28.78
28.84
29.84
31.41
33.19
34.82
35.95
36.35
35.81
34.29
31.88
28.84
25.40
21.77
17.97
13.87
9.31
4.15
-1.47
-7.20
-12.52
-17.06
-20.67
-23.66
-26.67
-30.43
-35.53
-42.11
-49.61
-56.84
-62.19
-64.06
-61.40
-54.06
-42.82
-29.19
-14.92
-1.42
10.40
20.26
28.20
34.28
38.49
40.76
41.15
39.97
37.79
35.25
32.92
31.10
29.85
29.13
28.86
29.02
29.60
30.50
31.45
32.06
31.93
30.75
28.45
25.18
21.28
17.15
13.08
9.28
5.71
2.24
-1.40
-5.35
-9.61
-14.00
-18.22
-22.04
-25.45
-28.69
-32.21
-36.50
-41.85
-48.12
-54.61
-60.17
-63.45
-63.26
-59.00
-50.86
-39.79
-27.17
-14.42
-2.69
7.34
15.37
21.44
25.65
28.19
29.28
29.15
28.10
26.47
24.62
22.98
21.84
21.38
21.58
22.25
23.19
24.22
25.22
26.15
26.91
27.36
27.30
26.59
25.23
23.29
20.98
18.42
15.65
12.62
9.29
5.58
1.53
-2.74
-7.02
-11.02
-14.52
-17.45
-20.01
-22.63
-25.87
-30.15
-35.46
-41.22
-46.32
-49.46
-49.47
-45.81
-38.66
-28.84
-17.53
-5.93
5.01
14.65
22.57
28.47
32.16
33.59
33.00
30.90
27.96
24.86
22.14
20.06
18.70
17.99
17.82
18.06
18.58
19.24
19.86
20.25
20.21
19.63
18.48
16.83
14.83
12.60
10.22
7.71
5.05
2.29
-0.51
-3.26
-5.88
-8.35
-10.70
-12.99
-15.35
-17.91
-20.90
-24.54
-28.89
-33.66
-38.13
-41.27
-42.00
-39.62
-34.03
-25.85
-16.18
-6.26
2.84
10.51
16.55
21.05
24.18
26.03
26.61
25.94
24.24
21.90
19.49
17.57
16.52
16.38
16.90
17.61
18.06
17.98
17.27
16.08
14.68
13.29
12.06
10.96
9.84
8.39
6.44
3.89
0.81
-2.53
-5.91
-9.14
-12.14
-14.94
-17.64
-20.28
-22.97
-25.86
-29.07
-32.60
-36.26
-39.51
-41.58
-41.68
-39.19
-33.97
-26.42
-17.33
-7.79
1.18
8.74
14.42
18.11
20.01
20.47
19.88
18.54
16.71
14.56
12.34
10.32
8.77
7.87
7.63
7.82
8.11
8.17
7.70
6.65
5.09
3.19
1.10
-1.07
-3.29
-5.59
-8.00
-10.49
-12.98
-15.42
-17.80
-20.23
-22.94
-26.21
-30.13
-34.49
-38.62
-41.64
-42.57
-40.82
-36.30
-29.50
-21.31
-12.71
-4.51
2.77
8.81
13.51
16.82
18.83
19.66
19.53
18.65
17.25
15.52
13.69
12.04
10.86
10.38
10.66
11.57
12.79
14.01
14.91
15.29
15.05
14.17
12.69
10.73
8.47
6.10
3.77
1.46
-0.97
-3.75
-7.18
-11.42
-16.47
-22.03
-27.47
-31.91
-34.39
-34.16
-30.94
-25.08
-17.50
-9.43
-2.01
4.02
8.38
11.18
12.69
13.16
12.70
11.37
9.24
6.52
3.45
0.39
-2.29
-4.35
-5.58
-6.02
-5.83
-5.32
-4.81
-4.52
-4.52
-4.74
-5.18
-5.82
-6.81
-8.27
-10.25
-12.68
-15.44
-18.45
-21.73
-25.30
-29.04
-32.54
-35.07
-35.79
-34.05
-29.60
-22.82
-14.52
-5.78
2.38
9.24
14.42
17.87
19.67
19.97
18.89
16.64
13.52
10.00
6.63
3.86
1.96
0.89
0.44
0.31
0.30
0.30
0.30
0.25
0.10
-0.26
-0.98
-2.15
-3.82
-5.98
-8.69
-11.95
-15.74
-19.94
-24.26
-28.23
-31.29
-32.84
-32.39
-29.67
-24.75
-18.03
-10.24
-2.23
5.19
11.43
16.15
19.25
20.79
20.84
19.61
17.31
14.28
10.96
7.91
5.56
4.22
3.82
4.05
4.42
4.45
3.92
2.82
1.34
-0.31
-1.98
-3.66
-5.40
-7.34
-9.58
-12.30
-15.56
-19.36
-23.40
-27.11
-29.68
-30.31
-28.48
-24.15
-17.75
-10.05
-1.96
5.74
12.48
17.90
21.80
24.06
24.66
23.66
21.33
18.08
14.52
11.25
8.73
7.16
6.41
6.16
5.95
5.48
4.63
3.48
2.26
1.18
0.29
-0.55
-1.60
-3.19
-5.62
-9.04
-13.43
-18.51
-23.73
-28.24
-31.05
-31.33
-28.62
-23.06
-15.40
-6.74
1.74
9.13
14.90
18.86
20.97
21.28
19.91
17.03
13.04
8.58
4.30
0.85
-1.35
-2.22
-2.03
-1.25
-0.41
0.00
-0.17
-0.89
-1.97
-3.26
-4.79
-6.74
-9.36
-12.83
-17.19
-22.21
-27.49
-32.50
-36.56
-38.98
-39.17
-36.76
-31.80
-24.71
-16.19
-7.11
1.70
9.59
16.02
20.68
23.35
24.04
22.84
20.10
16.31
12.06
8.04
4.77
2.60
1.54
1.27
1.37
1.45
1.29
0.89
0.36
-0.26
-1.11
-2.43
-4.51
-7.51
-11.39
-15.96
-20.94
-25.90
-30.31
-33.50
-34.76
-33.53
-29.60
-23.23
-15.15
-6.33
2.25
9.86
16.04
20.64
23.67
25.17
25.22
23.88
21.37
18.03
14.40
11.09
8.62
7.29
7.07
7.64
8.51
9.26
9.57
9.33
8.54
7.26
5.53
3.33
0.66
-2.50
-6.17
-10.39
-15.23
-20.68
-26.48
-32.00
-36.28
-38.18
-36.83
-31.92
-23.94
-13.95
-3.30
6.80
15.59
22.72
28.18
32.00
34.17
34.67
33.56
31.12
27.90
24.54
21.69
19.77
18.91
18.94
19.55
20.35
21.07
21.53
21.65
21.33
20.38
18.59
15.76
11.95
7.43
2.71
-1.68
-5.40
-8.40
-11.01
-13.75
-17.21
-21.75
-27.44
-33.88
-40.21
-45.36
-48.17
-47.82
-43.97
-36.92
-27.49
-16.80
-5.98
4.06
12.76
19.80
25.09
28.61
30.33
30.32
28.78
26.10
22.95
20.06
18.06
17.29
17.75
19.08
20.81
22.46
23.68
24.33
24.43
24.03
23.17
21.78
19.78
17.05
13.63
9.64
5.39
1.21
-2.58
-5.84
-8.63
-11.22
-13.99
-17.28
-21.29
-26.02
-31.27
-36.63
-41.48
-45.09
-46.69
-45.59
-41.42
-34.26
-24.69
-13.72
-2.51
7.92
16.87
24.00
29.25
32.64
34.17
33.92
32.08
29.10
25.62
22.35
19.87
18.44
18.09
18.57
19.60
20.89
22.21
23.36
24.14
24.37
23.92
22.73
20.75
18.01
14.58
10.58
6.18
1.64
-2.77
-6.84
-10.49
-13.81
-17.09
-20.75
-25.16
-30.51
-36.59
-42.72
-47.87
-50.87
-50.79
-47.21
-40.38
-31.12
-20.54
-9.73
0.46
9.51
17.11
23.07
27.21
29.38
29.66
28.29
25.85
22.99
20.44
18.73
18.13
18.60
19.86
21.52
23.12
24.40
25.24
25.66
25.74
25.44
24.60
23.03
20.54
17.13
12.96
8.36
3.68
-0.79
-4.88
-8.56
-11.98
-15.35
-19.00
-23.22
-28.21
-33.92
-39.94
-45.48
-49.53
-51.16
-49.65
-44.86
-37.10
-27.17
-16.06
-4.73
5.98
15.48
23.29
29.14
32.81
34.37
34.02
32.21
29.59
26.84
24.57
23.18
22.78
23.19
24.08
25.04
25.75
26.06
25.92
25.43
24.66
23.64
22.26
20.40
17.95
14.82
11.06
6.76
2.08
-2.76
-7.50
-11.91
-15.85
-19.36
-22.68
-26.21
-30.32
-35.18
-40.50
-45.58
-49.41
-50.98
-49.53
-44.87
-37.34
-27.72
-17.00
-6.23
3.75
12.26
18.86
23.35
25.62
25.84
24.35
21.68
18.48
15.36
12.84
11.18
10.46
10.58
11.38
12.68
14.26
15.93
17.43
18.46
18.75
18.16
16.67
14.41
11.60
8.44
5.11
1.69
-1.78
-5.37
-9.14
-13.26
-17.86
-23.04
-28.61
-34.00
-38.33
-40.58
-39.95
-36.10
-29.34
-20.48
-10.62
-0.83
8.03
15.40
20.99
24.67
26.45
26.45
24.95
22.34
19.09
15.70
12.67
10.32
8.86
8.33
8.57
9.41
10.58
11.79
12.74
13.11
12.61
11.11
8.59
5.22
1.30
-2.85
-6.94
-10.82
-14.47
-18.07
-21.88
-26.19
-31.13
-36.48
-41.57
-45.38
-46.78
-44.96
-39.68
-31.44
-21.29
-10.52
-0.21
8.89
16.43
22.29
26.43
28.79
29.31
28.08
25.35
21.65
17.59
13.86
11.01
9.39
9.06
9.81
11.21
12.74
13.89
14.28
13.75
12.26
9.88
6.75
3.06
-0.95
-5.06
-9.13
-13.16
-17.34
-21.96
-27.23
-33.13
-39.13
-44.26
-47.32
-47.18
-43.22
-35.57
-25.13
-13.28
-1.53
8.91
17.33
23.48
27.43
29.39
29.59
28.36
26.08
23.26
20.42
18.00
16.23
15.19
14.83
15.05
15.73
16.69
17.61
18.10
17.74
16.29
13.70
10.21
6.16
1.88
-2.41
-6.63
-10.90
-15.31
-20.04
-25.21
-30.94
-37.21
-43.72
-49.80
-54.40
-56.37
-54.81
-49.39
-40.58
-29.53
-17.72
-6.55
2.97
10.38
15.65
19.02
20.82
21.33
20.77
19.35
17.35
15.09
12.97
11.44
10.81
11.21
12.47
14.20
15.82
16.86
16.99
16.14
14.43
12.05
9.13
5.75
1.90
-2.40
-7.11
-12.20
-17.64
-23.43
-29.45
-35.37
-40.46
-43.77
-44.29
-41.29
-34.65
-24.96
-13.33
-1.18
10.24
20.02
27.68
33.11
36.41
37.78
37.48
35.83
33.27
30.31
27.44
25.07
23.43
22.62
22.59
23.25
24.49
26.06
27.63
28.79
29.15
28.54
27.00
24.86
22.55
20.46
18.76
17.33
15.79
13.60
10.29
5.66
-0.02
-5.94
-10.84
-13.34
-12.41
-7.84
-0.38
8.46
16.98
23.85
28.51
31.19
32.50
32.90
32.49
30.94
27.80
22.89
16.47
9.19
1.91
-4.59
-9.84
-13.74
-16.43
-18.25
-19.52
-20.48
-21.29
-22.05
-22.94
-24.20
-26.21
-29.27
-33.46
-38.51
-43.78
-48.48
-52.03
-54.24
-55.46
-56.43
-57.99
-60.76
-64.86
-69.80
-74.52
-77.69
-77.99
-74.48
-66.88
-55.66
-41.92
-27.08
-12.55
0.60
11.68
20.43
26.76
30.72
32.49
32.39
30.95
28.92
27.09
26.08
26.20
27.37
29.23
31.31
33.18
34.59
35.45
35.77
35.59
34.92
33.68
31.76
28.99
25.33
20.85
15.77
10.42
5.11
0.04
-4.80
-9.52
-14.36
-19.60
-25.44
-31.95
-38.94
-45.82
-51.63
-55.19
-55.39
-51.55
-43.73
-32.72
-19.84
-6.55
5.91
16.67
25.29
31.67
35.85
37.96
38.18
36.79
34.20
30.96
27.69
24.99
23.26
22.61
22.85
23.64
24.60
25.50
26.25
26.78
26.91
26.34
24.69
21.76
17.63
12.72
7.56
2.61
-1.94
-6.17
-10.35
-14.75
-19.59
-24.98
-30.92
-37.24
-43.50
-48.92
-52.43
-53.00
-49.92
-43.08
-33.09
-21.03
-8.25
4.01
14.74
23.32
29.41
32.97
34.15
33.31
30.98
27.78
24.43
21.53
19.52
18.57
18.58
19.26
20.29
21.36
22.32
23.11
23.64
23.73
23.14
21.54
18.78
14.85
10.09
4.98
0.08
-4.27
-8.04
-11.52
-15.27
-19.83
-25.59
-32.49
-40.00
-47.14
-52.69
-55.45
-54.56
-49.73
-41.32
-30.24
-17.76
-5.18
6.41
16.22
23.80
28.94
31.69
32.22
30.82
27.95
24.14
20.04
16.25
13.20
11.12
9.95
9.49
9.47
9.73
10.17
10.79
11.49
11.99
11.89
10.72
8.19
4.27
-0.72
-6.26
-11.73
-16.66
-20.82
-24.25
-27.32
-30.55
-34.52
-39.56
-45.59
-51.93
-57.42
-60.67
-60.44
-56.05
-47.63
-36.11
-22.84
-9.32
3.30
14.22
23.05
29.64
33.91
35.92
35.82
34.03
31.21
28.14
25.56
23.95
23.47
23.91
24.87
25.98
26.90
27.50
27.80
27.82
27.54
26.78
25.28
22.75
19.11
14.47
9.20
3.80
-1.25
-5.69
-9.49
-12.93
-16.43
-20.48
-25.51
-31.64
-38.57
-45.43
-50.95
-53.73
-52.67
-47.32
-38.03
-25.85
-12.20
1.45
13.86
24.19
31.94
36.97
39.39
39.52
37.88
35.11
31.87
28.76
26.28
24.75
24.25
24.58
25.41
26.35
27.14
27.64
27.81
27.64
27.03
25.78
23.68
20.58
16.46
11.51
6.07
0.57
-4.57
-9.03
-12.75
-16.01
-19.34
-23.45
-28.84
-35.54
-42.98
-49.98
-55.15
-57.21
-55.45
-49.81
-40.84
-29.53
-16.98
-4.27
7.64
17.98
26.15
31.77
34.73
35.19
33.61
30.62
26.98
23.45
20.56
18.65
17.77
17.73
18.19
18.86
19.53
20.10
20.57
20.78
20.51
19.43
17.26
13.95
9.70
4.92
0.05
-4.58
-8.87
-12.92
-17.04
-21.64
-27.07
-33.49
-40.72
-48.08
-54.42
-58.39
-58.81
-55.06
-47.38
-36.75
-24.65
-12.60
-1.78
7.19
14.13
19.19
22.53
24.29
24.49
23.23
20.74
17.55
14.32
11.76
10.39
10.38
11.50
13.23
14.93
16.02
16.11
15.05
12.93
10.04
6.67
3.13
-0.44
-4.02
-7.75
-11.85
-16.59
-22.17
-28.65
-35.77
-42.90
-48.99
-52.74
-52.97
-48.98
-40.83
-29.42
-16.22
-2.92
9.06
18.81
25.96
30.53
32.75
32.82
30.99
27.60
23.13
18.28
13.75
10.15
7.84
6.89
7.03
7.83
8.81
9.49
9.60
9.00
7.75
5.97
3.82
1.40
-1.27
-4.30
-7.92
-12.39
-17.98
-24.78
-32.50
-40.35
-47.08
-51.19
-51.39
-47.04
-38.38
-26.48
-12.90
0.75
13.19
23.60
31.57
36.97
39.84
40.40
38.97
36.11
32.44
28.63
25.28
22.80
21.46
21.28
22.12
23.60
25.15
26.15
26.01
24.40
21.22
16.68
11.12
4.97
-1.44
-7.84
-14.15
-20.41
-26.83
-33.67
-41.04
-48.80
-56.30
-62.43
-65.85
-65.33
-60.25
-50.78
-37.94
-23.28
-8.49
4.97
16.13
24.55
30.20
33.26
34.07
33.03
30.64
27.52
24.32
21.62
19.84
19.11
19.29
20.09
21.13
22.11
22.80
23.03
22.67
21.53
19.44
16.30
12.18
7.30
2.05
-3.20
-8.25
-13.12
-18.10
-23.65
-30.12
-37.57
-45.56
-53.12
-58.93
-61.60
-60.10
-54.07
-43.96
-30.92
-16.49
-2.28
10.44
20.82
28.49
33.41
35.73
35.75
33.90
30.77
27.06
23.54
20.87
19.42
19.26
20.08
21.38
22.63
23.44
23.70
23.45
22.79
21.74
20.16
17.82
14.51
10.18
5.03
-0.52
-6.01
-11.05
-15.52
-19.63
-23.81
-28.57
-34.33
-41.17
-48.80
-56.47
-63.06
-67.29
-67.97
-64.40
-56.55
-45.10
-31.34
-16.76
-2.71
9.87
20.43
28.81
34.93
38.74
40.17
39.31
36.56
32.66
28.55
25.15
23.05
22.38
22.82
23.85
24.97
25.94
26.72
27.41
27.96
28.22
27.79
26.33
23.60
19.67
14.84
9.52
4.13
-1.09
-6.09
-10.96
-15.86
-20.92
-26.26
-31.98
-38.21
-44.97
-52.00
-58.62
-63.73
-66.02
-64.36
-58.27
-48.08
-34.89
-20.21
-5.55
7.91
19.48
28.76
35.57
39.75
41.26
40.23
37.12
32.77
28.20
24.46
22.25
21.78
22.74
24.51
26.42
27.98
29.04
29.63
29.82
29.49
28.37
26.08
22.44
17.54
11.78
5.74
-0.09
-5.43
-10.29
-14.91
-19.63
-24.74
-30.45
-36.77
-43.46
-49.95
-55.33
-58.45
-58.22
-53.93
-45.57
-33.94
-20.39
-6.48
6.50
17.70
26.80
33.68
38.29
40.50
40.21
37.60
33.20
27.95
22.96
19.12
16.93
16.36
17.00
18.25
19.58
20.63
21.24
21.32
20.82
19.67
17.73
14.89
11.08
6.40
1.15
-4.23
-9.30
-13.74
-17.58
-21.16
-25.04
-29.83
-35.90
-43.20
-51.12
-58.59
-64.21
-66.59
-64.71
-58.25
-47.67
-34.14
-19.22
-4.45
9.00
20.40
29.39
35.81
39.55
40.60
39.15
35.75
31.29
26.80
23.25
21.15
20.56
21.14
22.38
23.77
24.98
25.87
26.39
26.47
25.97
24.65
22.29
18.67
13.80
7.92
1.46
-5.03
-11.08
-16.45
-21.18
-25.62
-30.31
-35.77
-42.33
-49.91
-57.91
-65.23
-70.48
-72.28
-69.67
-62.38
-50.95
-36.58
-20.82
-5.20
9.04
21.07
30.46
37.07
40.92
42.17
41.15
38.40
34.67
30.78
27.46
25.17
24.05
23.90
24.35
25.06
25.84
26.61
27.31
27.76
27.63
26.43
23.77
19.49
13.85
7.39
0.83
-5.27
-10.64
-15.43
-20.09
-25.16
-31.05
-37.85
-45.29
-52.62
-58.81
-62.70
-63.18
-59.55
-51.67
-40.08
-25.90
-10.57
4.45
17.90
28.87
36.85
41.66
43.47
42.70
40.00
36.13
31.88
27.99
24.98
23.13
22.40
22.53
23.04
23.55
23.77
23.62
23.14
22.32
21.00
18.87
15.57
10.95
5.25
-0.98
-7.05
-12.41
-16.98
-21.11
-25.52
-30.89
-37.60
-45.47
-53.72
-61.14
-66.35
-68.12
-65.63
-58.69
-47.82
-34.20
-19.38
-4.97
7.73
17.94
25.42
30.29
32.77
33.12
31.54
28.40
24.23
19.71
15.53
12.19
10.00
8.98
9.01
9.81
11.03
12.18
12.76
12.35
10.73
7.90
4.13
-0.25
-4.97
-9.85
-14.94
-20.33
-26.15
-32.54
-39.53
-46.90
-54.13
-60.31
-64.25
-64.72
-60.80
-52.24
-39.57
-24.03
-7.32
8.82
22.96
34.12
41.83
46.09
47.16
45.61
42.10
37.45
32.47
27.89
24.21
21.60
20.00
19.21
19.07
19.56
20.72
22.44
24.39
25.95
26.34
25.06
22.10
18.05
13.94
10.80
9.20
8.96
9.22
8.68
6.25
1.48
-5.04
-11.78
-16.62
-17.53
-13.22
-3.48
10.85
28.17
46.61
64.46
80.47
94.14
105.84
116.80
128.72
142.89
159.25
175.70
188.53
193.46
187.34
169.26
140.68
104.36
62.82
17.48
-30.99
-81.24
-129.94
-171.61
-200.09
-211.09
-204.26
-183.79
-156.79
-130.45
-109.58
-95.34
-86.12
-79.37
-73.48
-68.59
-66.03
-67.13
-72.04
-79.46
-87.07
-92.49
-94.00
-91.07
-84.07
-73.88
-61.43
-47.43
-32.39
-16.78
-1.31
13.06
25.10
33.71
38.29
39.04
36.95
33.48
30.06
27.61
26.34
25.90
25.80
25.71
25.70
26.02
26.88
28.14
29.31
29.72
28.83
26.40
22.59
17.77
12.44
7.07
2.03
-2.49
-6.55
-10.40
-14.52
-19.38
-25.24
-31.89
-38.63
-44.29
-47.60
-47.45
-43.25
-35.09
-23.77
-10.54
3.10
15.83
26.65
35.01
40.72
43.78
44.28
42.50
38.87
34.05
28.88
24.17
20.54
18.31
17.44
17.68
18.65
20.00
21.43
22.63
23.28
23.01
21.56
18.75
14.67
9.70
4.32
-0.97
-5.90
-10.51
-15.14
-20.30
-26.47
-33.89
-42.39
-51.18
-58.95
-64.12
-65.22
-61.40
-52.74
-40.20
-25.42
-10.17
4.14
16.55
26.60
34.09
38.93
41.08
40.65
38.04
33.91
29.14
24.62
20.95
18.42
16.96
16.31
16.18
16.34
16.66
17.04
17.30
17.11
16.05
13.75
10.00
4.95
-0.91
-6.89
-12.34
-16.88
-20.57
-23.88
-27.52
-32.19
-38.28
-45.74
-53.94
-61.75
-67.72
-70.38
-68.61
-61.93
-50.74
-36.17
-19.90
-3.69
10.96
23.08
32.22
38.40
41.84
42.92
42.04
39.65
36.30
32.60
29.16
26.49
24.83
24.14
24.15
24.54
25.04
25.52
25.86
25.87
25.20
23.42
20.22
15.63
10.06
4.12
-1.59
-6.77
-11.54
-16.31
-21.61
-27.85
-35.15
-43.27
-51.55
-58.97
-64.24
-66.00
-63.22
-55.56
-43.51
-28.43
-12.10
3.70
17.61
28.89
37.31
42.97
46.08
46.85
45.56
42.65
38.74
34.57
30.87
28.21
26.79
26.53
27.05
27.87
28.58
28.91
28.70
27.91
26.44
24.17
20.97
16.84
11.95
6.63
1.34
-3.60
-8.06
-12.16
-16.30
-20.94
-26.56
-33.35
-41.06
-48.97
-55.81
-60.09
-60.47
-56.16
-47.21
-34.47
-19.47
-3.92
10.64
23.08
32.79
39.56
43.45
44.60
43.32
40.04
35.37
30.13
25.18
21.27
18.80
17.79
17.91
18.71
19.75
20.72
21.40
21.59
21.07
19.58
16.96
13.17
8.39
2.96
-2.73
-8.42
-13.99
-19.47
-25.04
-30.89
-37.22
-44.02
-51.02
-57.52
-62.36
-64.21
-61.90
-54.88
-43.52
-29.12
-13.47
1.58
14.68
25.08
32.58
37.25
39.15
38.40
35.26
30.31
24.45
18.73
14.08
11.05
9.74
9.91
11.15
12.99
15.02
16.81
17.98
18.18
17.21
15.05
11.88
8.03
3.85
-0.35
-4.36
-8.13
-11.84
-15.91
-20.75
-26.53
-32.69
-37.86
-40.11
-37.50
-28.97
-14.77
3.45
23.18
41.77
57.10
67.96
74.21
76.75
77.50
79.20
84.67
95.80
112.44
131.89
149.32
159.25
157.30
141.45
112.34
72.56
25.68
-24.38
-73.61
-117.95
-153.49
-177.12
-187.39
-184.92
-172.38
-153.68
-132.97
-113.73
-98.33
-87.90
-82.42
-80.90
-81.62
-82.56
-81.82
-78.04
-70.67
-59.93
-46.60
-31.81
-16.83
-2.84
9.24
18.77
25.39
29.01
29.79
28.19
24.92
20.92
17.19
14.50
13.24
13.35
14.45
16.05
17.72
19.12
19.91
19.81
18.53
15.92
12.10
7.41
2.29
-2.93
-8.23
-13.86
-20.26
-27.75
-36.29
-45.27
-53.56
-59.69
-62.19
-60.03
-52.91
-41.41
-26.83
-10.87
4.81
18.90
30.61
39.58
45.73
49.12
49.90
48.34
44.87
40.09
34.67
29.36
24.81
21.53
19.76
19.37
19.89
20.62
20.81
19.86
17.56
14.04
9.65
4.77
-0.32
-5.51
-10.80
-16.21
-21.84
-27.79
-34.24
-41.27
-48.70
-55.87
-61.63
-64.49
-63.09
-56.62
-45.27
-30.24
-13.43
3.17
17.96
30.05
39.22
45.57
49.34
50.76
50.05
47.68
44.34
40.93
38.26
36.83
36.75
37.69
39.19
40.73
41.97
42.66
42.62
41.61
39.39
35.72
30.55
24.07
16.70
9.01
1.52
-5.44
-11.82
-17.81
-23.82
-30.31
-37.66
-46.06
-55.30
-64.63
-72.80
-78.21
-79.35
-75.24
-65.88
-52.25
-36.07
-19.29
-3.60
9.90
20.73
28.82
34.25
37.16
37.66
36.01
32.72
28.58
24.55
21.51
19.97
20.01
21.26
23.12
25.06
26.75
28.07
28.97
29.34
28.90
27.32
24.32
19.93
14.41
8.28
2.07
-3.76
-8.96
-13.49
-17.59
-21.68
-26.30
-31.94
-38.78
-46.50
-54.22
-60.51
-63.85
-62.98
-57.38
-47.39
-34.14
-19.20
-4.18
9.61
21.41
30.80
37.68
42.02
43.75
42.98
40.04
35.65
30.88
26.88
24.57
24.32
25.81
28.26
30.72
32.52
33.42
33.58
33.31
32.69
31.57
29.49
26.09
21.23
15.19
8.57
2.02
-3.91
-8.99
-13.27
-17.05
-20.75
-24.80
-29.60
-35.43
-42.34
-50.00
-57.62
-63.88
-67.30
-66.60
-61.10
-51.04
-37.50
-22.12
-6.62
7.57
19.58
28.96
35.60
39.51
40.76
39.58
36.43
32.09
27.53
23.78
21.53
20.98
21.88
23.56
25.33
26.71
27.50
27.78
27.66
27.11
25.87
23.65
20.17
15.49
9.93
4.06
-1.52
-6.50
-10.91
-15.10
-19.54
-24.60
-30.40
-36.75
-43.23
-49.12
-53.50
-55.36
-53.73
-48.02
-38.37
-25.63
-11.26
3.12
16.14
26.94
35.09
40.44
42.93
42.58
39.65
34.76
28.84
22.98
18.14
14.87
13.29
13.14
13.96
15.27
16.61
17.61
17.93
17.30
15.56
12.74
9.05
4.82
0.48
-3.69
-7.62
-11.49
-15.70
-20.69
-26.76
-33.87
-41.48
-48.54
-53.67
-55.54
-53.17
-46.34
-35.62
-22.25
-7.85
5.94
17.87
27.09
33.24
36.32
36.59
34.46
30.49
25.29
19.57
14.01
9.19
5.59
3.39
2.53
2.73
3.56
4.52
5.16
5.14
4.31
2.67
0.29
-2.67
-6.10
-9.94
-14.19
-18.92
-24.29
-30.43
-37.33
-44.64
-51.50
-56.56
-58.37
-55.77
-48.36
-36.78
-22.52
-7.49
6.53
18.37
27.54
34.09
38.22
40.11
39.78
37.29
32.94
27.42
21.71
16.85
13.60
12.22
12.48
13.77
15.37
16.73
17.46
17.47
16.76
15.36
13.28
10.50
7.02
2.87
-1.90
-7.32
-13.51
-20.58
-28.39
-36.37
-43.37
-47.90
-48.50
-44.30
-35.41
-22.84
-8.30
6.39
19.75
30.84
39.25
44.84
47.64
47.73
45.30
40.75
34.74
28.09
21.70
16.40
12.71
10.90
10.76
11.77
13.19
14.23
14.30
13.16
10.88
7.77
4.12
0.13
-4.22
-9.10
-14.71
-21.19
-28.62
-36.87
-45.55
-53.86
-60.56
-64.14
-63.24
-57.15
-46.17
-31.64
-15.59
-0.09
13.31
23.80
31.23
35.77
37.66
37.11
34.45
30.18
25.07
19.97
15.66
12.57
10.76
10.00
9.89
10.07
10.25
10.24
9.92
9.16
7.84
5.82
2.98
-0.73
-5.24
-10.44
-16.18
-22.41
-29.17
-36.40
-43.82
-50.69
-55.85
-57.90
-55.74
-48.95
-38.09
-24.60
-10.28
3.18
14.64
23.61
30.05
34.07
35.71
35.08
32.35
28.02
22.87
17.79
13.56
10.66
9.25
9.14
9.91
11.00
11.87
12.05
11.28
9.59
7.11
4.10
0.75
-2.89
-6.87
-11.29
-16.31
-22.08
-28.73
-36.22
-44.21
-51.87
-57.93
-60.90
-59.59
-53.47
-42.95
-29.27
-14.12
0.83
14.31
25.52
34.08
39.85
42.79
42.96
40.69
36.60
31.60
26.72
22.83
20.45
19.65
20.11
21.31
22.70
23.91
24.74
25.09
24.87
23.95
22.11
19.16
15.08
10.00
4.30
-1.57
-7.24
-12.58
-17.70
-22.93
-28.71
-35.37
-42.99
-51.27
-59.39
-66.12
-69.98
-69.64
-64.36
-54.27
-40.39
-24.43
-8.24
6.64
19.21
29.06
36.09
40.38
42.03
41.29
38.63
34.77
30.54
26.70
23.74
21.84
20.92
20.80
21.30
22.20
23.20
23.93
23.94
22.87
20.55
17.08
12.74
7.90
2.89
-2.04
-6.71
-11.09
-15.28
-19.63
-24.63
-30.78
-38.27
-46.71
-55.00
-61.51
-64.53
-62.75
-55.80
-44.34
-29.80
-14.01
1.34
15.06
26.46
35.21
41.19
44.34
44.67
42.46
38.31
33.08
27.81
23.36
20.27
18.65
18.25
18.65
19.37
20.11
20.72
21.15
21.42
21.41
20.85
19.37
16.61
12.41
6.93
0.63
-5.85
-11.94
-17.33
-22.09
-26.56
-31.16
-36.30
-42.19
-48.82
-55.85
-62.54
-67.74
-70.04
-68.15
-61.35
-49.85
-34.84
-18.17
-1.76
12.84
24.77
33.80
40.00
43.41
44.10
42.18
38.14
32.85
27.53
23.32
20.95
20.46
21.31
22.69
23.90
24.58
24.76
24.65
24.44
24.03
23.10
21.18
17.93
13.28
7.55
1.31
-4.80
-10.27
-14.92
-18.96
-22.86
-27.21
-32.48
-38.83
-45.95
-53.07
-58.98
-62.32
-61.88
-56.97
-47.70
-34.96
-20.22
-5.12
8.91
20.88
30.28
36.95
40.89
42.15
40.94
37.63
32.85
27.52
22.62
18.98
17.09
16.93
18.02
19.69
21.33
22.58
23.41
23.91
24.09
23.74
22.44
19.77
15.57
10.12
4.02
-1.99
-7.39
-12.05
-16.28
-20.63
-25.71
-31.92
-39.28
-47.33
-55.11
-61.38
-64.78
-64.26
-59.31
-50.15
-37.68
-23.29
-8.48
5.46
17.60
27.46
34.80
39.60
41.88
41.71
39.32
35.23
30.24
25.25
21.08
18.23
16.76
16.41
16.81
17.62
18.61
19.58
20.23
20.18
18.97
16.35
12.37
7.39
1.95
-3.44
-8.53
-13.32
-18.05
-23.05
-28.63
-34.94
-41.91
-49.07
-55.55
-60.11
-61.41
-58.42
-50.81
-39.17
-24.86
-9.66
4.70
16.95
26.41
32.96
36.76
38.07
37.16
34.38
30.15
25.13
20.06
15.66
12.47
10.73
10.33
10.88
11.87
12.77
13.17
12.86
11.76
9.88
7.27
4.02
0.20
-4.07
-8.68
-13.55
-18.72
-24.34
-30.58
-37.47
-44.60
-51.08
-55.55
-56.60
-53.20
-45.11
-33.11
-18.75
-3.92
9.74
21.14
29.85
35.86
39.33
40.33
38.97
35.48
30.42
24.62
19.03
14.48
11.42
9.88
9.52
9.87
10.37
10.60
10.28
9.29
7.60
5.29
2.45
-0.86
-4.58
-8.69
-13.18
-18.10
-23.55
-29.64
-36.44
-43.77
-51.01
-57.06
-60.52
-60.05
-54.88
-45.08
-31.68
-16.44
-1.32
12.05
22.68
30.31
35.14
37.59
37.96
36.52
33.48
29.26
24.53
20.16
16.96
15.39
15.48
16.76
18.48
19.86
20.31
19.55
17.55
14.50
10.66
6.28
1.58
-3.29
-8.27
-13.37
-18.73
-24.64
-31.40
-39.22
-47.85
-56.38
-63.30
-66.74
-65.18
-57.98
-45.77
-30.22
-13.52
2.30
15.85
26.49
34.13
38.93
41.15
41.10
39.15
35.86
31.85
27.74
24.02
21.04
19.05
18.12
18.18
18.93
19.89
20.46
20.13
18.58
15.81
12.03
7.60
2.85
-2.02
-7.00
-12.23
-17.95
-24.43
-31.79
-39.87
-48.09
-55.46
-60.63
-62.30
-59.52
-52.03
-40.39
-25.89
-10.20
5.02
18.43
29.22
37.10
42.13
44.51
44.51
42.44
38.69
33.85
28.72
24.16
20.90
19.34
19.47
20.86
22.88
24.86
26.25
26.68
25.99
24.11
21.11
17.22
12.71
7.86
2.85
-2.31
-7.73
-13.58
-19.96
-26.78
-33.74
-40.26
-45.51
-48.43
-47.94
-43.20
-33.94
-20.70
-4.70
12.43
29.12
44.11
56.50
65.47
70.12
69.53
63.19
51.53
36.28
20.22
6.51
-2.41
-5.53
-3.51
1.74
7.92
13.09
16.19
16.94
15.57
12.44
7.87
2.15
-4.33
-10.98
-17.19
-22.48
-26.77
-30.46
-34.37
-39.37
-46.09
-54.53
-63.90
-72.68
-78.92
-80.83
-77.20
-67.88
-53.81
-36.76
-18.84
-1.91
12.77
24.62
33.54
39.61
42.92
43.58
41.89
38.47
34.27
30.33
27.46
26.01
25.83
26.43
27.23
27.87
28.15
28.05
27.49
26.36
24.48
21.72
18.07
13.68
8.83
3.79
-1.25
-6.28
-11.37
-16.72
-22.54
-29.03
-36.31
-44.29
-52.52
-60.10
-65.65
-67.67
-64.95
-57.02
-44.49
-28.85
-12.06
4.06
18.28
30.03
39.23
45.96
50.26
52.08
51.52
49.01
45.38
41.70
38.97
37.79
38.15
39.50
41.00
41.84
41.53
39.92
37.12
33.31
28.56
22.79
15.94
8.06
-0.53
-9.24
-17.44
-24.54
-30.25
-34.55
-37.80
-40.59
-43.66
-47.62
-52.78
-58.90
-65.07
-69.85
-71.62
-69.11
-61.73
-49.91
-34.91
-18.51
-2.51
11.66
23.12
31.52
36.85
39.28
39.08
36.63
32.57
27.68
22.91
19.09
16.77
16.12
16.93
18.75
21.05
23.36
25.30
26.56
26.93
26.24
24.39
21.41
17.46
12.73
7.48
1.92
-3.81
-9.71
-15.91
-22.63
-30.01
-37.89
-45.59
-51.86
-55.13
-54.01
-47.76
-36.72
-22.26
-6.36
8.97
22.18
32.43
39.55
43.68
45.12
44.21
41.33
37.03
32.00
27.05
22.90
20.07
18.74
18.81
19.96
21.68
23.40
24.54
24.62
23.38
20.83
17.25
13.06
8.63
4.13
-0.48
-5.40
-10.86
-16.93
-23.54
-30.42
-37.12
-42.90
-46.76
-47.67
-44.82
-38.09
-28.20
-16.69
-5.49
3.74
9.94
12.95
13.24
11.63
8.87
5.49
1.82
-2.00
-5.73
-9.09
-11.74
-13.33
-13.64
-12.66
-10.54
-7.64
-4.43
-1.49
0.53
1.04
-0.30
-3.42
-7.74
-12.29
-15.96
-17.98
-18.22
-17.36
-16.61
-17.34
-20.55
-26.43
-34.23
-42.40
-48.96
-52.00
-50.10
-42.80
-30.62
-15.03
1.96
18.28
32.25
42.92
50.02
53.82
54.82
53.53
50.42
45.97
40.72
35.26
30.19
25.98
22.89
20.95
20.10
20.13
20.81
21.84
22.77
23.11
22.32
19.99
15.94
10.35
3.74
-3.23
-9.91
-16.01
-21.64
-27.33
-33.66
-40.96
-48.91
-56.49
-62.16
-64.27
-61.73
-54.25
-42.61
-28.29
-13.16
1.14
13.47
23.22
30.24
34.57
36.34
35.73
33.08
28.94
24.08
19.34
15.40
12.71
11.36
11.19
11.89
13.08
14.34
15.21
15.26
14.03
11.34
7.18
1.90
-4.00
-9.95
-15.51
-20.47
-24.85
-28.94
-33.12
-37.85
-43.36
-49.53
-55.66
-60.52
-62.62
-60.65
-53.98
-42.97
-28.96
-13.86
0.38
12.29
21.12
26.84
29.81
30.49
29.23
26.33
22.17
17.27
12.33
8.05
4.90
3.02
2.25
2.24
2.62
3.09
3.46
3.60
3.40
2.80
1.84
0.60
-0.83
-2.43
-4.28
-6.56
-9.44
-13.05
-17.46
-22.67
-28.58
-34.82
-40.70
-45.16
-46.91
-44.78
-38.11
-27.13
-12.93
2.72
17.90
31.02
41.15
47.97
51.65
52.56
51.00
47.30
41.86
35.37
28.75
23.02
18.98
16.93
16.63
17.39
18.41
18.96
18.69
17.54
15.73
13.52
11.03
8.27
5.07
1.19
-3.60
-9.45
-16.38
-24.21
-32.43
-40.21
-46.40
-49.69
-48.90
-43.48
-33.71
-20.80
-6.54
7.21
18.98
27.99
34.07
37.46
38.39
37.10
33.77
28.83
22.99
17.27
12.67
9.86
8.93
9.35
10.29
10.89
10.70
9.62
7.92
5.89
3.64
1.06
-2.18
-6.41
-11.86
-18.54
-26.28
-34.68
-43.00
-50.16
-54.82
-55.70
-51.95
-43.59
-31.55
-17.45
-3.10
9.97
20.84
29.15
34.81
37.83
38.14
35.72
30.81
24.10
16.71
9.89
4.68
1.58
0.41
0.46
0.79
0.61
-0.51
-2.49
-5.05
-7.84
-10.73
-13.83
-17.34
-21.52
-26.46
-32.21
-38.63
-45.39
-51.81
-56.78
-58.92
-56.90
-49.95
-38.26
-23.09
-6.40
9.72
23.59
34.31
41.63
45.79
47.20
46.24
43.28
38.85
33.58
28.28
23.74
20.52
18.81
18.36
18.63
19.03
19.09
18.58
17.46
15.79
13.54
10.63
6.97
2.56
-2.50
-8.03
-13.94
-20.33
-27.43
-35.43
-44.16
-52.88
-60.26
-64.69
-64.71
-59.58
-49.50
-35.58
-19.56
-3.19
12.09
25.36
36.12
44.14
49.26
51.36
50.51
47.08
41.87
35.99
30.64
26.81
25.01
25.16
26.69
28.73
30.45
31.32
31.15
30.09
28.36
26.10
23.28
19.74
15.34
10.09
4.22
-1.84
-7.67
-12.91
-17.43
-21.32
-24.86
-28.42
-32.39
-37.18
-43.04
-50.03
-57.85
-65.72
-72.36
-76.14
-75.53
-69.56
-58.26
-42.77
-24.99
-7.12
8.99
22.23
32.21
39.10
43.28
45.16
45.08
43.45
40.85
38.01
35.69
34.47
34.63
36.10
38.53
41.45
44.40
46.95
48.78
49.62
49.29
47.65
44.70
40.59
35.52
29.81
23.77
17.67
11.64
5.76
-0.00
-5.63
-11.01
-15.98
-20.35
-24.10
-27.48
-31.02
-35.35
-41.02
-48.15
-56.29
-64.33
-70.68
-73.61
-71.79
-64.65
-52.65
-37.19
-20.17
-3.48
11.46
23.89
33.60
40.62
45.04
46.92
46.44
44.04
40.48
36.73
33.75
32.22
32.43
34.18
37.00
40.20
43.19
45.47
46.73
46.86
45.90
44.01
41.45
38.54
35.54
32.62
29.79
26.86
23.65
20.01
15.96
11.75
7.78
4.48
2.13
0.69
-0.25
-1.38
-3.47
-6.95
-11.57
-16.17
-18.83
-17.29
-9.69
4.56
24.36
46.84
68.12
84.38
93.01
93.42
87.03
76.66
65.45
55.90
49.12
44.88
41.92
38.64
33.59
25.67
14.07
-1.84
-22.42
-47.56
-76.31
-106.94
-137.24
-165.07
-188.84
-207.46
-220.06
-225.61
-223.08
-211.97
-193.16
-169.22
-143.92
-121.17
-103.79
-92.90
-88.00
-87.72
-90.36
-94.30
-97.84
-99.18
-96.56
-88.71
-75.39
-57.57
-37.15
-16.36
2.80
19.02
31.66
40.66
46.29
48.93
49.08
47.33
44.35
40.89
37.66
35.25
34.00
33.98
34.96
36.48
38.03
39.15
39.55
39.08
37.61
35.05
31.33
26.48
20.71
14.45
8.21
2.35
-3.02
-8.14
-13.49
-19.51
-26.39
-33.79
-40.89
-46.52
-49.46
-48.82
-44.21
-35.85
-24.43
-10.93
3.53
17.79
30.75
41.42
49.03
53.22
54.03
51.98
47.84
42.50
36.80
31.44
26.96
23.73
21.93
21.49
22.16
23.52
25.09
26.44
27.26
27.31
26.46
24.60
21.66
17.72
12.99
7.80
2.55
-2.45
-7.17
-11.86
-17.05
-23.29
-30.84
-39.43
-48.11
-55.39
-59.61
-59.45
-54.31
-44.51
-31.14
-15.75
0.12
15.21
28.65
39.93
48.72
54.75
57.92
58.29
56.23
52.39
47.60
42.78
38.70
35.81
34.26
33.85
34.18
34.78
35.23
35.20
34.48
32.92
30.39
26.81
22.19
16.70
10.79
4.96
-0.32
-4.89
-9.01
-13.34
-18.67
-25.53
-33.82
-42.66
-50.47
-55.40
-55.94
-51.40
-42.12
-29.38
-14.93
-0.49
12.70
23.99
33.21
40.39
45.56
48.61
49.49
48.28
45.36
41.35
37.02
33.12
30.17
28.43
27.85
28.15
28.95
29.85
30.50
30.58
29.80
27.93
24.80
20.49
15.24
9.54
3.82
-1.61
-6.76
-11.97
-17.75
-24.55
-32.51
-41.27
-49.87
-56.93
-60.96
-60.68
-55.51
-45.71
-32.34
-17.01
-1.41
13.04
25.39
35.14
42.07
46.11
47.29
45.79
42.07
36.86
31.10
25.77
21.61
19.04
18.12
18.60
20.01
21.86
23.62
24.84
25.14
24.25
22.07
18.70
14.37
9.47
4.42
-0.49
-5.20
-9.92
-15.13
-21.34
-28.81
-37.35
-46.19
-54.03
-59.33
-60.69
-57.27
-49.05
-36.87
-22.21
-6.79
7.85
20.60
30.80
38.14
42.53
43.99
42.71
39.16
34.13
28.63
23.66
19.95
17.84
17.25
17.83
19.09
20.57
21.84
22.62
22.67
21.82
20.03
17.36
13.97
10.04
5.78
1.28
-3.46
-8.62
-14.43
-21.14
-28.85
-37.38
-46.07
-53.84
-59.29
-61.04
-58.13
-50.36
-38.42
-23.70
-7.93
7.27
20.67
31.49
39.34
44.05
45.67
44.51
41.20
36.66
31.94
27.92
25.07
23.41
22.64
22.38
22.41
22.77
23.58
24.96
26.69
28.20
28.69
27.41
24.10
19.17
13.68
8.94
5.97
4.91
4.96
4.69
2.60
-2.09
-9.01
-16.51
-21.93
-21.99
-13.49
5.84
36.34
75.76
119.22
160.24
192.45
211.64
216.91
210.71
197.48
181.86
167.00
153.99
142.35
131.09
119.76
108.77
99.01
91.04
84.59
78.38
70.62
59.69
44.77
25.93
3.86
-20.48
-46.20
-72.51
-98.59
-123.47
-146.11
-165.66
-181.74
-194.50
-204.43
-211.91
-216.86
-218.66
-216.24
-208.57
-195.10
-176.15
-152.84
-126.93
-100.41
-75.18
-52.91
-34.81
-21.58
-13.28
-9.26
-8.26
-8.69
-9.10
-8.60
-7.06
-5.00
-3.23
-2.41
-2.69
-3.65
-4.66
-5.17
-5.09
-4.92
-5.51
-7.72
-11.98
-18.06
-25.09
-31.87
-37.17
-40.03
-39.90
-36.62
-30.44
-21.91
-11.89
-1.40
8.56
17.28
24.57
30.87
37.02
43.90
51.93
60.68
69.02
75.43
78.65
78.17
74.46
68.81
62.81
57.87
54.77
53.51
53.47
53.66
53.18
51.36
47.99
43.20
37.36
30.85
23.93
16.76
9.43
2.07
-5.14
-11.94
-18.17
-23.62
-28.08
-31.21
-32.66
-32.29
-30.31
-27.37
-24.25
-21.59
-19.51
-17.61
-15.32
-12.31
-8.86
-5.71
-3.69
-3.13
-3.67
-4.31
-3.87
-1.56
2.71
8.35
14.36
19.68
23.54
25.54
25.63
24.04
21.12
17.33
13.00
8.43
3.67
-1.36
-6.83
-12.83
-19.17
-25.28
-30.21
-32.85
-32.21
-27.88
-20.22
-10.43
-0.22
8.56
14.38
16.42
14.54
9.15
1.00
-9.06
-20.17
-31.42
-41.86
-50.52
-56.56
-59.49
-59.31
-56.56
-52.05
-46.68
-41.18
-35.86
-30.83
-25.95
-21.17
-16.63
-12.77
-10.25
-9.85
-12.22
-17.70
-26.10
-36.55
-47.60
-57.44
-64.27
-66.82
-64.60
-58.07
-48.39
-37.10
-25.69
-15.28
-6.52
0.33
5.24
8.28
9.61
9.48
8.31
6.65
5.10
4.23
4.45
5.87
8.32
11.32
14.30
16.72
18.28
18.92
18.76
17.93
16.40
14.00
10.41
5.39
-1.09
-8.69
-16.70
-24.11
-29.77
-32.69
-32.24
-28.38
-21.62
-12.84
-3.06
6.84
16.07
23.99
29.94
33.26
33.50
30.65
25.26
18.48
11.70
6.24
2.93
1.84
2.41
3.64
4.52
4.39
3.06
0.74
-2.21
-5.53
-9.26
-13.65
-18.96
-25.28
-32.38
-39.73
-46.68
-52.56
-56.69
-58.49
-57.38
-52.98
-45.22
-34.47
-21.60
-7.77
5.75
17.81
27.56
34.47
38.35
39.26
37.58
33.82
28.76
23.20
17.90
13.46
10.25
8.34
7.56
7.45
7.44
6.95
5.60
3.37
0.60
-2.24
-4.72
-6.76
-8.71
-11.20
-14.86
-20.14
-27.03
-35.05
-43.28
-50.46
-55.22
-56.27
-52.80
-44.69
-32.68
-18.22
-3.03
11.23
23.42
32.90
39.46
43.12
43.98
42.30
38.53
33.44
27.95
23.00
19.26
17.04
16.25
16.51
17.34
18.30
19.07
19.45
19.37
18.75
17.50
15.49
12.55
8.63
3.84
-1.44
-6.70
-11.46
-15.55
-19.17
-22.96
-27.69
-33.95
-41.76
-50.44
-58.61
-64.54
-66.63
-63.91
-56.35
-44.85
-30.92
-16.24
-2.15
10.50
21.28
30.04
36.64
40.83
42.51
41.79
39.19
35.56
31.88
28.94
27.13
26.41
26.41
26.73
27.03
27.26
27.47
27.73
27.97
27.83
26.88
24.70
21.15
16.42
11.03
5.62
0.68
-3.54
-7.16
-10.51
-14.07
-18.27
-23.44
-29.69
-36.78
-44.13
-50.77
-55.49
-57.07
-54.64
-47.91
-37.38
-24.21
-9.99
3.72
15.73
25.37
32.47
37.18
39.70
40.21
38.83
35.79
31.59
27.02
23.01
20.34
19.41
20.03
21.64
23.49
25.01
25.86
25.98
25.43
24.26
22.49
20.07
16.97
13.22
8.94
4.26
-0.63
-5.57
-10.38
-14.91
-19.12
-23.09
-27.00
-31.06
-35.50
-40.49
-46.10
-52.18
-58.19
-63.23
-66.09
-65.56
-60.86
-51.96
-39.71
-25.55
-11.08
2.35
13.88
23.10
29.85
34.04
35.57
34.57
31.43
26.94
22.10
17.92
15.09
13.89
14.13
15.28
16.72
17.94
18.67
18.88
18.72
18.32
17.67
16.51
14.56
11.63
7.83
3.57
-0.61
-4.31
-7.37
-10.02
-12.69
-15.79
-19.63
-24.36
-29.95
-36.21
-42.66
-48.48
-52.48
-53.42
-50.34
-43.01
-32.05
-18.84
-5.03
7.88
18.84
27.35
33.29
36.74
37.88
36.94
34.35
30.72
26.80
23.28
20.62
18.92
17.98
17.43
16.93
16.35
15.77
15.33
15.15
15.09
14.85
14.02
12.24
9.42
5.75
1.60
-2.64
-6.72
-10.62
-14.48
-18.61
-23.27
-28.62
-34.65
-40.96
-46.86
-51.29
-53.11
-51.35
-45.61
-36.23
-24.32
-11.40
1.05
11.92
20.64
27.00
31.01
32.71
32.20
29.77
25.97
21.62
17.63
14.63
12.86
12.13
11.99
12.03
12.06
12.09
12.20
12.42
12.54
12.30
11.36
9.55
6.87
3.47
-0.42
-4.58
-8.85
-13.19
-17.54
-21.95
-26.52
-31.34
-36.40
-41.40
-45.68
-48.24
-47.96
-43.99
-36.14
-25.02
-12.05
1.08
12.83
22.17
28.75
32.67
34.28
33.88
31.70
28.04
23.34
18.24
13.47
9.66
7.19
6.04
5.91
6.34
6.84
7.08
6.84
6.04
4.76
3.02
0.86
-1.76
-4.86
-8.47
-12.50
-16.84
-21.32
-25.83
-30.48
-35.44
-40.83
-46.52
-51.86
-55.76
-56.96
-54.52
-48.18
-38.57
-27.03
-15.23
-4.69
3.55
9.04
11.79
12.04
10.19
6.59
1.67
-4.04
-9.95
-15.44
-19.99
-23.33
-25.47
-26.64
-27.08
-26.92
-26.11
-24.54
-22.28
-19.67
-17.29
-15.69
-15.15
-15.55
-16.53
-17.75
-19.17
-20.96
-23.33
-26.03
-28.30
-28.91
-26.75
-21.25
-12.72
-2.20
8.97
19.63
29.10
37.12
43.70
48.78
52.05
53.13
51.77
48.04
42.50
36.06
29.76
24.50
20.75
18.47
17.17
16.15
14.80
12.83
10.29
7.46
4.59
1.68
-1.54
-5.48
-10.54
-16.87
-24.31
-32.37
-40.24
-46.93
-51.32
-52.40
-49.54
-42.65
-32.35
-19.82
-6.45
6.32
17.43
26.13
32.03
35.04
35.34
33.38
29.86
25.67
21.62
18.32
16.03
14.69
14.02
13.69
13.37
12.85
12.06
11.01
9.82
8.63
7.45
6.15
4.39
1.67
-2.42
-8.03
-14.89
-22.24
-28.96
-33.74
-35.41
-33.22
-27.09
-17.60
-5.90
6.57
18.43
28.61
36.40
41.53
43.91
43.64
40.94
36.21
30.13
23.53
17.31
12.17
8.53
6.40
5.48
5.40
5.79
6.39
7.00
7.37
7.10
5.78
3.00
-1.45
-7.58
-15.09
-23.39
-31.59
-38.50
-42.84
-43.52
-39.94
-32.28
-21.52
-9.07
3.55
15.19
25.19
33.21
39.08
42.63
43.69
42.29
38.90
34.41
29.88
26.24
23.91
22.79
22.38
22.12
21.60
20.70
19.47
17.99
16.24
14.03
11.04
6.85
1.11
-6.29
-15.04
-24.28
-32.63
-38.53
-40.71
-38.61
-32.53
-23.49
-12.86
-1.99
8.06
16.49
22.77
26.49
27.45
25.77
21.88
16.59
10.88
5.59
1.32
-1.70
-3.53
-4.45
-4.77
-4.80
-4.79
-5.05
-5.78
-7.19
-9.43
-12.66
-17.04
-22.63
-29.31
-36.50
-43.18
-47.93
-49.35
-46.53
-39.37
-28.66
-15.82
-2.46
10.04
20.75
29.12
34.88
37.84
37.97
35.51
31.04
25.51
20.07
15.73
13.08
12.04
12.04
12.26
12.04
11.10
9.61
7.93
6.33
4.79
2.97
0.31
-3.68
-9.21
-16.04
-23.39
-30.05
-34.60
-35.73
-32.74
-25.73
-15.64
-3.92
7.88
18.54
27.29
33.75
37.77
39.24
38.19
34.86
29.82
23.96
18.28
13.69
10.76
9.58
9.79
10.75
11.79
12.39
12.42
12.08
11.70
11.47
11.31
10.80
9.48
6.97
3.19
-1.69
-7.34
-13.33
-19.12
-24.01
-27.03
-27.22
-23.86
-16.90
-6.99
4.64
16.60
27.71
37.29
45.01
50.64
53.86
54.22
51.34
45.25
36.55
26.41
16.27
7.41
0.65
-3.79
-6.22
-7.20
-7.31
-6.99
-6.50
-6.07
-5.92
-6.30
-7.41
-9.27
-11.79
-14.84
-18.45
-22.89
-28.49
-35.31
-42.80
-49.67
-54.23
-54.87
-50.76
-42.15
-30.32
-17.05
-3.97
7.80
17.74
25.64
31.28
34.34
34.49
31.71
26.55
20.04
13.47
8.01
4.37
2.75
2.81
3.96
5.48
6.76
7.40
7.22
6.28
4.67
2.50
-0.22
-3.59
-7.70
-12.64
-18.44
-25.05
-32.20
-39.38
-45.64
-49.73
-50.37
-46.63
-38.35
-26.26
-11.84
3.14
17.03
28.61
37.19
42.58
44.91
44.57
42.14
38.26
33.65
28.94
24.70
21.31
19.03
17.95
17.98
18.83
20.05
21.13
21.56
20.99
19.30
16.57
13.03
8.98
4.75
0.51
-3.64
-7.81
-12.22
-17.23
-23.11
-29.98
-37.49
-44.74
-50.37
-52.87
-51.07
-44.58
-34.03
-20.81
-6.70
6.65
18.15
27.25
33.84
37.98
39.77
39.32
36.87
33.00
28.51
24.37
21.33
19.77
19.55
20.15
20.90
21.31
21.25
20.87
20.44
20.08
19.66
18.79
17.03
14.18
10.28
5.70
0.89
-3.69
-7.80
-11.40
-14.63
-17.82
-21.30
-25.47
-30.56
-36.58
-43.08
-49.21
-53.75
-55.41
-53.21
-46.73
-36.43
-23.44
-9.39
4.06
15.58
24.34
30.07
32.91
33.30
31.75
28.91
25.40
21.89
18.95
16.97
16.15
16.44
17.53
18.98
20.33
21.21
21.48
21.20
20.56
19.71
18.61
17.01
14.59
11.16
6.75
1.76
-3.30
-7.96
-11.98
-15.46
-18.73
-22.24
-26.40
-31.38
-37.06
-42.87
-47.88
-50.90
-50.88
-47.18
-39.86
-29.72
-18.05
-6.24
4.58
13.74
20.92
26.02
28.99
29.79
28.57
25.71
21.90
17.97
14.66
12.49
11.56
11.66
12.40
13.31
14.11
14.59
14.73
14.52
13.94
12.88
11.19
8.74
5.53
1.77
-2.16
-5.87
-9.07
-11.74
-14.22
-17.00
-20.59
-25.28
-30.91
-36.83
-41.97
-45.09
-45.11
-41.57
-34.62
-25.16
-14.41
-3.64
6.15
14.33
20.61
24.89
27.10
27.27
25.52
22.21
17.93
13.45
9.52
6.72
5.29
5.15
5.95
7.20
8.42
9.29
9.59
9.30
8.41
7.00
5.10
2.81
0.22
-2.58
-5.48
-8.43
-11.45
-14.72
-18.43
-22.79
-27.79
-33.14
-38.18
-41.95
-43.48
-41.99
-37.24
-29.56
-19.84
-9.28
0.91
9.79
16.77
21.63
24.34
25.01
23.84
21.15
17.45
13.33
9.45
6.29
4.13
2.95
2.58
2.68
2.94
3.02
2.70
1.89
0.65
-0.86
-2.47
-4.12
-5.86
-7.86
-10.29
-13.29
-16.87
-21.05
-25.79
-30.95
-36.16
-40.69
-43.55
-43.69
-40.39
-33.55
-23.85
-12.56
-1.14
9.15
17.53
23.69
27.67
29.62
29.71
28.16
25.31
21.65
17.84
14.54
12.20
10.97
10.66
10.74
10.65
9.91
8.33
6.09
3.55
1.11
-1.08
-3.10
-5.37
-8.31
-12.32
-17.45
-23.46
-29.79
-35.60
-39.92
-41.86
-40.79
-36.55
-29.56
-20.69
-11.08
-1.79
6.39
12.97
17.67
20.30
20.72
18.93
15.26
10.40
5.32
1.02
-1.85
-3.07
-3.00
-2.26
-1.41
-0.88
-0.69
-0.76
-0.90
-1.14
-1.57
-2.48
-4.21
-7.00
-10.99
-16.08
-21.97
-27.99
-33.27
-36.78
-37.61
-35.22
-29.60
-21.42
-11.74
-1.79
7.34
14.93
20.55
24.02
25.23
24.30
21.48
17.37
12.77
8.52
5.17
2.92
1.63
0.97
0.64
0.44
0.25
-0.08
-0.70
-1.76
-3.31
-5.35
-7.83
-10.82
-14.51
-19.05
-24.43
-30.18
-35.40
-38.92
-39.66
-36.99
-30.98
-22.38
-12.35
-2.15
7.23
15.19
21.45
25.92
28.48
29.01
27.44
24.00
19.28
14.25
9.90
6.96
5.69
5.76
6.51
7.20
7.39
6.95
6.06
4.99
3.84
2.51
0.69
-1.98
-5.81
-10.87
-16.98
-23.58
-29.80
-34.47
-36.43
-34.74
-29.05
-19.70
-7.75
5.35
18.15
29.49
38.68
45.46
49.77
51.68
51.35
49.08
45.47
41.49
38.22
36.62
37.15
39.60
43.18
46.99
50.33
53.05
55.40
57.69
59.84
61.24
60.88
57.85
51.71
42.84
32.13
20.62
9.13
-1.84
-11.78
-19.87
-24.78
-25.02
-19.55
-8.34
7.60
26.59
46.97
67.34
86.32
102.07
111.90
112.57
101.25
76.85
40.88
-2.53
-47.64
-88.63
-120.91
-141.77
-150.51
-147.99
-136.36
-118.68
-98.62
-79.90
-65.53
-57.27
-55.20
-57.90
-63.01
-68.05
-71.16
-71.47
-69.26
-65.52
-61.71
-59.29
-59.37
-62.40
-68.04
-75.17
-82.18
-87.36
-89.39
-87.70
-82.59
-75.00
-66.08
-56.74
-47.42
-38.05
-28.46
-18.65
-9.00
-0.12
7.40
13.30
17.64
20.73
22.89
24.37
25.33
25.84
26.02
25.97
25.75
25.37
24.81
24.08
23.21
22.26
21.19
19.96
18.53
16.97
15.51
14.43
13.88
13.76
13.62
12.85
10.84
7.23
1.92
-4.77
-12.24
-19.61
-25.76
-29.57
-30.17
-27.13
-20.66
-11.56
-0.95
10.01
20.31
29.27
36.50
41.76
44.95
46.05
45.15
42.51
38.60
34.10
29.77
26.37
24.44
24.21
25.52
27.99
31.12
34.48
37.76
40.70
43.00
44.29
44.17
42.32
38.71
33.61
27.58
21.31
15.37
10.10
5.49
1.27
-3.05
-7.97
-13.78
-20.32
-26.88
-32.22
-34.88
-33.72
-28.36
-19.43
-8.29
3.38
14.20
23.41
30.80
36.44
40.29
42.15
41.80
39.31
35.26
30.73
26.99
25.01
25.23
27.35
30.57
33.93
36.67
38.40
39.09
38.99
38.38
37.48
36.34
34.90
33.01
30.57
27.62
24.35
21.02
17.90
15.12
12.61
10.11
7.27
3.75
-0.72
-6.22
-12.64
-19.66
-26.64
-32.70
-36.78
-37.96
-35.72
-30.16
-21.91
-12.01
-1.61
8.30
16.88
23.59
28.01
29.99
29.59
27.28
23.78
19.98
16.74
14.61
13.78
14.16
15.45
17.29
19.34
21.29
22.83
23.80
24.07
23.70
22.76
21.32
19.39
16.88
13.74
9.97
5.75
1.35
-2.91
-6.79
-10.18
-13.12
-15.77
-18.36
-21.23
-24.70
-29.01
-34.12
-39.63
-44.71
-48.21
-48.99
-46.24
-39.79
-30.25
-18.88
-7.23
3.21
11.44
17.01
19.98
20.72
19.65
17.21
13.78
9.85
6.00
2.88
0.97
0.43
1.03
2.24
3.55
4.62
5.40
5.99
6.51
6.89
6.90
6.22
4.62
2.13
-0.94
-4.16
-7.06
-9.40
-11.22
-12.93
-14.99
-17.79
-21.32
-25.04
-27.99
-29.03
-27.29
-22.42
-14.76
-5.14
5.37
15.71
25.06
32.80
38.44
41.56
41.91
39.51
34.87
28.90
22.78
17.62
14.13
12.45
12.16
12.58
13.01
12.98
12.33
11.12
9.54
7.70
5.67
3.43
0.86
-2.08
-5.44
-9.13
-13.00
-16.89
-20.65
-24.26
-27.81
-31.55
-35.76
-40.58
-45.91
-51.26
-55.80
-58.53
-58.55
-55.24
-48.57
-39.06
-27.66
-15.57
-3.91
6.46
15.04
21.63
26.11
28.51
28.87
27.48
24.93
22.00
19.57
18.21
18.07
18.79
19.79
20.50
20.64
20.28
19.68
19.08
18.40
17.41
15.68
12.93
9.11
4.52
-0.36
-5.06
-9.20
-12.66
-15.47
-17.79
-19.85
-21.98
-24.59
-28.07
-32.55
-37.74
-42.78
-46.37
-47.10
-44.03
-37.00
-26.73
-14.54
-1.98
9.72
19.69
27.59
33.25
36.61
37.67
36.60
33.90
30.34
26.84
24.19
22.81
22.71
23.48
24.60
25.60
26.27
26.57
26.63
26.49
26.06
25.11
23.40
20.84
17.38
13.19
8.40
3.18
-2.29
-7.76
-12.96
-17.66
-21.82
-25.62
-29.32
-33.01
-36.32
-38.44
-38.23
-34.75
-27.67
-17.54
-5.74
5.96
15.99
23.37
27.86
29.72
29.41
27.32
23.75
19.08
13.91
9.03
5.22
2.94
2.10
2.21
2.62
2.81
2.49
1.55
-0.05
-2.45
-5.76
-9.95
-14.72
-19.55
-23.83
-27.20
-29.62
-31.49
-33.44
-36.19
-40.22
-45.65
-52.21
-59.15
-65.42
-69.85
-71.28
-68.96
-62.66
-52.86
-40.58
-27.32
-14.58
-3.57
4.97
10.93
14.61
16.55
17.29
17.15
16.30
14.75
12.60
10.12
7.73
5.90
4.98
4.97
5.64
6.51
7.11
7.08
6.24
4.65
2.40
-0.29
-3.23
-6.24
-9.22
-12.10
-14.93
-17.89
-21.16
-24.96
-29.40
-34.35
-39.38
-43.77
-46.60
-46.92
-44.01
-37.54
-27.70
-15.16
-1.12
13.02
25.85
36.39
44.25
49.84
54.18
58.44
63.50
69.57
76.10
82.10
86.43
88.24
87.11
83.12
76.93
69.96
64.39
62.83
67.49
79.03
95.53
112.47
123.82
124.09
110.23
82.76
45.49
3.92
-36.61
-72.24
-100.96
-122.14
-135.70
-141.60
-139.95
-131.30
-117.02
-99.26
-80.56
-63.17
-48.53
-37.03
-28.18
-21.16
-15.36
-10.71
-7.63
-6.66
-7.95
-11.01
-14.78
-17.93
-19.46
-19.03
-17.02
-14.29
-11.78
-10.05
-9.16
-8.75
-8.27
-7.38
-6.09
-4.83
-4.23
-4.90
-7.22
-11.22
-16.64
-23.01
-29.61
-35.55
-39.77
-41.20
-39.06
-33.15
-24.01
-12.82
-1.02
10.05
19.54
27.06
32.60
36.21
37.88
37.54
35.24
31.30
26.36
21.16
16.44
12.67
10.01
8.37
7.45
6.93
6.51
5.99
5.29
4.43
3.48
2.45
1.23
-0.42
-2.79
-6.10
-10.43
-15.57
-21.05
-26.11
-29.91
-31.58
-30.52
-26.50
-19.78
-11.11
-1.50
8.00
16.55
23.61
28.98
32.59
34.48
34.71
33.39
30.74
27.23
23.44
20.03
17.44
15.85
15.12
14.82
14.47
13.65
12.18
10.16
7.80
5.31
2.70
-0.26
-3.91
-8.53
-14.21
-20.73
-27.66
-34.40
-40.30
-44.70
-46.91
-46.42
-42.94
-36.65
-28.24
-18.76
-9.34
-0.94
5.89
10.97
14.27
15.82
15.64
13.83
10.66
6.72
2.81
-0.26
-1.99
-2.30
-1.56
-0.41
0.57
0.99
0.77
-0.01
-1.19
-2.75
-4.73
-7.27
-10.49
-14.41
-19.00
-24.13
-29.54
-34.82
-39.28
-42.02
-42.14
-39.08
-32.81
-23.97
-13.64
-3.03
6.86
15.39
22.25
27.27
30.37
31.49
30.74
28.48
25.32
21.90
18.78
16.23
14.29
12.84
11.73
10.90
10.29
9.81
9.30
8.59
7.46
5.74
3.31
0.11
-3.87
-8.52
-13.68
-19.19
-24.90
-30.73
-36.54
-41.97
-46.40
-48.92
-48.58
-44.80
-37.61
-27.78
-16.68
-5.83
3.52
10.62
15.29
17.77
18.39
17.41
15.02
11.44
7.14
2.82
-0.64
-2.52
-2.54
-0.94
1.49
3.81
5.26
5.51
4.71
3.26
1.58
-0.08
-1.71
-3.44
-5.46
-7.96
-11.08
-14.98
-19.68
-24.96
-30.26
-34.63
-36.95
-36.22
-31.93
-24.25
-14.03
-2.55
8.81
18.96
27.25
33.44
37.47
39.39
39.20
36.96
32.97
27.87
22.52
17.70
13.95
11.32
9.49
8.02
6.49
4.72
2.70
0.51
-1.76
-4.19
-6.90
-10.09
-13.90
-18.40
-23.52
-29.19
-35.26
-41.50
-47.46
-52.37
-55.24
-55.01
-51.00
-43.09
-31.96
-18.85
-5.23
7.54
18.46
26.96
32.85
36.13
37.00
35.82
33.08
29.35
25.26
21.40
18.23
16.01
14.80
14.37
14.35
14.29
13.80
12.69
10.92
8.59
5.85
2.78
-0.62
-4.47
-8.89
-14.02
-19.96
-26.63
-33.83
-41.05
-47.49
-52.08
-53.75
-51.62
-45.39
-35.51
-23.09
-9.60
3.48
15.08
24.61
31.90
36.94
39.71
40.19
38.45
34.92
30.41
25.93
22.37
20.19
19.33
19.36
19.80
20.30
20.74
21.13
21.38
21.23
20.34
18.38
15.17
10.79
5.57
0.01
-5.37
-10.19
-14.40
-18.25
-22.33
-27.28
-33.32
-40.12
-46.61
-51.29
-52.65
-49.66
-42.12
-30.70
-16.74
-1.80
12.62
25.42
35.98
44.01
49.51
52.54
53.21
51.77
48.73
44.78
40.87
37.87
36.41
36.59
38.03
40.07
42.08
43.66
44.69
45.24
45.32
44.73
43.22
40.66
37.17
33.13
28.98
24.80
20.18
14.31
6.37
-4.03
-16.54
-30.30
-44.14
-57.13
-68.64
-78.30
-85.63
-89.95
-90.36
-86.17
-77.27
-64.38
-48.87
-32.46
-16.71
-2.74
8.86
17.90
24.42
28.51
30.27
29.90
27.78
24.53
21.00
18.08
16.50
16.61
18.26
20.91
23.85
26.41
28.25
29.29
29.60
29.27
28.26
26.41
23.61
19.94
15.63
11.09
6.72
2.73
-0.92
-4.48
-8.31
-12.83
-18.30
-24.77
-31.88
-38.84
-44.46
-47.36
-46.42
-41.10
-31.75
-19.52
-6.09
6.83
17.87
26.24
31.73
34.55
35.13
34.00
31.67
28.61
25.34
22.34
20.01
18.66
18.37
19.00
20.25
21.73
23.10
24.06
24.36
23.79
22.20
19.47
15.64
10.92
5.64
0.20
-5.03
-9.90
-14.44
-18.96
-23.94
-29.76
-36.64
-44.29
-51.89
-58.19
-61.80
-61.56
-56.98
-48.32
-36.59
-23.24
-9.80
2.41
12.54
20.12
25.11
27.70
28.22
27.11
24.89
22.13
19.42
17.27
15.99
15.68
16.19
17.21
18.44
19.59
20.55
21.26
21.62
21.43
20.45
18.46
15.46
11.70
7.62
3.62
-0.03
-3.34
-6.58
-10.15
-14.41
-19.63
-25.77
-32.52
-39.12
-44.40
-47.01
-45.76
-40.09
-30.32
-17.70
-3.98
9.09
20.22
28.81
34.85
38.55
40.15
39.77
37.62
34.14
30.01
26.11
23.21
21.71
21.60
22.56
24.12
25.84
27.39
28.49
28.87
28.28
26.53
23.60
19.67
15.06
10.14
5.18
0.30
-4.52
-9.42
-14.59
-20.26
-26.57
-33.56
-40.86
-47.68
-52.77
-54.80
-52.70
-46.09
-35.56
-22.51
-8.72
4.17
15.06
23.54
29.67
33.74
35.98
36.47
35.21
32.31
28.11
23.23
18.49
14.69
12.31
11.42
11.61
12.25
12.70
12.50
11.51
9.79
7.54
4.86
1.81
-1.66
-5.52
-9.66
-13.92
-18.23
-22.70
-27.66
-33.41
-39.92
-46.53
-51.95
-54.59
-53.16
-47.18
-37.24
-24.85
-11.84
0.17
10.06
17.32
21.84
23.67
23.02
20.22
15.78
10.41
4.95
0.08
-3.73
-6.36
-7.95
-8.80
-9.24
-9.55
-9.89
-10.37
-11.05
-12.06
-13.57
-15.77
-18.76
-22.55
-26.93
-31.64
-36.42
-41.28
-46.44
-52.25
-58.86
-65.83
-72.03
-75.86
-75.57
-69.85
-58.15
-40.92
-19.48
4.16
27.75
49.22
67.08
80.71
90.25
96.40
100.06
101.97
102.74
102.84
102.76
103.01
104.09
106.57
111.18
118.61
129.09
141.74
154.09
162.34
162.32
150.98
127.43
93.30
52.01
7.59
-36.32
-77.03
-112.60
-141.60
-162.92
-175.97
-180.86
-178.60
-170.74
-158.97
-144.79
-129.18
-112.78
-96.02
-79.38
-63.44
-48.95
-36.72
-27.33
-21.16
-18.06
-17.52
-18.64
-20.32
-21.51
-21.35
-19.45
-15.88
-11.12
-5.84
-0.71
3.78
7.36
9.93
11.49
12.00
11.56
10.27
8.37
6.16
3.85
1.47
-1.23
-4.66
-9.19
-14.90
-21.43
-27.82
-32.80
-34.99
-33.44
-27.85
-18.75
-7.41
4.58
15.64
24.67
31.10
34.84
36.06
34.99
31.93
27.27
21.65
15.89
10.87
7.31
5.52
5.34
6.23
7.46
8.33
8.42
7.56
5.93
3.83
1.61
-0.52
-2.56
-4.74
-7.39
-10.83
-15.27
-20.75
-27.06
-33.70
-39.78
-44.16
-45.66
-43.43
-37.28
-27.77
-16.10
-3.69
8.24
18.82
27.49
33.86
37.65
38.66
36.99
33.16
28.10
22.89
18.57
15.75
14.61
14.90
16.12
17.71
19.17
20.05
19.99
18.76
16.22
12.48
7.85
2.85
-1.99
-6.31
-10.08
-13.65
-17.60
-22.58
-28.90
-36.23
-43.47
-48.92
-50.69
-47.43
-38.81
-25.69
-9.86
6.63
22.20
36.14
48.47
59.50
69.25
77.18
82.47
84.45
83.27
79.99
76.44
74.55
75.64
80.03
86.99
95.16
103.20
110.15
115.63
119.61
122.12
123.18
123.01
122.31
122.26
123.92
127.34
130.93
131.72
126.29
112.25
89.14
58.28
21.64
-19.37
-64.37
-113.06
-163.77
-212.27
-252.18
-276.84
-281.86
-266.96
-236.15
-196.22
-154.31
-115.90
-83.92
-59.00
-40.61
-27.91
-20.22
-16.81
-16.62
-18.08
-19.35
-18.89
-15.91
-10.73
-4.54
1.12
4.99
6.61
6.42
5.48
4.85
5.16
6.25
7.40
7.77
6.80
4.50
1.41
-1.82
-4.71
-7.20
-9.65
-12.59
-16.53
-21.65
-27.72
-33.96
-39.17
-42.03
-41.29
-36.33
-27.26
-15.01
-0.99
13.28
26.55
37.98
47.03
53.42
56.89
57.33
54.91
50.20
44.15
37.91
32.52
28.54
26.02
24.55
23.60
22.79
21.92
21.01
20.02
18.76
16.93
14.23
10.64
6.37
1.92
-2.30
-6.16
-9.86
-13.87
-18.64
-24.42
-31.10
-38.32
-45.50
-51.92
-56.73
-58.96
-57.68
-52.25
-42.69
-29.82
-15.15
-0.41
12.86
23.72
31.83
37.25
40.18
40.74
39.08
35.57
30.88
25.92
21.58
18.43
16.57
15.71
15.31
14.91
14.27
13.40
12.38
11.23
9.76
7.69
4.68
0.64
-4.26
-9.58
-14.84
-19.67
-24.04
-28.16
-32.47
-37.34
-43.01
-49.37
-56.02
-62.21
-66.89
-68.85
-67.03
-60.77
-50.17
-36.16
-20.30
-4.36
10.13
22.24
31.63
38.33
42.53
44.34
43.84
41.32
37.33
32.78
28.61
25.61
24.15
24.07
24.93
26.15
27.27
28.03
28.29
27.98
26.96
25.12
22.38
18.77
14.48
9.78
4.97
0.27
-4.16
-8.28
-12.17
-15.98
-20.02
-24.63
-30.07
-36.33
-42.94
-48.95
-53.08
-54.05
-50.95
-43.63
-32.78
-19.78
-6.24
6.34
16.93
25.11
30.81
34.21
35.41
34.58
31.96
28.06
23.64
19.58
16.62
15.18
15.21
16.33
17.98
19.62
20.94
21.79
22.13
21.91
20.95
18.99
15.86
11.61
6.53
1.18
-3.94
-8.48
-12.51
-16.40
-20.61
-25.45
-30.78
-35.95
-39.84
-41.17
-38.88
-32.54
-22.65
-10.47
2.31
14.10
23.80
31.00
35.81
38.55
39.48
38.75
36.41
32.64
27.89
22.80
18.13
14.55
12.45
11.94
12.74
14.35
16.14
17.57
18.21
17.94
16.86
15.17
13.15
10.95
8.59
5.94
2.74
-1.31
-6.50
-13.02
-20.71
-28.92
-36.50
-41.92
-43.78
-41.19
-34.26
-24.05
-12.27
-0.72
9.18
16.70
21.69
24.33
24.87
23.44
20.24
15.59
10.11
4.65
0.10
-2.89
-4.12
-3.84
-2.67
-1.32
-0.39
-0.19
-0.70
-1.80
-3.31
-5.20
-7.59
-10.65
-14.46
-18.96
-24.01
-29.43
-35.17
-41.05
-46.76
-51.51
-54.22
-53.65
-49.01
-40.29
-28.37
-14.82
-1.35
10.62
20.26
27.22
31.50
33.17
32.39
29.45
24.85
19.42
14.17
10.01
7.58
6.97
7.78
9.23
10.51
11.00
10.47
9.08
7.14
4.99
2.72
0.20
-2.82
-6.58
-11.22
-16.72
-23.00
-29.86
-37.01
-44.02
-50.19
-54.57
-56.21
-54.36
-48.80
-39.98
-29.02
-17.37
-6.46
2.70
9.66
14.44
17.34
18.65
18.59
17.33
15.12
12.45
9.99
8.41
8.18
9.37
11.66
14.48
17.28
19.71
21.59
22.94
23.70
23.73
22.81
20.80
17.77
13.97
9.79
5.47
0.99
-3.90
-9.48
-15.82
-22.45
-28.43
-32.58
-33.87
-31.78
-26.48
-18.66
-9.35
0.45
10.06
19.04
27.10
33.90
38.98
41.85
42.20
40.12
36.23
31.55
27.29
24.41
23.38
24.14
26.15
28.73
31.25
33.22
34.42
34.77
34.30
33.25
31.89
30.57
29.40
28.20
26.50
23.57
18.85
12.20
4.12
-4.25
-11.44
-15.93
-16.63
-13.19
-6.15
3.18
13.04
21.72
27.86
30.67
29.85
25.58
18.33
8.91
-1.67
-12.34
-22.26
-31.11
-39.16
-47.02
-55.23
-63.84
-72.34
-79.77
-85.18
-88.04
-88.43
-86.94
-84.43
-81.80
-79.81
-79.00
-79.73
-82.01
-85.45
-89.15
-91.75
-91.84
-88.32
-80.88
-70.15
-57.47
-44.44
-32.36
-22.06
-13.82
-7.74
-3.86
-2.30
-2.98
-5.42
-8.75
-11.79
-13.53
-13.44
-11.58
-8.58
-5.20
-2.12
0.38
2.33
4.05
5.87
7.97
10.25
12.25
13.25
12.45
9.34
4.02
-2.61
-8.88
-12.81
-12.67
-7.56
2.29
15.55
30.36
44.81
57.49
67.64
75.00
79.65
81.71
81.21
78.17
72.70
65.21
56.41
47.28
38.82
31.81
26.58
23.00
20.69
19.22
18.28
17.81
17.71
17.73
17.31
15.65
12.00
5.82
-2.86
-13.41
-24.61
-34.82
-42.31
-45.55
-43.65
-36.56
-25.13
-10.87
4.43
19.14
32.10
42.50
49.89
53.93
54.34
51.08
44.51
35.49
25.32
15.44
7.06
0.78
-3.49
-6.34
-8.60
-10.88
-13.48
-16.30
-19.12
-21.85
-24.68
-28.22
-33.19
-40.19
-49.34
-60.22
-71.91
-83.23
-92.96
-99.88
-102.92
-101.13
-93.78
-80.64
-62.25
-39.97
-15.90
7.66
28.73
46.04
59.15
68.21
73.54
75.45
74.20
70.09
63.69
55.90
47.92
41.00
36.19
34.05
34.56
37.11
40.64
43.93
45.89
45.76
43.22
38.44
31.86
24.14
15.92
7.67
-0.42
-8.50
-17.02
-26.45
-36.98
-48.20
-58.92
-67.44
-71.94
-71.08
-64.47
-52.83
-37.69
-20.96
-4.43
10.62
23.46
33.71
41.25
46.09
48.40
48.55
47.14
44.83
42.19
39.62
37.30
35.29
33.66
32.52
32.04
32.40
33.62
35.50
37.50
38.89
38.94
37.18
33.60
28.60
22.90
17.16
11.78
6.82
1.99
-3.17
-9.12
-16.19
-24.50
-33.70
-43.03
-51.21
-56.68
-58.06
-54.54
-46.24
-34.17
-19.90
-5.11
8.85
21.16
31.45
39.58
45.47
48.95
49.96
48.61
45.38
40.96
36.15
31.59
27.67
24.55
22.33
21.10
20.97
21.95
23.77
25.87
27.40
27.57
25.92
22.50
17.83
12.67
7.76
3.50
-0.11
-3.48
-7.21
-11.96
-18.20
-26.00
-34.87
-43.65
-50.69
-54.22
-52.87
-46.11
-34.50
-19.57
-3.29
12.42
26.10
37.02
44.95
50.09
52.74
53.22
51.87
49.09
45.30
40.98
36.53
32.28
28.50
25.34
22.92
21.25
20.19
19.37
18.28
16.30
13.08
8.51
2.97
-2.94
-8.55
-13.43
-17.49
-20.99
-24.41
-28.23
-32.86
-38.48
-44.96
-51.79
-58.04
-62.46
-63.72
-60.90
-53.76
-42.92
-29.70
-15.73
-2.46
9.08
18.36
25.26
29.76
31.91
31.70
29.23
24.88
19.33
13.47
8.22
4.31
2.02
1.25
1.48
2.04
2.33
1.96
0.84
-0.89
-2.95
-5.03
-6.92
-8.59
-10.28
-12.42
-15.62
-20.32
-26.61
-34.01
-41.45
-47.47
-50.68
-50.05
-45.32
-37.06
-26.41
-14.80
-3.53
6.45
14.65
20.85
25.03
27.19
27.30
25.48
22.04
17.59
12.94
8.92
6.09
4.64
4.31
4.60
4.99
5.19
5.08
4.71
4.08
3.09
1.50
-0.99
-4.61
-9.45
-15.53
-22.76
