1706537440.00
64.000000
-0.00
-0.00
-0.00
-0.00
-0.00
-0.00
-0.00
-0.00
-0.00
-0.00
0.00
0.01
0.01
-0.00
-0.03
-0.05
-0.05
0.00
0.13
0.36
0.66
1.01
1.37
1.72
2.06
2.40
2.79
3.24
3.80
4.42
5.06
5.66
6.20
6.68
7.15
7.68
8.31
9.14
10.09
11.04
11.88
12.56
13.14
13.76
14.65
15.96
17.91
20.32
22.90
25.38
27.58
29.57
31.68
34.32
37.81
42.54
48.15
54.10
59.83
64.97
69.58
74.14
79.34
85.71
93.76
103.00
112.62
121.73
129.77
136.75
143.30
150.75
157.77
166.64
177.95
191.79
206.97
220.57
228.25
225.36
208.53
176.87
132.76
80.05
23.07
-34.94
-92.44
-149.16
-205.23
-260.37
-313.74
-363.87
-409.83
-450.91
-486.50
-515.74
-537.23
-549.22
-549.96
-538.37
-514.21
-478.67
-433.88
-382.45
-327.02
-269.84
-212.63
-156.66
-102.95
-52.37
-5.90
35.58
71.43
101.35
125.50
144.38
158.69
169.15
176.37
180.75
182.57
182.07
179.51
175.23
169.65
163.18
156.15
148.81
141.30
133.69
126.02
118.33
110.69
103.16
95.80
88.68
81.83
75.25
68.95
62.95
57.25
51.86
46.78
42.03
37.59
33.45
29.61
26.07
22.81
19.83
17.11
14.67
12.48
10.54
8.83
7.35
6.07
4.97
4.05
3.27
2.62
2.09
1.65
1.30
1.01
0.79
0.61
0.47
0.37
0.29
0.23
0.19
0.16
0.14
0.14
0.15
0.16
0.18
0.21
0.24
0.28
0.32
0.36
0.40
0.45
0.50
0.55
0.60
0.66
0.71
0.77
0.83
0.91
0.98
1.07
1.16
1.27
1.39
1.52
1.67
1.83
2.02
2.23
2.46
2.72
3.00
3.31
3.65
4.03
4.43
4.88
5.36
5.88
6.43
7.03
7.67
8.35
9.08
9.86
10.68
11.55
12.46
13.41
14.42
15.50
16.64
17.84
19.09
20.38
21.66
22.87
23.92
24.71
25.10
24.98
24.26
22.84
20.69
17.83
14.31
10.21
5.69
0.94
-3.82
-8.36
-12.44
-15.90
-18.59
-20.50
-21.64
-22.07
-21.92
-21.31
-20.30
-19.00
-17.46
-15.76
-14.01
-12.28
-10.65
-9.22
-7.98
-6.88
-5.80
-4.62
-3.33
-1.96
-0.63
0.60
1.51
2.09
2.52
3.02
3.82
4.96
6.31
7.62
8.68
9.04
8.67
7.86
7.09
6.79
7.11
7.87
8.65
9.09
8.46
6.68
4.14
1.46
-0.78
-2.34
-3.36
-4.26
-5.51
-8.42
-14.07
-23.06
-35.27
-49.48
-63.62
-75.47
-83.86
-84.23
-76.57
-63.34
-48.13
-34.19
-23.24
-15.36
-9.55
-4.68
-0.00
3.97
6.92
9.01
10.87
13.22
16.43
20.33
24.32
27.68
29.43
29.26
27.55
25.04
22.49
20.30
18.42
16.53
14.36
11.60
8.41
5.27
2.57
0.44
-1.37
-3.23
-5.42
-7.96
-10.80
-13.82
-16.88
-20.06
-23.49
-27.37
-31.80
-36.70
-41.75
-46.32
-49.59
-50.52
-48.36
-42.80
-34.20
-23.53
-12.09
-1.15
8.39
16.03
21.76
25.72
28.16
29.29
29.30
28.43
26.97
25.33
23.82
22.73
22.15
22.07
22.46
23.26
24.38
25.69
26.95
27.86
28.21
27.91
27.07
25.88
24.51
23.04
21.42
19.55
17.33
14.78
11.95
8.94
5.85
2.78
-0.19
-2.96
-5.48
-7.76
-9.88
-11.99
-14.21
-16.63
-19.35
-22.45
-26.06
-30.30
-35.09
-40.01
-44.20
-46.58
-46.13
-42.36
-35.43
-26.19
-15.80
-5.43
4.04
12.09
18.49
23.19
26.25
27.82
28.13
27.42
25.93
23.85
21.31
18.54
15.88
13.80
12.74
13.00
14.49
16.83
19.39
21.55
22.95
23.52
23.49
23.14
22.64
21.91
20.69
18.72
15.94
12.57
8.97
5.55
2.48
-0.28
-2.98
-5.85
-8.96
-12.25
-15.51
-18.56
-21.31
-23.76
-25.99
-28.15
-30.43
-33.11
-36.49
-40.80
-46.02
-51.60
-56.53
-59.46
-59.10
-54.77
-46.61
-35.73
-23.76
-12.37
-2.76
4.65
10.05
14.07
17.23
19.80
21.71
22.74
22.80
22.07
20.95
19.92
19.31
19.19
19.46
19.92
20.45
21.04
21.83
22.90
24.22
25.60
26.70
27.19
26.80
25.45
23.31
20.66
17.87
15.28
13.04
11.12
9.34
7.41
5.09
2.26
-1.07
-4.70
-8.38
-11.82
-14.85
-17.40
-19.56
-21.48
-23.37
-25.43
-27.88
-30.98
-34.96
-39.97
-45.83
-51.88
-56.97
-59.79
-59.19
-54.67
-46.57
-35.95
-24.20
-12.64
-2.22
6.60
13.66
18.97
22.59
24.63
25.33
25.03
24.15
23.11
22.17
21.44
20.89
20.49
20.29
20.52
21.43
23.21
25.78
28.77
31.58
33.62
34.46
34.04
32.60
30.58
28.41
26.34
24.44
22.56
20.52
18.17
15.50
12.62
9.75
7.05
4.59
2.36
0.25
-1.79
-3.77
-5.68
-7.53
-9.42
-11.46
-13.79
-16.46
-19.44
-22.59
-25.77
-28.93
-32.14
-35.62
-39.63
-44.35
-49.69
-55.14
-59.82
-62.64
-62.59
-59.11
-52.22
-42.56
-31.21
-19.31
-7.95
2.08
10.30
16.52
20.79
23.40
24.72
25.10
24.91
24.38
23.74
23.17
22.84
22.89
23.38
24.30
25.61
27.27
29.17
31.12
32.85
34.05
34.47
34.11
33.16
31.88
30.56
29.25
27.87
26.19
24.04
21.38
18.29
14.98
11.63
8.45
5.51
2.81
0.23
-2.42
-5.30
-8.47
-11.82
-15.10
-18.02
-20.35
-22.12
-23.56
-25.04
-26.90
-29.23
-31.87
-34.48
-36.73
-38.44
-39.61
-40.26
-40.21
-38.92
-35.54
-29.21
-19.41
-6.29
9.18
25.35
40.22
51.94
59.31
62.21
61.77
60.21
60.34
64.61
74.25
88.44
104.08
116.10
118.77
107.33
80.02
39.35
-7.98
-52.78
-86.28
-102.97
-102.21
-87.79
-66.00
-43.00
-23.05
-8.03
1.69
6.20
5.48
-0.42
-10.71
-23.56
-36.36
-46.60
-52.83
-55.06
-54.64
-53.42
-53.02
-54.14
-56.43
-58.85
-60.29
-60.24
-58.94
-57.41
-56.83
-58.12
-61.46
-66.40
-72.03
-77.34
-81.49
-83.77
-83.68
-80.84
-75.18
-66.94
-56.70
-45.30
-33.60
-22.30
-11.92
-2.80
4.78
10.64
14.76
17.32
18.74
19.51
19.98
20.35
20.50
20.24
19.37
17.87
15.94
14.01
12.73
12.76
14.66
18.62
24.23
30.47
35.94
39.37
40.10
38.40
35.23
31.83
29.12
27.40
26.32
25.29
23.82
21.72
19.11
16.15
12.94
9.41
5.58
1.57
-2.27
-5.57
-8.13
-10.05
-11.82
-14.09
-17.56
-22.81
-30.16
-39.64
-50.89
-63.12
-75.17
-85.60
-93.07
-96.61
-95.90
-91.32
-83.68
-73.94
-62.79
-50.49
-36.90
-21.61
-4.22
15.45
37.28
60.86
85.61
110.77
135.53
159.05
180.52
199.32
215.19
228.23
238.95
248.04
256.12
263.57
270.48
276.78
282.32
286.97
290.57
292.85
293.36
291.53
286.78
278.63
266.71
250.72
230.38
205.56
176.58
144.65
112.03
81.77
56.94
39.59
30.09
26.92
27.20
27.61
25.23
18.07
5.09
-14.03
-39.06
-69.29
-103.31
-138.89
-173.20
-203.24
-226.56
-242.03
-250.32
-253.75
-255.75
-259.56
-266.98
-277.55
-288.60
-296.06
-296.11
-286.54
-267.49
-241.17
-210.82
-179.59
-149.71
-122.45
-98.41
-78.11
-62.14
-50.91
-44.27
-41.25
-40.11
-38.80
-35.61
-29.67
-21.08
-10.66
0.54
11.72
22.50
32.87
42.81
51.93
59.36
63.91
64.58
61.07
54.02
44.88
35.36
26.83
19.84
14.09
8.71
2.84
-4.04
-11.74
-19.54
-26.34
-31.06
-32.85
-31.35
-26.97
-21.02
-15.74
-13.92
-18.17
-30.01
-49.10
-73.06
-97.99
-119.69
-134.86
-141.88
-140.85
-132.92
-119.51
-101.83
-81.02
-58.43
-35.92
-15.59
0.83
12.69
20.66
26.30
31.24
36.39
41.64
46.09
48.73
49.02
47.06
43.43
38.76
33.46
27.68
21.49
15.01
8.57
2.59
-2.57
-6.68
-9.72
-11.77
-12.98
-13.59
-13.92
-14.37
-15.28
-16.91
-19.26
-22.24
-25.74
-29.80
-34.50
-39.83
-45.27
-49.79
-51.95
-50.45
-44.71
-35.11
-22.95
-9.92
2.47
13.33
22.42
29.89
36.02
40.97
44.79
47.49
49.19
50.14
50.62
50.87
51.10
51.47
52.20
53.55
55.76
58.96
63.12
68.05
73.36
78.63
83.52
87.84
91.69
95.28
98.84
102.45
106.01
109.38
112.53
115.68
119.28
123.81
129.52
136.28
143.65
151.11
158.22
164.78
170.74
175.95
180.06
182.36
182.04
178.31
170.70
159.12
143.89
125.55
104.79
82.46
59.70
38.07
19.48
5.78
-1.92
-3.71
-1.09
3.48
7.48
9.04
7.41
2.72
-4.51
-13.72
-24.39
-35.82
-47.09
-57.19
-65.63
-72.71
-79.49
-87.05
-95.79
-104.85
-112.47
-116.84
-116.88
-112.86
-106.15
-98.72
-92.49
-88.95
-88.94
-92.68
-99.73
-109.11
-119.63
-130.32
-140.86
-151.71
-163.75
-177.58
-192.74
-207.37
-218.59
-223.45
-219.97
-207.84
-188.28
-163.44
-135.44
-105.75
-75.11
-43.95
-13.04
16.29
42.26
63.36
78.86
89.24
95.86
100.35
103.93
107.00
109.26
110.11
109.19
106.66
103.15
99.39
95.79
92.30
88.47
83.86
78.26
71.87
65.08
58.35
51.87
45.61
39.33
32.78
25.81
18.43
10.86
3.41
-3.56
-9.78
-15.14
-19.81
-24.20
-28.75
-33.76
-39.16
-44.58
-49.44
-53.31
-56.13
-58.26
-60.34
-62.95
-66.42
-70.54
-74.67
-77.81
-79.01
-77.54
-73.11
-66.02
-56.98
-46.93
-36.84
-27.55
-19.70
-13.76
-9.99
-8.28
-8.21
-9.11
-10.27
-11.21
-11.81
-12.23
-12.64
-13.02
-13.07
-12.45
-11.01
-9.01
-7.01
-5.61
-5.16
-5.60
-6.53
-7.50
-8.29
-9.00
-10.09
-12.03
-15.11
-19.21
-23.87
-28.47
-32.53
-35.89
-38.74
-41.47
-44.42
-47.77
-51.45
-55.28
-58.97
-62.18
-64.52
-65.51
-64.66
-61.53
-55.88
-47.68
-37.21
-24.96
-11.68
1.74
14.39
25.43
34.36
41.04
45.78
49.18
51.87
54.43
57.23
60.44
64.05
67.93
71.91
75.83
79.66
83.49
87.46
91.66
96.06
100.46
104.64
108.42
111.89
115.32
119.06
123.31
128.01
132.81
137.21
140.79
143.38
145.21
146.95
149.65
154.41
161.93
172.05
183.45
193.76
200.15
200.22
192.66
177.66
156.61
131.42
103.85
75.06
45.83
16.79
-11.12
-36.64
-58.51
-75.95
-88.92
-98.16
-104.75
-109.66
-113.33
-115.66
-116.27
-114.85
-111.52
-106.75
-101.23
-95.63
-90.37
-85.70
-81.64
-78.06
-74.71
-71.34
-67.73
-63.84
-59.82
-55.94
-52.48
-49.52
-46.93
-44.41
-41.76
-38.98
-36.33
-34.23
-32.98
-32.76
-33.42
-34.64
-36.00
-37.17
-37.97
-38.49
-39.09
-40.19
-42.12
-44.83
-47.91
-50.68
-52.50
-53.09
-52.69
-52.05
-52.10
-53.70
-57.34
-62.97
-69.84
-76.57
-81.23
-81.70
-76.21
-63.90
-45.23
-21.86
3.84
29.46
53.18
73.93
91.24
104.87
114.61
120.22
121.77
119.72
114.95
108.51
101.12
93.01
83.84
73.03
60.23
45.64
30.13
14.95
1.30
-10.15
-19.40
-27.15
-34.35
-41.92
-50.43
-59.79
-69.11
-76.69
-80.28
-77.73
-67.90
-51.32
-30.27
-8.11
11.69
26.53
35.00
36.73
32.06
21.64
6.44
-12.09
-32.08
-51.53
-68.76
-82.75
-93.10
-99.77
-102.90
-102.98
-101.22
-99.55
-100.22
-104.68
-112.81
-122.69
-131.43
-136.60
-137.39
-134.96
-131.55
-129.11
-128.39
-128.86
-129.53
-129.85
-130.07
-130.76
-132.12
-133.37
-133.04
-129.67
-122.72
-112.73
-101.20
-89.86
-80.01
-72.15
-66.08
-61.16
-56.55
-51.52
-45.50
-38.20
-29.60
-19.90
-9.44
1.38
12.07
22.09
30.87
37.96
43.05
46.10
47.28
46.89
45.20
42.47
38.98
35.08
31.19
27.86
25.68
25.20
26.76
30.39
35.68
41.90
48.09
53.36
57.09
59.01
59.25
58.13
55.96
53.04
49.56
45.74
41.82
38.09
34.75
31.87
29.32
26.89
24.34
21.55
18.63
15.85
13.47
11.68
10.39
9.37
8.28
6.91
5.23
3.40
1.60
-0.03
-1.51
-2.92
-4.38
-5.94
-7.66
-9.55
-11.63
-13.91
-16.41
-19.28
-22.70
-26.88
-31.78
-36.95
-41.39
-43.85
-43.28
-39.20
-31.97
-22.64
-12.47
-2.49
6.68
14.86
21.99
28.04
32.93
36.60
39.17
40.84
41.87
42.45
42.65
42.50
42.05
41.51
41.14
41.22
41.95
43.38
45.32
47.48
49.49
50.98
51.75
51.70
50.93
49.61
47.94
46.08
44.06
41.79
39.15
35.95
32.13
27.68
22.75
17.49
12.05
6.60
1.16
-4.27
-9.89
-15.99
-22.93
-30.81
-39.31
-47.59
-54.35
-58.32
-58.66
-55.29
-48.82
-40.30
-30.76
-21.03
-11.69
-3.13
4.26
10.13
14.27
16.76
17.93
18.35
18.61
19.20
20.45
22.48
25.25
28.62
32.31
36.00
39.30
41.83
43.25
43.32
41.99
39.43
36.06
32.37
28.89
25.97
23.65
21.72
19.78
17.40
14.34
10.58
6.32
1.90
-2.40
-6.43
-10.13
-13.57
-16.80
-19.96
-23.29
-27.12
-31.77
-37.27
-43.09
-48.19
-51.15
-50.73
-46.37
-38.39
-27.97
-16.69
-6.02
3.05
10.18
15.53
19.48
22.37
24.49
25.96
26.91
27.45
27.75
27.93
28.16
28.58
29.33
30.57
32.37
34.82
37.88
41.49
45.48
49.58
53.46
56.67
58.95
60.16
60.46
60.16
59.63
59.11
58.73
58.45
58.26
58.24
58.56
59.42
60.98
63.25
66.06
69.07
71.85
74.05
75.72
77.40
80.31
85.99
95.85
110.56
129.81
152.38
176.54
200.54
222.92
242.69
259.21
272.17
281.54
287.43
289.75
287.85
280.44
265.78
242.38
209.80
169.18
123.37
76.28
31.95
-6.41
-37.09
-59.93
-75.86
-86.31
-92.63
-95.88
-96.90
-96.57
-95.86
-95.81
-97.11
-99.85
-103.35
-106.41
-107.93
-107.33
-104.87
-101.54
-98.61
-97.08
-97.35
-98.99
-101.08
-102.69
-103.32
-103.29
-103.55
-105.19
-108.93
-114.78
-122.04
-129.52
-136.05
-140.77
-143.37
-144.05
-143.30
-141.55
-138.96
-135.32
-130.23
-123.46
-115.28
-106.55
-98.46
-92.11
-88.11
-86.43
-86.43
-86.82
-85.61
-80.25
-68.35
-48.94
-23.71
2.70
23.83
33.83
29.93
13.71
-9.48
-32.93
-51.08
-61.21
-63.34
-59.08
-50.09
-37.51
-22.26
-5.78
9.60
21.03
26.10
23.82
15.09
2.40
-11.13
-22.85
-31.32
-36.54
-39.67
-42.36
-46.01
-51.33
-58.07
-65.15
-71.06
-74.29
-73.78
-69.18
-60.81
-49.51
-36.29
-22.08
-7.62
6.52
19.86
31.90
42.04
49.85
55.05
57.83
58.74
58.63
58.44
58.96
60.61
63.47
67.36
72.03
77.36
83.34
89.90
96.77
103.28
108.38
110.97
110.25
106.13
99.24
90.76
81.97
73.69
66.00
58.15
48.68
35.85
18.12
-5.15
-33.13
-63.19
-91.43
-113.72
-127.13
-131.16
-128.00
-121.81
-117.31
-118.11
-125.67
-138.89
-154.53
-168.20
-175.61
-173.60
-161.22
-140.07
-113.93
-87.73
-65.87
-50.93
-42.98
-40.05
-39.30
-38.31
-35.78
-31.36
-25.17
-17.12
-6.93
5.55
19.69
34.11
46.96
56.71
62.83
65.95
67.37
68.43
69.95
71.94
73.86
74.97
74.71
72.96
70.04
66.64
63.54
61.27
59.88
58.90
57.58
55.18
51.33
46.09
39.92
33.39
27.14
21.65
17.24
13.93
11.38
8.93
5.90
1.90
-2.94
-7.95
-12.39
-15.82
-18.48
-21.19
-24.94
-30.42
-37.66
-45.94
-54.10
-60.88
-65.17
-66.18
-63.40
-56.64
-46.01
-32.07
-15.83
1.28
17.65
31.88
42.94
50.48
54.60
55.69
54.21
50.67
45.71
40.26
35.46
32.44
31.84
33.62
37.05
41.00
44.45
46.80
47.94
48.14
47.79
47.24
46.74
46.47
46.50
46.82
47.26
47.48
47.02
45.33
42.00
36.86
30.11
22.44
14.89
8.65
4.57
2.97
3.41
5.00
6.74
7.93
8.31
7.96
7.11
5.89
4.40
2.64
0.74
-1.11
-2.80
-4.33
-5.85
-7.45
-9.10
-10.47
-11.11
-10.68
-9.13
-6.76
-4.13
-1.74
0.15
1.62
2.99
4.55
6.37
8.20
9.65
10.41
10.45
10.00
9.47
9.26
9.50
10.14
10.94
11.70
12.26
12.62
12.87
13.11
13.42
13.77
14.11
14.22
13.95
13.19
11.97
10.55
9.23
8.27
7.77
7.60
7.41
6.94
5.99
4.66
3.19
1.83
0.71
-0.20
-1.10
-2.20
-3.59
-5.25
-7.07
-8.96
-10.86
-12.70
-14.43
-15.89
-16.92
-17.34
-17.10
-16.25
-14.87
-13.14
-11.20
-9.21
-7.28
-5.48
-3.78
-2.21
-0.75
0.48
1.34
1.74
1.62
1.07
0.19
-0.83
-1.88
-2.77
-3.28
-3.14
-2.24
-0.61
1.41
3.30
4.52
4.71
3.86
2.26
0.43
-1.17
-2.27
-2.90
-3.40
-4.15
-5.44
-7.35
-9.78
-12.53
-15.44
-18.39
-21.26
-23.88
-26.05
-27.63
-28.63
-29.20
-29.54
-29.76
-29.82
-29.50
-28.66
-27.17
-25.05
-22.32
-18.95
-14.92
-10.25
-5.20
-0.19
4.24
7.69
10.01
11.37
12.15
12.78
13.48
14.32
15.20
15.94
16.46
16.76
16.86
16.81
16.58
16.17
15.67
15.30
15.31
15.86
16.87
18.12
19.30
20.09
20.36
20.05
19.24
18.05
16.62
15.13
13.71
12.47
11.38
10.31
9.12
7.70
6.02
4.15
2.17
0.15
-1.89
-3.91
-5.91
-7.88
-9.83
-11.81
-13.85
-15.94
-17.94
-19.59
-20.58
-20.67
-19.76
-17.98
-15.57
-12.81
-9.89
-6.88
-3.81
-0.75
2.11
4.55
6.40
7.65
8.52
9.23
9.97
10.69
11.25
11.49
11.45
11.37
11.51
12.06
12.89
13.72
14.19
14.19
13.84
13.42
13.20
13.24
13.38
13.32
12.84
11.86
10.54
9.10
7.70
6.42
5.20
4.02
2.85
1.79
0.89
0.13
-0.62
-1.57
-2.81
-4.36
-6.01
-7.50
-8.62
-9.27
-9.51
-9.40
-8.91
-7.87
-6.06
-3.39
0.07
4.04
8.15
12.16
15.91
19.37
22.46
24.94
26.48
26.82
25.89
23.99
21.69
19.66
18.44
18.20
18.71
19.41
19.68
19.02
17.24
14.46
11.08
7.54
4.24
1.24
-1.64
-4.78
-8.54
-13.06
-18.13
-23.23
-27.76
-31.23
-33.48
-34.67
-35.13
-35.22
-35.12
-34.86
-34.32
-33.45
-32.22
-30.73
-29.15
-27.67
-26.45
-25.57
-24.96
-24.51
-24.02
-23.30
-22.24
-20.75
-18.78
-16.21
-12.86
-8.61
-3.48
2.22
7.96
13.15
17.40
20.63
23.05
24.88
26.17
26.80
26.50
25.20
23.02
20.35
17.54
14.81
12.18
9.56
6.92
4.27
1.56
-1.37
-4.84
-9.10
-14.08
-19.33
-24.09
-27.69
-29.87
-30.95
-31.67
-32.88
-35.25
-38.98
-43.79
-49.11
-54.21
-58.47
-61.54
-63.45
-64.67
-65.93
-67.95
-70.99
-74.49
-77.17
-77.40
-73.94
-66.52
-56.00
-44.08
-32.73
-23.43
-16.84
-12.81
-10.66
-9.62
-9.16
-9.06
-9.32
-9.92
-10.72
-11.33
-11.25
-10.00
-7.35
-3.40
1.39
6.46
11.33
15.74
19.77
23.63
27.62
31.94
36.71
41.90
47.29
52.66
57.66
62.09
65.84
69.07
71.97
74.74
77.39
79.74
81.46
82.18
81.70
79.91
76.96
73.41
70.41
69.70
73.29
82.63
97.80
117.12
137.34
154.61
165.64
168.57
163.17
150.53
132.46
110.88
87.75
64.90
44.00
26.37
12.65
2.67
-4.53
-10.28
-15.86
-22.07
-29.07
-36.49
-43.66
-49.96
-54.99
-58.67
-61.04
-62.12
-61.86
-60.10
-56.92
-52.73
-48.28
-44.46
-41.88
-40.67
-40.47
-40.55
-40.20
-39.03
-37.01
-34.41
-31.66
-29.17
-27.18
-25.76
-24.89
-24.45
-24.33
-24.40
-24.59
-24.84
-25.08
-25.18
-24.97
-24.25
-22.84
-20.76
-18.21
-15.58
-13.32
-11.80
-11.12
-11.05
-11.07
-10.47
-8.73
-5.62
-1.50
2.94
6.85
9.66
11.30
12.30
13.48
15.49
18.60
22.54
26.76
30.71
34.12
36.97
39.38
41.45
43.35
45.47
48.59
53.79
62.04
73.53
87.37
101.64
114.04
122.88
127.80
129.90
131.08
133.22
137.41
143.71
151.55
160.21
169.16
178.04
186.43
193.52
198.07
198.68
194.04
183.37
166.46
143.62
115.53
82.99
46.74
7.48
-34.12
-77.24
-120.77
-163.20
-202.76
-237.67
-266.49
-288.30
-302.86
-310.51
-312.10
-308.83
-301.88
-292.21
-280.19
-265.55
-247.63
-225.92
-200.59
-172.79
-144.53
-118.18
-96.01
-79.52
-69.19
-64.34
-63.32
-63.97
-64.45
-64.14
-64.32
-68.10
-79.64
-102.61
-138.47
-185.41
-238.47
-290.78
-335.65
-368.39
-387.22
-392.99
-388.13
-375.40
-357.16
-335.36
-311.93
-289.01
-268.72
-252.37
-239.89
-229.69
-219.36
-206.73
-190.82
-172.07
-151.83
-131.32
-110.98
-89.98
-66.85
-40.43
-10.68
20.93
51.77
78.61
98.23
108.07
106.80
94.82
74.68
50.69
27.92
10.62
0.86
-1.95
-0.43
2.33
4.16
4.44
3.73
2.83
2.01
0.97
-0.71
-2.96
-5.12
-6.27
-5.87
-3.97
-1.48
0.52
1.21
0.49
-1.02
-2.36
-2.69
-1.72
0.32
2.88
5.48
7.88
10.13
12.29
14.35
16.11
17.41
18.29
19.06
20.28
22.55
26.38
32.02
39.40
48.12
57.44
66.47
74.42
80.97
86.50
92.03
98.82
107.80
119.04
131.88
145.28
158.43
171.23
184.23
198.36
214.52
233.41
255.39
280.34
307.16
333.56
356.08
370.96
375.43
368.74
352.62
330.42
305.80
281.47
258.67
237.49
217.74
199.47
182.99
168.55
155.89
144.28
132.82
120.96
108.71
96.55
85.20
75.20
66.67
59.33
52.62
45.89
38.69
30.97
23.11
15.81
9.81
5.57
3.08
1.87
1.22
0.41
-0.93
-2.79
-4.80
-6.46
-7.37
-7.41
-6.74
-5.77
-5.00
-4.77
-5.18
-6.07
-7.11
-7.96
-8.43
-8.50
-8.30
-8.06
-8.02
-8.39
-9.20
-10.33
-11.43
-12.02
-11.66
-10.14
-7.63
-4.62
-1.81
0.14
0.82
0.08
-1.89
-4.71
-7.83
-10.66
-12.73
-13.82
-14.05
-13.85
-13.78
-14.33
-15.63
-17.47
-19.35
-20.74
-21.25
-20.85
-19.84
-18.77
-18.21
-18.50
-19.65
-21.34
-23.00
-24.03
-24.05
-22.90
-20.68
-17.66
-14.20
-10.68
-7.51
-5.04
-3.50
-2.87
-2.86
-2.98
-2.71
-1.76
-0.17
1.70
3.29
4.04
3.65
2.12
-0.13
-2.45
-4.10
-4.56
-3.65
-1.69
0.73
2.92
4.42
5.16
5.36
5.39
5.55
5.91
6.38
6.77
7.00
7.09
7.18
7.45
7.98
8.69
9.37
9.75
9.66
9.04
8.04
6.89
5.85
5.06
4.57
4.28
4.13
4.13
4.45
5.43
7.45
10.77
15.33
20.65
25.88
30.04
32.43
32.89
31.95
30.55
29.62
29.57
30.08
30.36
29.64
27.84
25.69
24.50
25.37
28.51
32.96
36.91
38.46
36.18
29.40
18.12
2.93
-14.97
-33.60
-50.32
-62.47
-68.57
-69.40
-68.20
-69.68
-77.86
-94.13
-116.02
-137.71
-151.98
-152.61
-136.56
-104.97
-62.79
-17.31
23.97
55.18
73.34
78.48
72.88
60.02
43.40
25.99
10.04
-2.84
-11.73
-16.40
-17.50
-16.37
-14.67
-13.79
-14.32
-15.93
-17.60
-18.16
-16.79
-13.48
-9.12
-5.21
-3.41
-4.89
-9.91
-17.66
-26.52
-34.63
-40.43
-43.10
-42.64
-39.74
-35.40
-30.68
-26.37
-22.95
-20.53
-18.97
-17.98
-17.21
-16.40
-15.39
-14.08
-12.40
-10.25
-7.55
-4.32
-0.77
2.71
5.66
7.70
8.72
8.88
8.49
7.93
7.41
7.02
6.68
6.30
5.80
5.17
4.44
3.73
3.20
3.04
3.34
4.07
4.96
5.66
5.80
5.21
4.01
2.58
1.40
0.88
1.13
1.96
3.01
3.84
4.17
3.94
3.33
2.57
1.91
1.45
1.21
1.06
0.92
0.66
0.22
-0.42
-1.16
-1.84
-2.26
-2.22
-1.70
-0.85
0.06
0.73
0.96
0.73
0.14
-0.64
-1.46
-2.27
-3.08
-3.91
-4.76
-5.61
-6.39
-7.04
-7.59
-8.13
-8.78
-9.63
-10.66
-11.74
-12.60
-13.01
-12.85
-12.23
-11.38
-10.65
-10.31
-10.51
-11.26
-12.45
-13.86
-15.16
-15.92
-15.65
-14.05
-11.07
-7.07
-2.69
1.42
4.78
7.32
9.25
10.89
12.37
13.62
14.39
14.46
13.78
12.58
11.23
10.07
9.36
9.14
9.32
9.72
10.11
10.29
10.11
9.56
8.76
7.89
7.08
6.32
5.49
4.36
2.86
1.09
-0.71
-2.34
-3.80
-5.29
-7.12
-9.41
-11.98
-14.40
-16.19
-17.08
-17.14
-16.67
-16.00
-15.38
-14.81
-14.21
-13.41
-12.28
-10.74
-8.79
-6.54
-4.22
-2.20
-0.83
-0.31
-0.50
-1.03
-1.40
-1.19
-0.24
1.33
3.21
5.03
6.49
7.40
7.74
7.60
7.16
6.66
6.25
6.04
6.02
6.16
6.44
6.81
7.21
7.57
7.75
7.64
7.28
6.76
6.26
5.91
5.63
5.27
4.64
3.70
2.63
1.77
1.43
1.80
2.84
4.40
6.34
8.64
11.38
14.56
18.13
21.85
25.40
28.54
31.15
33.32
35.26
37.16
39.13
41.09
42.87
44.24
45.04
45.23
44.96
44.50
44.14
44.02
43.97
43.53
41.91
38.35
32.34
23.97
13.92
3.48
-5.88
-12.94
-17.05
-18.37
-17.70
-16.27
-15.30
-15.80
-18.36
-23.16
-29.88
-37.81
-45.96
-53.21
-58.59
-61.50
-61.92
-60.37
-57.70
-54.89
-52.68
-51.52
-51.50
-52.50
-54.10
-55.64
-56.24
-54.97
-51.11
-44.45
-35.47
-25.19
-14.99
-6.16
0.37
4.11
5.04
3.49
0.12
-4.13
-8.27
-11.41
-13.08
-13.34
-12.70
-11.73
-10.81
-9.99
-9.14
-8.13
-7.07
-6.31
-6.21
-7.04
-8.78
-11.23
-14.03
-16.87
-19.47
-21.55
-22.82
-22.96
-21.76
-19.13
-15.20
-10.40
-5.33
-0.78
2.61
4.47
4.89
4.38
3.61
3.10
3.00
3.08
2.92
2.23
1.02
-0.36
-1.47
-1.96
-1.78
-1.12
-0.34
0.21
0.30
-0.17
-1.03
-1.97
-2.53
-2.30
-0.99
1.39
4.54
7.96
11.11
13.57
15.15
15.90
16.07
15.96
15.81
15.76
15.75
15.63
15.22
14.40
13.13
11.45
9.39
6.93
4.05
0.78
-2.71
-6.10
-9.01
-11.14
-12.32
-12.57
-12.05
-10.93
-9.30
-7.24
-4.89
-2.45
-0.25
1.40
2.29
2.43
2.02
1.36
0.76
0.47
0.59
1.13
1.95
2.88
3.67
4.17
4.30
4.14
3.85
3.69
3.87
4.45
5.36
6.32
7.02
7.11
6.42
4.95
3.02
1.10
-0.27
-0.70
-0.10
1.27
2.94
4.44
5.43
5.84
5.83
5.60
5.32
5.02
4.59
3.91
2.85
1.38
-0.51
-2.69
-4.94
-6.97
-8.48
-9.25
-9.18
-8.39
-7.10
-5.62
-4.20
-2.98
-1.92
-0.93
0.10
1.23
2.44
3.67
4.87
6.07
7.36
8.82
10.44
12.05
13.39
14.17
14.25
13.65
12.62
11.47
10.51
9.93
9.79
10.07
10.66
11.43
12.22
12.86
13.20
13.15
12.72
12.02
11.24
10.60
10.28
10.29
10.45
10.32
9.29
6.71
2.12
-4.49
-12.63
-21.31
-29.33
-35.65
-39.63
-41.15
-40.46
-38.04
-34.27
-29.50
-23.99
-18.10
-12.30
-7.16
-3.13
-0.41
1.07
1.62
1.64
1.47
1.30
1.16
0.93
0.48
-0.21
-1.08
-1.89
-2.29
-1.91
-0.47
2.09
5.58
9.56
13.47
16.74
18.95
19.91
19.63
18.29
16.07
13.24
10.06
6.87
4.01
1.75
0.18
-0.82
-1.60
-2.59
-4.17
-6.53
-9.66
-13.31
-17.07
-20.53
-23.27
-25.01
-25.63
-25.20
-23.90
-21.97
-19.60
-16.89
-13.88
-10.52
-6.79
-2.77
1.36
5.34
8.84
11.56
13.33
14.15
14.19
13.72
13.04
12.42
11.99
11.80
11.76
11.73
11.63
11.45
11.26
11.16
11.15
11.13
10.89
10.26
9.22
7.87
6.38
4.85
3.29
1.60
-0.29
-2.33
-4.35
-6.21
-7.85
-9.37
-11.01
-13.02
-15.56
-18.69
-22.32
-26.33
-30.53
-34.78
-38.99
-43.13
-47.21
-51.12
-54.61
-57.12
-57.97
-56.50
-52.35
-45.51
-36.30
-25.29
-13.11
-0.50
11.73
22.70
31.68
38.33
42.87
46.08
49.06
52.70
57.43
62.99
68.54
72.92
74.94
73.76
69.12
61.50
52.17
42.88
35.37
30.84
29.68
31.38
34.90
39.04
42.88
45.84
47.68
48.35
47.92
46.48
44.26
41.56
38.68
35.85
33.12
30.26
26.83
22.30
16.32
8.87
0.32
-8.69
-17.50
-25.64
-33.00
-39.71
-45.91
-51.70
-57.03
-61.85
-66.25
-70.52
-75.00
-79.85
-84.92
-89.80
-93.94
-96.97
-98.86
-99.81
-100.05
-99.67
-98.56
-96.63
-94.00
-91.08
-88.31
-85.69
-82.56
-77.74
-70.01
-58.89
-44.92
-29.64
-14.89
-2.16
7.78
14.92
19.56
21.97
22.27
20.53
17.07
12.50
7.68
3.35
-0.00
-2.30
-3.74
-4.57
-4.88
-4.61
-3.56
-1.57
1.40
5.23
9.69
14.44
19.09
23.19
26.23
27.71
27.36
25.26
21.95
18.34
15.44
14.04
14.48
16.53
19.63
22.97
25.96
28.24
29.87
31.20
32.73
34.88
37.81
41.25
44.46
46.40
45.92
42.15
34.88
24.85
13.82
4.23
-1.45
-1.53
4.16
14.15
25.75
36.01
42.70
44.97
43.28
38.83
32.91
26.30
19.20
11.44
2.83
-6.70
-17.08
-28.16
-39.78
-51.63
-63.30
-74.23
-83.82
-91.67
-97.59
-101.72
-104.42
-106.32
-108.22
-110.91
-114.82
-119.72
-124.43
-127.04
-125.43
-118.10
-104.90
-87.27
-67.84
-49.59
-34.83
-24.52
-18.09
-13.85
-9.79
-4.26
3.62
13.95
26.42
40.66
56.32
72.86
89.06
102.88
111.76
113.58
107.66
95.43
80.07
65.40
54.41
48.03
45.00
42.68
38.52
31.44
22.33
13.61
8.03
7.45
12.13
20.92
32.03
43.91
55.81
67.80
80.12
92.59
104.22
113.51
118.93
119.67
115.94
108.97
100.63
92.91
87.29
84.42
83.88
84.40
84.31
82.05
76.65
67.89
56.19
42.20
26.50
9.43
-8.88
-28.29
-48.57
-69.34
-90.13
-110.41
-129.33
-145.60
-157.38
-162.59
-159.56
-147.77
-128.43
-104.38
-79.55
-57.82
-42.15
-33.84
-32.65
-37.14
-45.33
-55.17
-64.81
-72.84
-78.32
-81.05
-81.56
-80.94
-80.53
-81.44
-84.28
-88.99
-94.96
-101.12
-106.11
-108.48
-106.89
-100.54
-89.41
-74.38
-56.90
-38.57
-20.69
-3.97
11.36
25.23
37.45
47.73
55.68
61.15
64.24
65.38
65.13
64.03
62.54
60.99
59.57
58.36
57.34
56.45
55.60
54.74
53.88
53.08
52.42
51.89
51.39
50.62
49.22
46.80
43.11
38.05
31.74
24.41
16.28
7.51
-1.89
-12.04
-23.11
-35.31
-48.80
-63.53
-79.05
-94.20
-107.01
-115.02
-115.93
-108.46
-92.95
-71.49
-47.31
-23.77
-3.47
12.37
23.68
31.21
35.86
38.42
39.50
39.63
39.41
39.42
40.08
41.48
43.35
45.18
46.42
46.74
46.09
44.67
42.70
40.43
38.02
35.75
34.06
33.41
34.16
36.27
39.19
42.05
44.01
44.49
43.41
41.07
37.90
34.35
30.65
26.89
23.05
19.06
14.94
11.00
8.03
7.27
10.10
17.57
29.90
46.27
64.98
83.91
101.14
115.25
125.48
131.55
133.52
131.66
126.47
118.71
109.34
99.32
89.43
80.14
71.51
63.35
55.35
47.28
39.08
30.90
22.98
15.60
9.07
3.61
-0.60
-3.50
-5.23
-6.17
-6.91
-8.07
-10.11
-13.13
-16.87
-20.82
-24.53
-27.80
-30.81
-34.08
-38.25
-43.97
-51.62
-61.13
-71.73
-81.86
-89.43
-92.32
-89.12
-79.63
-65.04
-47.43
-29.13
-11.95
3.11
15.75
26.08
34.21
40.11
43.73
45.15
44.72
43.05
40.85
38.83
37.53
37.24
37.93
39.33
40.92
42.18
42.67
42.23
40.96
39.19
37.28
35.41
33.52
31.34
28.49
24.75
20.15
14.91
9.39
3.84
-1.65
-7.21
-12.99
-19.23
-26.12
-33.84
-42.44
-51.63
-60.64
-68.15
-72.54
-72.36
-66.93
-56.64
-42.88
-27.56
-12.50
1.03
12.42
21.53
28.40
33.09
35.68
36.37
35.58
33.88
31.83
29.88
28.24
26.98
26.08
25.53
25.33
25.45
25.87
26.48
27.24
28.02
28.65
28.88
28.28
26.50
23.28
18.72
13.19
7.30
1.65
-3.43
-7.92
-12.10
-16.46
-21.51
-27.62
-34.86
-42.87
-50.72
-57.04
-60.25
-59.07
-52.95
-42.36
-28.64
-13.68
0.64
12.98
22.66
29.67
34.38
37.25
38.62
38.65
37.38
34.99
31.83
28.48
25.58
23.56
22.57
22.38
22.63
22.99
23.37
23.81
24.40
25.04
25.39
24.95
23.27
20.14
15.69
10.37
4.76
-0.66
-5.64
-10.26
-14.78
-19.62
-25.15
-31.67
-39.22
-47.47
-55.58
-62.23
-65.86
-65.18
-59.65
-49.77
-37.01
-23.36
-10.67
-0.14
7.84
13.51
17.42
19.99
21.46
21.84
21.20
19.73
17.80
15.92
14.53
13.90
14.05
14.83
15.94
17.09
18.13
18.95
19.56
19.95
20.06
19.72
18.73
16.85
13.96
10.11
5.55
0.68
-4.11
-8.55
-12.57
-16.35
-20.19
-24.47
-29.48
-35.40
-42.18
-49.40
-56.22
-61.44
-63.67
-61.81
-55.42
-45.00
-31.82
-17.60
-3.99
7.91
17.63
25.28
31.19
35.72
39.05
41.23
42.28
42.36
41.75
40.88
40.21
40.10
40.74
42.07
43.84
45.68
47.28
48.44
49.16
49.58
49.86
50.09
50.18
49.86
48.79
46.66
43.31
38.78
33.24
27.01
20.42
13.75
7.21
0.82
-5.53
-12.22
-19.72
-28.47
-38.65
-49.91
-61.24
-71.15
-77.99
-80.47
-78.10
-71.29
-61.26
-49.50
-37.45
-26.15
-16.26
-8.14
-1.96
2.28
4.81
6.08
6.69
7.13
7.61
7.92
7.55
5.97
2.91
-1.48
-6.60
-11.51
-15.08
-16.12
-13.60
-6.99
3.40
16.16
28.96
39.07
44.33
43.92
38.70
30.87
23.15
17.76
15.76
16.92
20.00
23.29
25.09
24.06
19.41
11.03
-0.50
-13.92
-27.47
-39.11
-46.96
-49.62
-46.55
-38.21
-26.04
-12.09
1.45
12.87
21.35
27.01
30.71
33.53
36.39
39.68
43.33
46.95
49.97
51.77
51.70
49.00
42.88
32.82
19.00
2.68
-13.87
-27.82
-36.70
-39.27
-35.96
-28.74
-20.40
-13.61
-10.18
-10.82
-15.31
-22.98
-33.19
-45.53
-59.68
-75.12
-90.95
-105.80
-118.11
-126.62
-130.72
-130.67
-127.37
-121.98
-115.46
-108.26
-100.39
-91.67
-82.04
-71.67
-60.88
-49.99
-39.00
-27.65
-15.42
-1.93
12.86
28.42
43.74
57.61
68.89
76.80
81.07
81.85
79.66
75.27
69.62
63.74
58.60
54.94
53.03
52.62
53.02
53.39
53.10
51.85
49.72
46.93
43.62
39.75
35.19
29.86
23.92
17.75
11.79
6.37
1.58
-2.70
-6.68
-10.54
-14.36
-18.25
-22.32
-26.67
-31.30
-35.91
-39.86
-42.27
-42.36
-39.71
-34.55
-27.70
-20.31
-13.43
-7.71
-3.31
-0.01
2.50
4.41
5.76
6.54
6.84
6.94
7.23
8.18
10.19
13.52
18.27
24.31
31.25
38.44
45.02
50.13
53.11
53.66
51.88
48.18
43.07
37.08
30.67
24.27
18.24
12.83
8.07
3.78
-0.37
-4.65
-9.14
-13.62
-17.74
-21.20
-24.03
-26.68
-29.86
-34.31
-40.31
-47.53
-54.89
-60.83
-63.79
-62.67
-57.12
-47.65
-35.31
-21.38
-7.04
6.84
19.70
31.20
41.21
49.63
56.41
61.42
64.46
65.28
63.80
60.19
54.97
48.96
42.98
37.66
33.23
29.63
26.59
23.84
21.23
18.71
16.27
13.81
11.15
8.02
4.24
-0.27
-5.38
-10.80
-16.18
-21.24
-25.86
-30.11
-34.16
-38.21
-42.45
-47.01
-51.99
-57.39
-63.05
-68.51
-72.98
-75.52
-75.27
-71.75
-65.07
-55.91
-45.28
-34.30
-23.87
-14.60
-6.77
-0.35
4.79
8.85
11.95
14.20
15.67
16.43
16.67
16.56
16.30
16.06
15.97
16.13
16.58
17.32
18.24
19.14
19.75
19.84
19.28
18.10
16.48
14.59
12.54
10.32
7.82
4.94
1.67
-1.93
-5.66
-9.29
-12.64
-15.63
-18.40
-21.23
-24.57
-28.83
-34.17
-40.30
-46.44
-51.37
-53.80
-52.75
-47.92
-39.78
-29.43
-18.26
-7.51
1.91
9.59
15.53
19.90
22.95
24.93
26.07
26.62
26.87
27.06
27.31
27.59
27.72
27.46
26.72
25.58
24.36
23.43
23.14
23.56
24.49
25.54
26.23
26.17
25.24
23.55
21.42
19.22
17.22
15.50
13.85
11.99
9.62
6.61
3.04
-0.85
-4.75
-8.42
-11.76
-14.86
-17.97
-21.48
-25.71
-30.83
-36.62
-42.41
-47.11
-49.47
-48.54
-43.94
-36.12
-26.09
-15.20
-4.61
4.94
13.21
20.26
26.22
31.12
34.86
37.36
38.67
39.16
39.37
39.92
41.25
43.47
46.32
49.33
51.98
54.05
55.72
57.57
60.35
64.67
70.66
77.89
85.49
92.58
98.66
103.90
108.99
114.70
121.37
128.41
134.48
137.84
137.05
131.47
121.38
107.86
92.60
77.74
65.71
58.88
58.64
64.50
73.54
80.93
81.53
72.05
52.53
26.36
-1.20
-25.39
-43.77
-56.53
-65.62
-73.09
-79.95
-86.00
-90.59
-93.51
-95.45
-97.54
-100.65
-104.82
-109.27
-112.89
-114.84
-115.02
-114.07
-113.12
-113.24
-114.90
-117.94
-121.68
-125.28
-128.07
-129.87
-131.02
-132.40
-134.84
-138.69
-143.80
-149.81
-156.39
-163.31
-170.49
-177.84
-185.74
-194.29
-203.34
-212.83
-223.05
-234.49
-247.25
-260.80
-274.04
-286.90
-299.00
-309.58
-317.92
-323.82
-327.49
-328.88
-327.27
-321.13
-310.36
-294.25
-271.53
-241.42
-204.87
-164.49
-123.25
-83.82
-47.72
-17.69
5.54
24.25
42.63
64.75
92.80
126.99
164.62
216.49
280.68
344.97
395.97
428.47
446.07
454.70
458.52
457.89
451.92
438.19
416.18
388.47
358.57
328.73
298.40
265.73
228.24
185.10
143.01
106.97
80.96
67.18
65.74
66.77
66.85
63.40
55.74
44.19
29.45
12.48
-7.25
-24.62
-39.90
-57.69
-83.45
-120.03
-167.09
-222.54
-283.30
-346.69
-411.06
-454.13
-461.81
-433.76
-382.76
-325.19
-272.41
-228.27
-191.92
-160.71
-132.73
-110.58
-97.36
-94.26
-99.85
-111.28
-124.91
-136.26
-143.94
-140.54
-123.51
-94.01
-56.21
-15.89
21.00
50.05
69.74
81.94
90.39
95.90
97.98
95.91
90.31
83.71
80.26
81.55
89.14
103.31
121.14
138.83
153.39
163.80
171.00
177.26
185.28
197.92
217.49
244.25
276.54
310.58
340.57
359.70
361.92
344.08
307.51
257.53
201.34
145.86
96.00
54.02
20.11
-6.74
-28.01
-45.17
-59.61
-72.46
-83.96
-93.18
-98.44
-98.18
-91.83
-80.17
-64.90
-48.00
-31.24
-16.04
-3.55
5.16
9.33
8.90
4.79
-1.23
-7.19
-11.58
-13.93
-14.77
-15.25
-16.58
-19.51
-23.92
-28.87
-32.86
-34.45
-32.80
-28.00
-20.92
-12.75
-4.48
3.47
11.14
18.65
25.90
32.48
37.91
41.91
44.66
46.62
48.27
49.81
51.20
52.39
53.60
55.41
58.56
63.59
70.60
78.99
87.73
95.75
102.30
107.32
111.44
115.80
121.67
130.00
140.91
153.36
165.12
173.25
174.81
167.95
152.53
130.11
103.45
75.41
48.08
22.31
-2.11
-26.16
-51.11
-78.16
-107.96
-140.11
-172.82
-203.02
-227.15
-242.32
-247.26
-242.48
-229.70
-210.87
-187.60
-161.25
-133.57
-107.04
-84.74
-69.53
-63.00
-64.95
-73.54
-86.02
-99.73
-112.73
-124.03
-133.60
-141.82
-148.92
-154.58
-157.63
-156.40
-149.46
-136.32
-117.94
-96.42
-74.29
-53.51
-34.95
-18.38
-3.02
11.73
25.90
38.90
49.85
58.07
63.27
65.48
64.82
61.25
54.62
44.91
32.65
19.13
6.37
-3.36
-8.29
-7.73
-2.48
5.45
13.49
19.38
21.79
20.66
16.86
11.70
6.31
1.35
-3.17
-7.63
-12.58
-18.66
-26.57
-37.03
-50.39
-66.08
-81.91
-93.95
-97.33
-87.85
-63.86
-27.51
15.43
57.26
90.91
112.32
121.39
121.34
116.76
111.53
107.50
104.55
101.43
96.94
90.64
82.78
73.84
64.08
53.38
41.77
29.93
19.38
12.09
9.55
11.93
17.79
24.54
29.51
30.99
28.81
24.19
19.02
14.90
12.57
11.71
11.29
10.21
7.70
3.65
-1.45
-6.79
-11.52
-15.03
-17.07
-17.75
-17.40
-16.45
-15.21
-13.91
-12.65
-11.47
-10.43
-9.56
-8.93
-8.63
-8.73
-9.31
-10.48
-12.32
-14.91
-18.23
-22.19
-26.66
-31.52
-36.76
-42.45
-48.62
-55.14
-61.46
-66.66
-69.60
-69.22
-64.90
-56.69
-45.29
-31.90
-17.94
-4.73
6.75
15.93
22.72
27.36
30.26
31.85
32.46
32.26
31.34
29.69
27.31
24.23
20.59
16.68
12.96
9.96
8.16
7.73
8.49
9.85
11.10
11.62
11.15
9.75
7.77
5.54
3.39
1.41
-0.43
-2.23
-4.16
-6.39
-9.17
-12.73
-17.25
-22.62
-28.36
-33.64
-37.42
-38.74
-37.00
-32.09
-24.40
-14.69
-3.99
6.52
15.78
22.95
27.59
29.75
29.93
28.86
27.20
25.41
23.60
21.62
19.20
16.03
11.85
6.50
0.14
-6.79
-13.40
-18.66
-21.56
-21.56
-18.81
-14.22
-9.10
-4.75
-1.92
-0.58
-0.09
0.45
1.65
3.40
4.93
5.07
2.87
-1.77
-7.88
-13.54
-16.45
-14.75
-7.70
4.08
18.75
33.85
46.99
56.49
61.63
62.54
59.92
54.80
48.39
41.87
36.34
32.53
30.55
29.78
29.07
27.26
23.67
18.54
12.89
8.10
5.22
4.51
5.43
6.95
8.16
8.62
8.44
7.94
7.40
6.76
5.74
4.04
1.50
-1.84
-5.98
-11.11
-17.63
-25.88
-35.72
-46.20
-55.58
-61.82
-63.22
-59.02
-49.73
-36.88
-22.47
-8.37
4.11
14.37
22.31
28.05
31.73
33.42
33.21
31.30
28.11
24.25
20.35
16.88
14.02
11.69
9.59
7.52
5.48
3.76
2.74
2.64
3.29
4.08
4.11
2.53
-1.11
-6.75
-13.83
-21.56
-29.10
-35.83
-41.38
-45.75
-49.37
-53.06
-57.81
-64.38
-72.72
-81.73
-89.29
-93.00
-90.93
-82.44
-68.31
-50.46
-31.18
-12.54
3.94
17.41
27.45
34.02
37.40
38.19
37.16
35.08
32.46
29.56
26.32
22.54
18.05
12.66
6.30
-0.80
-7.78
-13.04
-14.40
-9.83
1.61
19.18
40.51
62.36
81.86
97.34
108.33
114.86
116.53
112.08
100.01
79.80
52.92
22.85
-5.94
-29.60
-46.12
-55.56
-59.31
-59.08
-56.21
-51.63
-46.50
-42.58
-42.04
-46.82
-57.50
-72.67
-89.04
-102.35
-108.76
-105.96
-93.88
-74.47
-50.88
-26.36
-3.31
17.05
34.57
49.58
62.36
72.93
81.06
86.56
89.48
90.19
89.16
86.87
83.64
79.69
75.23
70.63
66.36
62.97
60.90
60.35
61.19
62.99
65.14
66.96
67.92
67.67
66.22
63.80
60.79
57.50
54.08
50.41
46.27
41.39
35.60
28.86
21.23
12.85
3.95
-5.16
-14.03
-22.17
-29.17
-34.87
-39.38
-42.99
-46.08
-48.92
-51.64
-54.25
-56.76
-59.30
-62.20
-66.00
-71.25
-78.25
-86.67
-95.30
-102.09
-104.63
-100.99
-90.40
-73.71
-53.08
-31.29
-10.75
7.01
21.51
32.98
41.85
48.50
53.19
56.20
57.94
58.92
59.52
59.87
59.83
59.13
57.61
55.42
52.98
50.91
49.79
49.85
50.94
52.55
53.98
54.63
54.18
52.73
50.61
48.32
46.22
44.42
42.81
41.05
38.75
35.62
31.59
26.85
21.82
16.99
12.65
8.80
5.17
1.41
-2.71
-7.08
-11.32
-15.02
-17.95
-20.29
-22.55
-25.36
-29.18
-34.13
-39.90
-45.92
-51.60
-56.58
-60.84
-64.76
-68.99
-74.21
-80.87
-88.85
-97.32
-104.68
-108.81
-107.74
-100.21
-86.21
-67.12
-45.36
-23.54
-3.85
12.49
25.23
34.69
41.43
45.94
48.58
49.67
49.63
48.87
47.76
46.55
45.27
43.91
42.43
40.96
39.73
39.09
39.29
40.44
42.34
44.49
46.23
46.89
46.09
43.83
40.50
36.67
32.90
29.51
26.56
23.86
21.11
18.07
14.58
10.66
6.40
2.03
-2.20
-6.03
-9.25
-11.86
-13.98
-15.93
-18.09
-20.74
-23.97
-27.66
-31.48
-35.08
-38.30
-41.19
-44.12
-47.63
-52.26
-58.33
-65.66
-73.48
-80.36
-84.50
-84.22
-78.48
-67.28
-51.73
-33.74
-15.42
1.45
15.71
26.88
34.97
40.23
43.03
43.83
43.10
41.33
38.96
36.31
33.58
30.95
28.56
26.57
25.16
24.46
24.55
25.46
27.11
29.33
31.79
34.09
35.81
36.67
36.53
35.43
33.56
31.10
28.24
25.11
21.80
18.39
14.91
11.34
7.65
3.87
0.09
-3.51
-6.74
-9.54
-11.94
-14.14
-16.38
-18.88
-21.78
-25.12
-28.88
-32.93
-37.08
-41.03
-44.51
-47.31
-49.52
-51.50
-53.88
-57.31
-62.08
-67.83
-73.43
-77.22
-77.44
-72.89
-63.35
-49.65
-33.49
-16.81
-1.34
11.81
22.17
29.78
34.89
37.80
38.80
38.17
36.28
33.54
30.39
27.26
24.48
22.30
20.85
20.16
20.14
20.66
21.57
22.78
24.17
25.64
26.96
27.82
27.91
27.02
25.17
22.61
19.76
17.02
14.60
12.50
10.55
8.54
6.28
3.76
1.05
-1.65
-4.17
-6.37
-8.27
-9.95
-11.58
-13.34
-15.33
-17.63
-20.24
-23.12
-26.16
-29.23
-32.17
-34.87
-37.33
-39.78
-42.60
-46.34
-51.38
-57.66
-64.51
-70.58
-74.21
-73.84
-68.57
-58.53
-44.80
-29.18
-13.58
0.47
12.09
21.07
27.64
32.21
35.08
36.49
36.55
35.44
33.44
30.95
28.40
26.16
24.47
23.36
22.79
22.68
23.00
23.76
24.98
26.54
28.07
29.07
29.02
27.61
24.87
21.18
17.13
13.27
9.95
7.28
5.12
3.24
1.35
-0.74
-3.18
-6.01
-9.15
-12.42
-15.59
-18.43
-20.75
-22.46
-23.50
-23.85
-23.50
-22.53
-21.13
-19.63
-18.42
-17.88
-18.20
-19.42
-21.41
-24.04
-27.22
-30.95
-35.12
-39.40
-43.02
-44.90
-43.86
-39.03
-30.17
-17.96
-3.81
10.50
23.16
32.88
38.95
41.43
40.93
38.46
35.15
32.12
30.18
29.74
30.63
32.13
33.18
32.62
29.78
24.80
18.87
13.85
11.57
12.88
17.06
21.90
24.64
23.13
16.91
7.20
-3.70
-13.64
-21.30
-26.38
-29.15
-29.86
-28.62
-25.56
-21.32
-17.09
-14.38
-14.37
-17.34
-22.59
-28.67
-34.03
-37.45
-38.39
-36.93
-33.67
-29.46
-25.12
-21.35
-18.59
-17.10
-17.02
-18.34
-20.86
-24.06
-27.05
-28.66
-27.81
-23.75
-16.43
-6.52
4.80
16.11
26.10
33.83
38.86
41.16
41.12
39.37
36.63
33.55
30.57
27.84
25.26
22.62
19.77
16.75
13.77
11.14
9.05
7.53
6.38
5.40
4.47
3.64
3.02
2.69
2.55
2.35
1.82
0.83
-0.57
-2.14
-3.66
-5.04
-6.40
-7.99
-10.04
-12.61
-15.58
-18.69
-21.70
-24.50
-27.15
-29.79
-32.63
-35.87
-39.67
-44.12
-49.12
-54.30
-58.85
-61.70
-61.69
-58.04
-50.66
-40.27
-28.21
-16.01
-4.95
4.19
11.20
16.18
19.43
21.20
21.74
21.35
20.37
19.15
17.90
16.72
15.56
14.39
13.24
12.27
11.64
11.44
11.59
11.95
12.29
12.43
12.25
11.68
10.73
9.44
7.89
6.14
4.22
2.05
-0.48
-3.49
-6.98
-10.77
-14.62
-18.26
-21.63
-24.91
-28.44
-32.69
-37.95
-44.14
-50.68
-56.50
-60.30
-60.87
-57.52
-50.26
-39.86
-27.57
-14.79
-2.81
7.44
15.47
21.19
24.80
26.66
27.11
26.47
24.96
22.77
20.13
17.35
14.78
12.72
11.35
10.64
10.52
10.86
11.59
12.61
13.78
14.85
15.49
15.46
14.60
12.99
10.79
8.20
5.29
2.00
-1.70
-5.77
-10.00
-14.11
-17.88
-21.30
-24.63
-28.26
-32.61
-37.98
-44.32
-51.24
-57.87
-62.99
-65.20
-63.33
-56.86
-46.15
-32.47
-17.62
-3.39
8.87
18.49
25.47
30.12
32.89
34.16
34.18
33.14
31.21
28.57
25.50
22.32
19.35
16.91
15.22
14.38
14.39
15.11
16.33
17.74
19.07
20.06
20.55
20.48
19.85
18.68
16.95
14.61
11.57
7.84
3.46
-1.38
-6.43
-11.46
-16.29
-20.87
-25.32
-29.92
-35.03
-41.00
-47.88
-55.23
-62.00
-66.65
-67.58
-63.63
-54.54
-41.13
-25.13
-8.58
6.66
19.31
28.93
35.60
39.75
41.91
42.52
41.87
40.23
37.81
34.86
31.71
28.73
26.28
24.63
23.90
24.06
24.95
26.31
27.88
29.35
30.40
30.73
30.21
28.89
27.01
24.84
22.50
19.79
16.32
11.69
5.82
-0.89
-7.65
-13.62
-18.35
-21.99
-25.25
-29.09
-34.28
-41.05
-48.97
-56.98
-63.68
-67.57
-67.48
-62.82
-53.84
-41.60
-27.71
-13.96
-1.79
7.97
15.22
20.33
23.84
26.16
27.40
27.42
25.92
22.76
18.18
12.90
8.01
4.70
3.89
5.88
10.31
16.32
22.89
29.12
34.38
38.26
40.49
40.84
39.18
35.64
30.59
24.64
18.48
12.59
7.24
2.34
-2.40
-7.45
-13.34
-20.53
-29.24
-39.29
-49.87
-59.67
-67.06
-70.50
-68.95
-62.20
-50.93
-36.54
-20.80
-5.44
8.18
19.26
27.49
32.93
35.84
36.49
35.23
32.48
28.82
24.92
21.50
19.05
17.78
17.58
18.10
18.96
19.82
20.54
21.05
21.38
21.52
21.42
20.91
19.79
17.87
15.05
11.40
7.21
2.83
-1.40
-5.30
-9.01
-12.87
-17.40
-23.08
-30.12
-38.34
-47.06
-55.16
-61.23
-63.87
-62.09
-55.50
-44.53
-30.29
-14.39
1.46
15.77
27.47
36.11
41.75
44.76
45.71
45.13
43.43
40.92
37.88
34.62
31.53
28.99
27.32
26.67
27.03
28.18
29.80
31.51
32.91
33.67
33.54
32.39
30.22
27.22
23.66
19.79
15.81
11.72
7.42
2.75
-2.34
-7.84
-13.58
-19.37
-25.06
-30.61
-36.11
-41.80
-48.02
-55.05
-62.89
-70.99
-78.17
-82.76
-83.07
-77.98
-67.38
-52.30
-34.60
-16.41
0.48
14.91
26.47
35.27
41.62
45.88
48.33
49.17
48.65
47.10
44.97
42.73
40.83
39.54
38.97
39.08
39.77
40.95
42.57
44.55
46.75
48.89
50.56
51.30
50.69
48.50
44.74
39.73
33.97
28.06
22.50
17.57
13.19
9.03
4.67
-0.15
-5.41
-10.78
-15.82
-20.22
-23.95
-27.38
-31.01
-35.32
-40.63
-46.96
-54.08
-61.48
-68.28
-73.25
-74.93
-72.01
-63.82
-50.71
-34.10
-16.07
1.21
16.09
27.78
36.28
42.05
45.71
47.76
48.52
48.17
46.94
45.06
42.91
40.81
39.06
37.78
36.95
36.44
36.13
35.94
35.89
36.03
36.31
36.54
36.45
35.77
34.32
32.12
29.29
25.95
22.23
18.21
14.05
9.96
6.17
2.79
-0.23
-3.18
-6.42
-10.14
-14.35
-18.76
-23.01
-26.84
-30.22
-33.35
-36.50
-40.00
-44.09
-48.94
-54.55
-60.58
-66.23
-70.26
-71.23
-67.97
-59.99
-47.76
-32.61
-16.32
-0.65
13.07
24.11
32.24
37.57
40.35
40.93
39.68
37.04
33.54
29.77
26.28
23.50
21.69
20.86
20.87
21.47
22.44
23.60
24.87
26.14
27.29
28.15
28.41
27.84
26.28
23.77
20.57
17.11
13.82
10.95
8.48
6.15
3.61
0.56
-3.04
-7.05
-11.18
-15.13
-18.71
-21.85
-24.68
-27.43
-30.47
-34.20
-38.94
-44.69
-51.04
-57.10
-61.57
-63.12
-60.64
-53.73
-42.75
-28.88
-13.79
0.75
13.31
23.09
29.96
34.28
36.61
37.48
37.24
36.09
34.23
31.86
29.26
26.70
24.38
22.50
21.23
20.75
21.19
22.56
24.68
27.15
29.46
31.09
31.74
31.33
30.00
28.03
25.69
23.12
20.34
17.28
13.87
10.15
6.24
2.32
-1.51
-5.23
-8.94
-12.73
-16.63
-20.50
-24.13
-27.37
-30.19
-32.72
-35.27
-38.24
-42.06
-46.96
-52.91
-59.35
-65.15
-68.82
-68.89
-64.39
-55.30
-42.58
-27.92
-13.22
-0.04
10.74
18.91
24.76
28.76
31.40
33.04
33.90
34.11
33.73
32.85
31.62
30.23
28.94
27.92
27.32
27.14
27.34
27.81
28.48
29.22
29.88
30.24
30.11
29.37
28.00
26.11
23.80
21.21
18.37
15.29
12.04
8.73
5.51
2.45
-0.44
-3.35
-6.48
-9.99
-13.85
-17.82
-21.59
-24.87
-27.51
-29.64
-31.60
-33.84
-36.83
-40.90
-46.06
-51.91
-57.64
-62.08
-64.01
-62.44
-56.94
-47.86
-36.24
-23.51
-11.15
-0.25
8.59
15.24
19.88
22.79
24.23
24.45
23.74
22.43
20.87
19.38
18.16
17.31
16.83
16.65
16.68
16.86
17.16
17.55
17.95
18.20
18.03
17.19
15.53
13.10
10.12
6.87
3.52
0.03
-3.80
-8.20
-13.20
-18.52
-23.70
-28.27
-32.02
-35.16
-38.22
-41.85
-46.58
-52.56
-59.55
-66.99
-74.15
-80.35
-85.03
-87.85
-88.74
-87.90
-85.72
-82.73
-79.33
-75.59
-71.30
-66.16
-60.24
-54.38
-50.23
-49.90
-55.12
-66.48
-83.06
-102.73
-123.01
-141.98
-158.83
-173.78
-187.40
-199.95
-211.07
-220.00
-226.08
-229.20
-230.02
-229.71
-229.55
-230.40
-232.38
-234.74
-236.01
-234.46
-228.58
-217.63
-201.87
-182.43
-160.80
-138.22
-115.35
-92.31
-69.00
-45.57
-22.58
-0.74
19.47
38.17
56.08
74.29
93.72
114.73
136.97
159.54
181.45
202.11
221.58
240.61
260.37
281.90
305.75
331.66
358.41
383.87
405.16
419.28
423.74
417.48
401.22
377.40
349.41
320.58
293.21
268.18
245.15
223.16
201.18
178.52
154.97
130.66
106.03
81.74
58.53
37.00
17.51
0.14
-14.97
-27.38
-36.11
-39.95
-37.88
-29.77
-16.64
-0.59
15.76
30.02
40.54
46.62
48.40
46.63
42.42
37.10
31.96
27.94
25.38
23.88
22.59
20.67
17.84
14.63
12.21
11.91
14.62
20.43
28.59
37.82
46.72
54.15
59.31
61.81
61.72
59.51
55.98
52.06
48.46
45.40
42.48
38.94
33.99
27.38
19.65
11.97
5.75
2.21
2.04
5.28
11.57
20.34
30.87
42.18
52.88
61.17
65.10
63.23
55.26
42.40
27.23
13.03
2.65
-2.44
-2.59
0.44
4.28
7.15
8.38
8.48
8.38
8.69
8.98
7.81
3.19
-6.92
-24.26
-50.18
-85.34
-128.90
-177.68
-225.62
-264.75
-287.30
-288.45
-268.17
-231.20
-184.88
-136.27
-89.74
-46.66
-6.69
30.24
62.70
88.19
104.47
111.22
110.42
105.61
100.22
96.15
93.05
88.89
81.36
69.25
53.26
35.71
19.46
6.46
-3.12
-10.77
-18.69
-28.47
-40.27
-52.90
-64.69
-74.53
-82.42
-89.34
-96.54
-104.82
-114.16
-123.83
-132.79
-139.96
-144.34
-145.03
-141.43
-133.42
-121.62
-107.26
-91.84
-76.56
-62.02
-48.18
-34.76
-21.66
-9.30
1.43
9.57
14.52
16.29
15.59
13.57
11.55
10.82
12.47
17.23
25.22
35.78
47.33
57.75
65.04
68.11
67.33
64.46
61.86
61.40
63.48
66.64
67.93
64.07
52.80
34.03
10.21
-14.18
-34.01
-45.10
-45.49
-35.93
-19.41
-0.03
18.20
32.17
40.08
41.36
36.41
26.30
12.47
-3.50
-20.07
-35.89
-49.89
-61.33
-69.90
-75.73
-79.20
-80.76
-80.68
-79.05
-75.81
-70.97
-64.73
-57.43
-49.38
-40.72
-31.48
-21.67
-11.61
-2.00
6.05
11.18
12.05
7.77
-1.58
-14.60
-28.77
-41.21
-49.83
-54.24
-56.01
-58.04
-63.32
-73.82
-89.70
-109.35
-129.73
-147.01
-157.22
-156.97
-144.27
-119.25
-84.22
-43.27
-1.02
38.56
73.04
101.78
125.68
146.68
167.18
189.20
213.58
239.40
263.98
283.62
295.03
296.44
288.09
271.62
248.95
221.35
189.38
153.55
115.15
76.53
40.53
9.35
-16.34
-37.43
-55.58
-72.09
-87.23
-100.29
-110.16
-116.24
-118.65
-118.18
-115.64
-111.35
-105.14
-96.62
-85.88
-73.67
-61.40
-50.67
-42.54
-37.19
-34.00
-32.05
-30.56
-29.18
-27.69
-25.82
-23.09
-19.09
-14.03
-9.03
-5.93
-6.59
-12.01
-21.77
-34.26
-47.36
-59.40
-69.67
-78.36
-86.06
-93.25
-100.05
-106.49
-112.80
-119.46
-126.86
-134.90
-142.36
-147.12
-146.78
-139.64
-125.49
-105.85
-83.47
-61.29
-41.49
-24.98
-11.40
0.29
11.21
22.08
33.10
44.13
54.96
65.43
75.58
85.45
94.97
103.81
111.49
117.49
121.44
123.17
122.60
119.66
114.24
106.20
95.57
82.66
68.12
52.74
37.28
22.27
7.98
-5.51
-18.24
-30.22
-41.53
-52.21
-62.33
-71.94
-80.98
-89.20
-96.16
-101.22
-103.71
-103.07
-99.07
-91.89
-82.15
-70.70
-58.45
-46.14
-34.27
-23.16
-13.11
-4.50
2.26
6.88
9.33
9.95
9.33
8.05
6.61
5.25
4.09
3.24
2.86
3.16
4.26
6.18
8.79
11.94
15.45
19.17
22.91
26.31
28.95
30.48
30.70
29.68
27.70
25.07
21.94
18.30
14.01
8.99
3.33
-2.66
-8.61
-14.15
-19.09
-23.49
-27.60
-31.83
-36.65
-42.41
-49.28
-57.10
-65.23
-72.58
-77.76
-79.34
-76.28
-68.25
-55.81
-40.29
-23.47
-7.10
7.47
19.53
28.97
36.07
41.27
44.94
47.33
48.59
48.81
48.16
46.87
45.19
43.36
41.55
39.88
38.47
37.42
36.82
36.71
37.04
37.64
38.28
38.68
38.60
37.86
36.37
34.30
31.97
29.78
28.16
27.22
26.77
26.26
25.05
22.72
19.26
15.08
10.90
7.35
4.76
3.08
1.92
0.74
-0.94
-3.52
-7.29
-12.41
-18.83
-26.16
-33.50
-39.57
-42.89
-42.29
-37.28
-28.34
-16.73
-4.17
7.68
17.70
25.38
30.77
34.26
36.30
37.25
37.36
36.80
35.72
34.23
32.47
30.59
28.79
27.28
26.29
25.93
26.21
26.99
28.03
29.14
30.14
30.83
31.05
30.58
29.24
26.99
24.00
20.61
17.18
13.92
10.79
7.55
3.89
-0.30
-4.88
-9.48
-13.68
-17.24
-20.18
-22.76
-25.38
-28.44
-32.18
-36.64
-41.60
-46.57
-50.77
-53.24
-53.06
-49.61
-42.82
-33.20
-21.78
-9.75
1.76
11.94
20.29
26.60
30.87
33.25
33.98
33.38
31.85
29.75
27.41
25.09
22.97
21.19
19.83
18.90
18.45
18.53
19.20
20.45
22.16
24.01
25.54
26.20
25.60
23.67
20.66
17.08
13.45
10.14
7.22
4.52
1.70
-1.54
-5.35
-9.66
-14.23
-18.73
-22.84
-26.41
-29.43
-32.10
-34.77
-37.91
-41.95
-47.03
-52.78
-58.22
-61.92
-62.37
-58.54
-50.23
-38.28
-24.27
-10.00
2.98
13.77
22.11
28.22
32.47
35.19
36.63
36.88
36.10
34.46
32.22
29.76
27.45
25.57
24.26
23.55
23.35
23.62
24.31
25.42
26.83
28.36
29.71
30.57
30.72
30.10
28.82
27.08
25.14
23.21
21.38
19.65
17.83
15.74
13.20
10.21
6.98
3.91
1.42
-0.20
-0.96
-1.15
-1.30
-2.07
-3.99
-7.26
-11.54
-15.87
-18.79
-18.73
-14.50
-5.74
6.81
21.47
36.08
48.59
57.50
62.14
62.57
59.29
53.04
44.59
34.68
24.09
13.66
4.22
-3.56
-9.27
-12.96
-14.98
-15.93
-16.31
-16.42
-16.25
-15.54
-14.06
-11.80
-9.04
-6.35
-4.39
-3.67
-4.36
-6.23
-8.71
-11.19
-13.18
-14.53
-15.44
-16.31
-17.57
-19.46
-22.02
-25.04
-28.18
-31.12
-33.66
-35.75
-37.51
-39.20
-41.21
-44.01
-47.95
-53.09
-58.93
-64.39
-67.99
-68.27
-64.33
-56.15
-44.62
-31.26
-17.68
-5.16
5.54
14.15
20.64
25.10
27.62
28.38
27.63
25.76
23.19
20.35
17.63
15.33
13.69
12.81
12.72
13.31
14.45
15.91
17.46
18.87
19.93
20.47
20.38
19.61
18.11
15.89
12.96
9.32
4.99
0.06
-5.28
-10.74
-16.00
-20.74
-24.76
-28.11
-31.05
-34.05
-37.63
-42.27
-48.12
-54.94
-62.03
-68.31
-72.51
-73.51
-70.68
-64.12
-54.69
-43.79
-32.97
-23.57
-16.50
-12.16
-10.63
-11.77
-15.41
-21.30
-29.06
-38.13
-47.76
-57.13
-65.59
-72.88
-79.35
-85.97
-94.01
-104.35
-116.75
-129.47
-139.48
-143.58
-139.80
-128.52
-112.50
-95.80
-82.06
-73.01
-68.14
-65.61
-63.50
-60.93
-58.01
-55.16
-52.68
-51.07
-51.78
-57.67
-72.09
-96.85
-130.16
-166.23
-196.88
-214.87
-216.78
-204.14
-182.00
-156.17
-130.60
-106.50
-83.04
-59.06
-34.24
-9.19
15.23
38.82
62.41
87.48
115.32
146.21
179.12
212.04
242.94
270.55
294.78
316.46
336.54
355.18
371.43
383.36
388.90
386.76
376.93
360.68
339.98
316.78
292.52
268.09
244.07
220.96
199.19
178.87
159.52
140.10
119.36
96.54
71.96
47.00
23.69
3.89
-11.35
-21.85
-28.12
-30.87
-30.76
-28.45
-24.71
-20.47
-16.62
-13.83
-12.26
-11.65
-11.51
-11.40
-11.11
-10.69
-10.38
-10.47
-11.14
-12.42
-14.18
-16.25
-18.50
-20.91
-23.56
-26.52
-29.75
-32.96
-35.77
-37.67
-38.30
-37.46
-35.21
-31.84
-27.85
-23.87
-20.46
-18.00
-16.56
-15.96
-15.82
-15.76
-15.51
-14.95
-14.20
-13.43
-12.89
-12.76
-13.08
-13.72
-14.41
-14.89
-15.06
-15.07
-15.37
-16.48
-18.84
-22.61
-27.51
-32.91
-37.92
-41.62
-43.28
-42.51
-39.37
-34.24
-27.71
-20.36
-12.60
-4.60
3.54
11.60
18.97
24.72
27.80
27.47
23.65
17.10
9.23
1.73
-3.94
-6.94
-7.15
-5.12
-1.73
2.09
5.61
8.37
10.10
10.60
9.53
6.51
1.31
-5.83
-14.09
-22.24
-29.05
-33.76
-36.41
-37.63
-38.33
-39.19
-40.39
-41.70
-42.73
-43.38
-43.94
-45.03
-47.16
-50.32
-53.81
-56.31
-56.34
-52.84
-45.58
-35.33
-23.44
-11.43
-0.39
9.13
17.12
23.75
29.16
33.29
35.93
36.97
36.47
34.79
32.41
29.82
27.32
24.97
22.66
20.25
17.77
15.54
14.04
13.73
14.86
17.33
20.69
24.31
27.54
29.79
30.69
30.07
27.97
24.65
20.42
15.58
10.32
4.66
-1.44
-7.96
-14.73
-21.45
-27.82
-33.71
-39.18
-44.45
-49.78
-55.27
-60.65
-65.31
-68.25
-68.42
-64.94
-57.53
-46.63
-33.43
-19.55
-6.59
4.30
12.61
18.45
22.30
24.68
25.93
26.25
25.73
24.47
22.70
20.68
18.69
16.89
15.34
13.98
12.77
11.63
10.54
9.43
8.28
6.99
5.54
3.92
2.12
0.17
-1.98
-4.36
-7.05
-9.97
-13.01
-16.00
-18.83
-21.50
-24.04
-26.53
-29.02
-31.58
-34.37
-37.60
-41.46
-45.92
-50.53
-54.32
-56.04
-54.49
-48.97
-39.61
-27.38
-13.77
-0.41
11.36
20.75
27.44
31.47
32.98
32.12
29.08
24.13
17.74
10.53
3.20
-3.56
-9.16
-13.01
-14.49
-13.07
-8.47
-0.98
8.46
18.41
27.35
34.11
38.15
39.52
38.67
36.10
32.30
27.62
22.35
16.69
10.80
4.86
-0.79
-5.54
-8.63
-9.48
-8.21
-5.80
-3.85
-3.86
-6.63
-11.76
-17.94
-23.43
-26.63
-26.39
-22.02
-13.12
0.39
18.23
39.56
62.99
86.82
109.31
128.92
144.48
155.17
160.62
161.04
157.25
150.51
142.16
133.17
123.93
114.34
104.07
92.99
81.26
69.34
57.71
46.75
36.62
27.38
19.05
11.72
5.60
1.08
-1.26
-0.67
3.52
11.69
23.80
39.31
57.28
76.42
95.06
111.01
121.77
124.91
118.80
103.29
80.08
52.20
23.05
-4.74
-30.04
-53.11
-74.84
-95.86
-116.00
-134.52
-150.70
-164.37
-175.97
-186.01
-194.30
-199.64
-200.17
-194.29
-181.59
-163.26
-141.74
-119.89
-100.08
-83.60
-70.77
-61.13
-54.00
-48.71
-44.78
-41.88
-39.77
-38.26
-37.19
-36.46
-36.07
-36.12
-36.82
-38.35
-40.69
-43.57
-46.47
-48.77
-50.04
-50.17
-49.41
-48.33
-47.52
-47.47
-48.48
-50.56
-53.52
-56.99
-60.41
-63.06
-64.25
-63.38
-60.20
-54.91
-48.14
-40.73
-33.48
-26.90
-21.16
-16.18
-11.87
-8.36
-6.12
-5.91
-8.60
-14.85
-24.91
-38.37
-54.07
-70.15
-84.30
-94.34
-98.81
-97.46
-91.34
-82.42
-72.87
-64.47
-58.07
-53.71
-50.90
-49.02
-47.56
-46.40
-45.78
-46.32
-48.87
-54.13
-62.26
-72.54
-83.41
-92.94
-99.58
-102.84
-103.29
-102.16
-100.54
-98.79
-96.35
-92.16
-85.12
-74.44
-59.80
-41.27
-19.32
5.24
31.30
57.64
83.26
107.64
130.72
152.60
172.97
190.85
204.70
212.98
214.85
210.47
200.96
188.02
173.50
159.21
146.77
137.51
132.22
130.75
131.84
133.31
132.71
128.14
119.04
106.34
92.16
79.06
69.37
64.54
65.02
70.32
79.32
90.59
102.68
114.32
124.55
132.67
138.21
140.87
140.52
137.22
131.19
122.78
112.35
100.26
86.87
72.58
57.91
43.52
30.14
18.46
8.95
1.77
-3.30
-6.86
-9.71
-12.71
-16.40
-20.92
-25.99
-30.96
-35.11
-37.86
-38.87
-38.15
-36.12
-33.57
-31.49
-30.84
-32.15
-35.25
-39.30
-43.12
-45.66
-46.46
-45.76
-44.31
-42.93
-42.21
-42.33
-43.13
-44.32
-45.64
-46.87
-47.90
-48.68
-49.16
-49.35
-49.25
-48.86
-48.19
-47.32
-46.40
-45.61
-45.03
-44.66
-44.39
-44.09
-43.78
-43.52
-43.34
-43.08
-42.36
-40.67
-37.60
-33.01
-27.19
-20.71
-14.22
-8.26
-3.13
1.06
4.29
6.58
7.84
8.06
7.28
5.76
3.92
2.24
1.10
0.60
0.57
0.68
0.67
0.45
0.18
0.12
0.44
1.12
1.93
2.58
2.84
2.62
1.95
0.93
-0.36
-1.92
-3.76
-5.88
-8.17
-10.47
-12.58
-14.43
-16.04
-17.63
-19.46
-21.80
-24.71
-28.08
-31.54
-34.49
-36.32
-36.45
-34.53
-30.55
-24.82
-17.95
-10.68
-3.69
2.44
7.37
10.96
13.23
14.39
14.75
14.65
14.36
14.05
13.73
13.32
12.73
11.94
11.04
10.20
9.59
9.34
9.50
10.00
10.69
11.37
11.79
11.73
11.04
9.70
7.83
5.64
3.36
1.12
-1.03
-3.16
-5.30
-7.46
-9.58
-11.62
-13.59
-15.55
-17.64
-19.95
-22.53
-25.35
-28.25
-30.96
-33.05
-34.02
-33.39
-30.91
-26.62
-20.95
-14.51
-7.98
-1.84
3.59
8.19
11.86
14.51
16.04
16.44
15.85
14.57
13.04
11.68
10.73
10.25
10.15
10.20
10.24
10.18
10.11
10.17
10.48
11.06
11.81
12.53
12.97
12.96
12.43
11.38
9.90
8.11
6.09
3.90
1.54
-0.98
-3.63
-6.40
-9.19
-11.94
-14.55
-17.00
-19.31
-21.56
-23.89
-26.45
-29.40
-32.73
-36.24
-39.50
-41.85
-42.57
-41.09
-37.22
-31.22
-23.79
-15.86
-8.27
-1.63
3.83
8.15
11.51
14.01
15.72
16.59
16.65
16.01
14.88
13.53
12.20
11.07
10.22
9.72
9.56
9.76
10.30
11.13
12.12
13.06
13.72
13.87
13.40
12.37
10.92
9.29
7.71
6.26
4.93
3.65
2.26
0.61
-1.42
-3.91
-6.84
-10.11
-13.42
-16.45
-18.86
-20.54
-21.62
-22.51
-23.71
-25.67
-28.50
-31.88
-35.11
-37.27
-37.53
-35.46
-31.18
-25.31
-18.71
-12.18
-6.23
-1.01
3.51
7.36
10.45
12.55
13.50
13.35
12.44
11.33
10.47
10.12
10.20
10.43
10.53
10.40
10.19
10.19
10.67
11.70
13.14
14.61
15.71
16.10
15.66
14.46
12.75
10.87
9.10
7.54
6.09
4.48
2.40
-0.37
-3.84
-7.80
-11.87
-15.62
-18.69
-20.84
-22.08
-22.70
-23.24
-24.41
-26.78
-30.57
-35.43
-40.51
-44.65
-46.72
-45.95
-42.12
-35.56
-27.03
-17.49
-7.92
0.87
8.33
14.12
18.16
20.52
21.43
21.21
20.22
18.81
17.23
15.64
14.05
12.49
11.00
9.74
8.94
8.81
9.48
10.85
12.66
14.50
15.97
16.76
16.75
15.99
14.63
12.91
10.99
8.98
6.86
4.60
2.13
-0.59
-3.48
-6.41
-9.24
-11.90
-14.44
-16.99
-19.77
-22.99
-26.78
-31.10
-35.66
-39.85
-42.80
-43.56
-41.39
-36.02
-27.88
-17.93
-7.43
2.46
10.94
17.63
22.56
25.88
27.81
28.51
28.11
26.80
24.85
22.55
20.19
18.06
16.30
15.08
14.45
14.45
15.04
16.02
17.17
18.17
18.79
18.88
18.39
17.35
15.85
13.90
11.53
8.77
5.67
2.32
-1.21
-4.82
-8.43
-11.96
-15.28
-18.39
-21.40
-24.57
-28.27
-32.72
-37.84
-43.04
-47.36
-49.64
-48.91
-44.77
-37.51
-28.04
-17.49
-6.99
2.68
11.03
17.83
22.95
26.31
28.01
28.32
27.70
26.63
25.48
24.36
23.23
22.04
20.80
19.77
19.26
19.62
20.97
23.19
25.90
28.57
30.65
31.71
31.63
30.56
28.93
27.22
25.78
24.62
23.40
21.62
18.87
15.09
10.64
6.19
2.44
-0.29
-2.10
-3.56
-5.52
-8.79
-13.96
-21.23
-30.23
-39.91
-48.60
-54.28
-55.16
-50.37
-40.50
-27.64
-14.90
-5.46
-1.59
-4.15
-12.58
-25.34
-40.59
-56.45
-71.11
-82.73
-89.47
-89.78
-82.88
-69.11
-50.08
-28.27
-6.33
13.57
30.20
43.29
53.27
60.78
66.39
70.40
72.85
73.66
72.85
70.58
67.21
63.15
58.66
53.75
48.24
41.87
34.56
26.54
18.31
10.50
3.60
-2.27
-7.33
-12.11
-17.23
-23.21
-30.35
-38.62
-47.55
-56.23
-63.31
-67.31
-66.93
-61.56
-51.47
-37.82
-22.34
-6.83
7.25
19.02
28.21
34.91
39.40
42.00
43.06
42.95
42.10
40.89
39.62
38.42
37.31
36.21
35.14
34.21
33.63
33.62
34.26
35.37
36.56
37.33
37.26
36.10
33.92
30.92
27.41
23.55
19.36
14.73
9.51
3.69
-2.56
-8.92
-14.98
-20.37
-24.92
-28.66
-31.84
-34.85
-38.09
-41.92
-46.35
-51.04
-55.13
-57.43
-56.76
-52.27
-43.89
-32.40
-19.24
-6.08
5.65
15.05
21.86
26.32
28.88
29.98
29.94
28.92
27.07
24.60
21.89
19.44
17.71
16.98
17.30
18.49
20.26
22.35
24.58
26.84
28.98
30.74
31.77
31.71
30.39
27.89
24.57
20.90
17.30
13.96
10.77
7.42
3.65
-0.60
-5.08
-9.31
-12.84
-15.40
-17.09
-18.32
-19.67
-21.74
-25.01
-29.62
-35.39
-41.63
-47.25
-50.89
-51.31
-47.75
-40.23
-29.61
-17.32
-4.93
6.24
15.45
22.52
27.68
31.30
33.64
34.80
34.77
33.59
31.45
28.75
26.05
23.83
22.43
21.95
22.28
23.15
24.24
25.20
25.76
25.74
25.12
24.02
22.60
21.01
19.32
17.51
15.54
13.42
11.27
9.25
7.47
5.90
4.39
2.70
0.67
-1.73
-4.38
-7.05
-9.55
-11.85
-14.03
-16.34
-19.04
-22.32
-26.28
-30.93
-36.16
-41.68
-46.97
-51.21
-53.39
-52.62
-48.37
-40.79
-30.64
-19.14
-7.60
2.86
11.52
18.06
22.46
24.95
25.87
25.68
24.78
23.54
22.19
20.87
19.67
18.71
18.13
18.04
18.53
19.58
21.08
22.90
24.84
26.70
28.20
29.08
29.12
28.23
26.54
24.32
21.91
19.61
17.57
15.73
13.90
11.86
9.54
7.01
4.48
2.17
0.18
-1.54
-3.22
-5.09
-7.31
-9.87
-12.61
-15.40
-18.13
-20.83
-23.59
-26.59
-30.00
-33.91
-38.26
-42.65
-46.38
-48.49
-48.09
-44.61
-38.08
-29.16
-18.97
-8.74
0.47
7.99
13.58
17.31
19.47
20.39
20.44
19.92
19.01
17.92
16.73
15.55
14.48
13.61
13.09
13.08
13.67
14.93
16.75
18.89
21.01
22.77
23.95
24.44
24.28
23.54
22.30
20.69
18.80
16.85
15.01
13.44
12.13
10.93
9.58
7.85
5.68
3.22
0.84
-1.07
-2.26
-2.79
-3.01
-3.46
-4.60
-6.60
-9.30
-12.24
-14.96
-17.17
-18.87
-20.30
-21.78
-23.63
-26.02
-29.01
-32.49
-36.13
-39.26
-41.01
-40.52
-37.27
-31.35
-23.50
-14.88
-6.65
0.40
5.95
10.09
13.03
14.94
15.89
15.93
15.20
13.96
12.52
11.16
9.99
9.04
8.27
7.71
7.47
7.68
8.43
9.66
11.20
12.76
14.06
14.89
15.14
14.78
13.96
12.86
11.75
10.83
10.16
9.61
8.94
7.88
6.33
4.46
2.55
0.92
-0.33
-1.32
-2.35
-3.67
-5.41
-7.48
-9.61
-11.54
-13.10
-14.27
-15.21
-16.13
-17.31
-18.98
-21.25
-24.04
-26.97
-29.41
-30.60
-29.88
-26.94
-21.99
-15.69
-8.95
-2.63
2.67
6.73
9.57
11.37
12.31
12.58
12.37
11.89
11.34
10.83
10.36
9.89
9.34
8.74
8.17
7.74
7.55
7.61
7.86
8.23
8.60
8.92
9.10
9.07
8.74
8.01
6.87
5.35
3.60
1.77
-0.01
-1.66
-3.18
-4.64
-6.05
-7.42
-8.67
-9.77
-10.70
-11.53
-12.35
-13.26
-14.29
-15.42
-16.62
-17.92
-19.44
-21.31
-23.62
-26.21
-28.70
-30.47
-30.89
-29.49
-26.14
-21.13
-15.03
-8.52
-2.24
3.35
7.96
11.36
13.46
14.27
13.96
12.85
11.35
9.83
8.54
7.55
6.80
6.17
5.60
5.14
4.94
5.16
5.86
6.97
8.27
9.45
10.21
10.40
9.98
9.06
7.76
6.18
4.36
2.35
0.24
-1.78
-3.50
-4.84
-5.84
-6.78
-7.86
-9.26
-10.88
-12.48
-13.80
-14.74
-15.41
-16.08
-17.02
-18.40
-20.23
-22.37
-24.61
-26.64
-28.10
-28.50
-27.42
-24.63
-20.21
-14.65
-8.67
-3.07
1.60
5.07
7.41
8.88
9.74
10.21
10.36
10.20
9.73
9.00
8.13
7.29
6.62
6.21
6.09
6.24
6.70
7.48
8.57
9.87
11.14
12.11
12.52
12.23
11.26
9.83
8.24
6.75
5.50
4.44
3.35
2.01
0.31
-1.69
-3.71
-5.50
-6.85
-7.79
-8.49
-9.21
-10.07
-11.08
-12.22
-13.48
-15.04
-17.09
-19.70
-22.67
-25.43
-27.24
-27.39
-25.53
-21.79
-16.78
-11.30
-6.14
-1.80
1.52
3.95
5.71
7.04
8.10
8.92
9.48
9.69
9.49
8.95
8.17
7.37
6.77
6.57
6.87
7.63
8.75
10.03
11.28
12.35
13.10
13.44
13.28
12.62
11.42
9.74
7.72
5.55
3.45
1.54
-0.15
-1.69
-3.24
-4.85
-6.50
-8.06
-9.39
-10.44
-11.25
-11.98
-12.77
-13.73
-14.90
-16.31
-18.00
-20.10
-22.70
-25.79
-29.14
-32.28
-34.54
-35.28
-34.08
-30.88
-26.03
-20.18
-14.11
-8.48
-3.74
-0.03
2.70
4.61
5.84
6.44
6.41
5.81
4.80
3.61
2.50
1.58
0.86
0.26
-0.28
-0.68
-0.77
-0.37
0.63
2.14
3.94
5.75
7.35
8.61
9.53
10.17
10.63
11.01
11.38
11.73
11.94
11.83
11.20
9.93
8.02
5.63
2.93
0.16
-2.57
-5.24
-7.95
-10.86
-14.03
-17.38
-20.54
-23.04
-24.34
-24.11
-22.26
-18.98
-14.71
-9.89
-4.99
-0.38
3.62
6.78
9.03
10.39
11.04
11.20
11.10
10.82
10.42
9.91
9.39
9.01
8.88
9.09
9.60
10.28
10.99
11.66
12.25
12.75
13.11
13.16
12.75
11.77
10.23
8.31
6.31
4.50
3.03
1.87
0.85
-0.24
-1.55
-3.15
-4.94
-6.82
-8.67
-10.42
-12.05
-13.60
-15.14
-16.76
-18.64
-20.93
-23.81
-27.28
-31.04
-34.52
-36.93
-37.54
-35.89
-32.00
-26.33
-19.63
-12.70
-6.22
-0.64
3.81
7.10
9.38
10.83
11.66
12.04
12.02
11.65
11.01
10.27
9.69
9.47
9.74
10.43
11.39
12.53
13.85
15.42
17.26
19.23
20.99
22.13
22.34
21.59
20.09
18.24
16.42
14.85
13.48
12.14
10.62
8.83
6.84
4.82
2.95
1.28
-0.26
-1.90
-3.87
-6.32
-9.18
-12.26
-15.31
-18.18
-20.91
-23.68
-26.80
-30.41
-34.44
-38.47
-41.75
-43.47
-42.93
-39.88
-34.53
-27.53
-19.77
-12.15
-5.34
0.25
4.49
7.49
9.44
10.59
11.19
11.44
11.50
11.50
11.51
11.59
11.86
12.42
13.37
14.72
16.41
18.36
20.41
22.43
24.25
25.72
26.66
26.94
26.53
25.49
23.99
22.22
20.36
18.51
16.67
14.75
12.70
10.50
8.26
6.20
4.52
3.32
2.50
1.79
0.78
-0.82
-3.06
-5.75
-8.54
-11.10
-13.32
-15.30
-17.31
-19.62
-22.40
-25.70
-29.46
-33.43
-37.12
-39.73
-40.43
-38.51
-33.80
-26.79
-18.51
-10.22
-2.94
2.81
7.04
10.09
12.34
14.02
15.20
15.84
15.96
15.61
14.93
14.07
13.20
12.45
11.96
11.86
12.28
13.26
14.77
16.66
18.65
20.38
21.51
21.79
21.17
19.80
18.03
16.23
14.71
13.58
12.76
12.04
11.20
10.04
8.49
6.54
4.21
1.57
-1.28
-4.16
-6.90
-9.36
-11.56
-13.67
-15.95
-18.67
-21.93
-25.52
-28.93
-31.44
-32.26
-30.83
-26.95
-20.93
-13.49
-5.62
1.72
7.79
12.26
15.12
16.65
17.26
17.31
17.04
16.53
15.72
14.51
12.95
11.26
9.78
8.93
8.94
9.78
11.12
12.48
13.38
13.57
13.04
12.06
10.92
9.83
8.80
7.60
5.89
3.37
0.02
-3.91
-7.87
-11.18
-13.45
-14.61
-15.07
-15.53
-16.71
-19.16
-23.05
-28.03
-33.08
-36.50
-36.03
-29.62
-16.30
2.94
25.07
45.93
61.68
70.28
71.99
68.84
63.33
57.24
51.21
45.07
38.66
32.35
26.96
23.22
21.29
20.51
19.78
18.11
15.06
10.83
6.12
1.75
-1.66
-3.80
-4.74
-4.74
-4.17
-3.35
-2.52
-1.74
-1.03
-0.35
0.29
0.83
1.10
0.93
0.17
-1.14
-2.82
-4.55
-6.07
-7.18
-7.91
-8.41
-8.90
-9.49
-10.24
-11.10
-12.05
-13.11
-14.35
-15.82
-17.48
-19.21
-20.81
-22.11
-23.11
-23.97
-24.98
-26.43
-28.52
-31.12
-33.81
-35.84
-36.41
-34.88
-31.06
-25.29
-18.33
-11.12
-4.46
1.17
5.63
8.99
11.37
12.88
13.58
13.60
13.14
12.50
11.94
11.66
11.72
12.13
12.82
13.72
14.76
15.84
16.89
17.88
18.78
19.59
20.21
20.47
20.15
19.09
17.26
14.87
12.27
9.78
7.61
5.74
3.95
1.99
-0.22
-2.62
-4.96
-6.99
-8.60
-9.83
-10.82
-11.77
-12.83
-14.12
-15.78
-17.91
-20.51
-23.37
-26.03
-27.80
-28.01
-26.22
-22.39
-16.93
-10.51
-3.92
2.15
7.20
10.93
13.27
14.29
14.25
13.51
12.45
11.34
10.26
9.13
7.81
6.29
4.76
3.61
3.24
3.85
5.28
7.02
8.36
8.66
7.65
5.57
3.03
0.81
-0.52
-0.92
-0.90
-1.38
-3.21
-6.80
-11.84
-17.35
-22.10
-25.09
-26.00
-25.29
-24.07
-23.72
-25.55
-30.42
-38.26
-47.65
-55.59
-57.82
-50.14
-29.98
2.08
41.95
83.04
118.30
142.47
153.47
152.37
142.21
126.32
107.20
86.29
64.51
42.96
23.29
7.40
-3.36
-8.76
-9.96
-9.09
-8.39
-9.29
-11.93
-15.34
-18.06
-19.03
-18.07
-15.85
-13.57
-12.25
-12.35
-13.64
-15.42
-16.94
-17.77
-17.98
-18.00
-18.39
-19.43
-21.01
-22.72
-24.04
-24.65
-24.55
-24.05
-23.60
-23.59
-24.18
-25.27
-26.55
-27.65
-28.28
-28.32
-27.90
-27.31
-26.96
-27.23
-28.34
-30.23
-32.48
-34.43
-35.27
-34.30
-31.14
-25.90
-19.15
-11.77
-4.64
1.55
6.42
9.92
12.21
13.53
14.17
14.41
14.52
14.67
14.97
15.38
15.80
16.17
16.48
16.79
17.18
17.67
18.23
18.80
19.35
19.84
20.22
20.34
20.02
19.01
17.21
14.69
11.71
8.70
6.02
3.89
2.25
0.85
-0.65
-2.47
-4.64
-6.95
-9.08
-10.76
-11.82
-12.35
-12.59
-12.86
-13.49
-14.77
-16.86
-19.70
-22.93
-25.90
-27.75
-27.72
-25.42
-20.99
-15.05
-8.52
-2.28
3.04
7.14
10.01
11.79
12.72
13.04
12.97
12.71
12.38
12.04
11.69
11.34
11.02
10.78
10.64
10.59
10.61
10.67
10.85
11.24
11.85
12.56
13.06
12.97
12.03
10.30
8.17
6.19
4.86
4.24
3.95
3.27
1.53
-1.51
-5.47
-9.45
-12.32
-13.00
-10.86
-5.88
1.17
8.84
15.30
18.76
18.07
13.18
5.21
-3.89
-12.00
-17.51
-19.72
-18.84
-15.74
-11.48
-6.99
-2.95
0.25
2.39
3.29
2.82
0.90
-2.49
-7.09
-12.42
-17.76
-22.33
-25.47
-26.79
-26.27
-24.16
-20.91
-17.01
-12.84
-8.73
-4.93
-1.67
0.81
2.23
2.48
1.61
-0.03
-1.90
-3.50
-4.44
-4.63
-4.26
-3.61
-2.92
-2.30
-1.68
-0.97
-0.12
0.82
1.64
2.13
2.05
1.22
-0.46
-3.05
-6.45
-10.39
-14.37
-17.72
-19.73
-19.88
-17.99
-14.36
-9.66
-4.67
-0.06
3.81
6.90
9.33
11.22
12.58
13.36
13.53
13.19
12.59
11.98
11.56
11.38
11.40
11.52
11.72
12.01
12.42
12.90
13.43
13.88
14.18
14.26
14.09
13.67
12.99
12.00
10.69
9.04
7.12
5.05
3.00
1.16
-0.30
-1.35
-2.05
-2.63
-3.34
-4.35
-5.68
-7.16
-8.55
-9.64
-10.44
-11.13
-12.03
-13.43
-15.47
-18.08
-21.00
-23.87
-26.29
-27.84
-28.17
-27.06
-24.48
-20.66
-16.03
-11.15
-6.53
-2.49
0.79
3.37
5.36
6.90
8.13
9.12
9.88
10.35
10.47
10.23
9.71
9.09
8.59
8.39
8.58
9.19
10.16
11.41
12.84
14.27
15.43
16.03
15.77
14.50
12.32
9.56
6.74
4.30
2.44
1.01
-0.36
-2.07
-4.28
-6.74
-8.96
-10.42
-10.87
-10.52
-10.00
-10.08
-11.41
-14.24
-18.32
-22.90
-26.81
-28.67
-27.24
-21.89
-12.86
-1.43
10.38
20.43
27.04
29.58
28.43
24.80
20.09
15.56
11.98
9.73
8.88
9.36
11.01
13.49
16.21
18.44
19.44
18.71
16.25
12.57
8.51
5.01
2.67
1.63
1.52
1.69
1.43
0.27
-1.96
-5.05
-8.55
-11.91
-14.70
-16.74
-18.11
-19.03
-19.66
-19.97
-19.79
-18.86
-17.09
-14.59
-11.68
-8.72
-6.07
-3.91
-2.34
-1.39
-1.06
-1.34
-2.16
-3.45
-5.21
-7.52
-10.52
-14.30
-18.70
-23.30
-27.44
-30.40
-31.60
-30.69
-27.66
-22.73
-16.44
-9.44
-2.49
3.76
8.82
12.59
15.23
17.19
18.87
20.46
21.92
23.03
23.57
23.51
23.04
22.46
22.10
22.13
22.54
23.23
24.13
25.12
26.19
27.22
28.06
28.48
28.25
27.27
25.56
23.28
20.62
17.76
14.83
11.90
9.04
6.32
3.83
1.57
-0.51
-2.51
-4.56
-6.73
-9.00
-11.28
-13.48
-15.54
-17.49
-19.45
-21.57
-23.97
-26.69
-29.63
-32.59
-35.28
-37.34
-38.41
-38.11
-36.17
-32.46
-27.16
-20.74
-13.88
-7.31
-1.60
2.96
6.34
8.68
10.16
10.91
11.02
10.61
9.87
9.06
8.46
8.23
8.42
8.92
9.58
10.29
11.04
11.88
12.87
14.03
15.19
16.11
16.56
16.40
15.70
14.70
13.60
12.55
11.53
10.45
9.20
7.73
5.98
3.86
1.27
-1.88
-5.52
-9.41
-13.18
-16.48
-19.17
-21.36
-23.35
-25.48
-27.95
-30.83
-33.99
-37.19
-40.01
-41.91
-42.30
-40.67
-36.81
-30.90
-23.55
-15.57
-7.80
-0.87
4.89
9.37
12.66
14.91
16.25
16.84
16.81
16.32
15.56
14.69
13.91
13.38
13.19
13.33
13.74
14.33
15.07
15.95
17.01
18.24
19.52
20.61
21.20
21.04
20.06
18.39
16.30
14.14
12.16
10.44
8.93
7.39
5.61
3.42
0.83
-2.05
-5.04
-7.96
-10.77
-13.46
-16.07
-18.61
-21.14
-23.77
-26.69
-30.07
-33.88
-37.80
-41.14
-43.06
-42.83
-40.08
-34.93
-27.96
-20.02
-11.96
-4.44
2.08
7.40
11.42
14.13
15.65
16.19
16.10
15.77
15.53
15.52
15.66
15.76
15.67
15.34
14.95
14.77
15.04
15.88
17.21
18.77
20.25
21.37
21.96
22.02
21.64
20.96
20.05
18.90
17.41
15.51
13.23
10.72
8.21
5.80
3.49
1.09
-1.62
-4.76
-8.28
-11.95
-15.53
-18.77
-21.60
-24.06
-26.38
-28.87
-31.85
-35.46
-39.58
-43.65
-46.76
-47.90
-46.29
-41.72
-34.61
-25.90
-16.71
-8.00
-0.37
5.91
10.77
14.22
16.29
17.11
16.96
16.25
15.47
14.95
14.80
14.99
15.36
15.90
16.70
17.98
19.84
22.18
24.67
26.88
28.40
29.08
28.98
28.34
27.32
25.99
24.22
21.94
19.20
16.20
13.22
10.50
8.09
5.88
3.71
1.48
-0.81
-3.06
-5.20
-7.21
-9.17
-11.20
-13.36
-15.63
-17.92
-20.16
-22.36
-24.65
-27.31
-30.62
-34.72
-39.39
-43.94
-47.32
-48.46
-46.60
-41.66
-34.21
-25.30
-16.07
-7.44
-0.00
5.96
10.38
13.29
14.88
15.45
15.40
15.16
15.01
15.03
15.18
15.32
15.40
15.49
15.77
16.43
17.57
19.20
21.15
23.20
25.06
26.44
27.08
26.87
25.80
24.01
21.70
19.10
16.38
13.71
11.17
8.78
6.53
4.35
2.13
-0.21
-2.67
-5.17
-7.52
-9.58
-11.26
-12.60
-13.78
-15.03
-16.65
-18.89
-21.94
-25.87
-30.47
-35.20
-39.17
-41.29
-40.57
-36.47
-29.18
-19.60
-9.09
0.94
9.45
16.00
20.60
23.56
25.21
25.77
25.37
24.17
22.41
20.38
18.41
16.76
15.63
15.11
15.25
16.02
17.26
18.75
20.23
21.53
22.59
23.41
23.97
24.15
23.72
22.51
20.51
17.90
15.03
12.17
9.45
6.75
3.88
0.73
-2.63
-5.97
-9.09
-11.88
-14.44
-16.86
-19.19
-21.37
-23.37
-25.32
-27.61
-30.74
-35.00
-40.17
-45.35
-49.17
-50.22
-47.59
-41.21
-31.91
-21.09
-10.26
-0.53
7.54
13.93
18.88
22.66
25.31
26.85
27.27
26.79
25.78
24.67
23.78
23.24
23.01
22.99
23.11
23.39
23.91
24.80
26.12
27.90
30.01
32.15
33.86
34.56
33.81
31.55
28.16
24.36
20.97
18.64
17.61
17.75
18.63
19.55
19.73
18.47
15.74
12.74
12.21
17.96
33.51
60.42
97.13
138.96
179.30
211.57
230.89
234.97
224.20
201.14
169.75
134.83
101.32
73.47
53.88
42.77
37.99
35.70
31.81
23.33
9.22
-9.53
-30.44
-50.54
-67.22
-78.84
-84.85
-85.67
-82.40
-76.61
-70.11
-64.64
-61.60
-61.71
-64.83
-70.09
-76.22
-81.87
-85.98
-87.97
-87.79
-85.83
-82.65
-78.75
-74.24
-68.92
-62.37
-54.43
-45.51
-36.61
-29.14
-24.33
-22.86
-24.79
-29.70
-37.02
-46.13
-56.43
-67.15
-77.48
-86.72
-94.47
-100.68
-105.40
-108.42
-109.09
-106.51
-99.94
-89.38
-75.70
-60.44
-45.23
-31.22
-18.83
-7.96
1.49
9.23
14.40
16.03
13.68
7.88
0.19
-7.56
-14.06
-19.18
-23.95
-29.82
-37.72
-47.45
-57.97
-68.01
-76.79
-84.16
-90.18
-94.46
-95.89
-92.83
-83.90
-68.65
-47.95
-23.78
1.34
25.05
45.68
62.36
75.01
84.14
90.69
95.80
100.68
106.41
113.52
121.80
129.96
135.87
137.02
131.55
119.06
100.95
79.92
59.09
41.04
27.24
17.97
12.67
10.31
9.70
9.69
9.27
7.67
4.46
-0.43
-6.84
-14.42
-22.80
-31.53
-40.08
-47.83
-54.18
-58.78
-61.65
-63.17
-63.98
-64.75
-65.97
-67.89
-70.37
-72.98
-75.18
-76.41
-76.44
-75.41
-73.98
-73.06
-73.48
-75.55
-78.69
-81.59
-82.51
-80.04
-73.60
-63.67
-51.55
-38.86
-27.07
-17.19
-9.70
-4.35
-0.03
5.23
13.99
28.48
49.57
76.02
104.46
130.44
149.97
160.83
163.07
158.42
149.04
136.53
121.67
104.81
86.61
68.55
52.64
40.73
33.70
30.99
30.85
31.02
29.65
25.90
20.05
13.15
6.47
0.94
-3.18
-6.19
-8.76
-11.55
-14.85
-18.51
-22.13
-25.30
-27.88
-30.11
-32.51
-35.60
-39.70
-44.73
-50.33
-55.93
-60.94
-64.79
-66.98
-66.99
-64.40
-58.92
-50.55
-39.72
-27.25
-14.19
-1.63
9.54
18.77
25.88
31.02
34.54
36.88
38.39
39.25
39.43
38.77
37.12
34.46
30.99
27.10
23.27
19.87
17.09
14.85
12.85
10.76
8.38
5.69
2.80
-0.09
-2.88
-5.56
-8.26
-11.13
-14.23
-17.47
-20.65
-23.54
-26.00
-28.07
-29.98
-32.07
-34.73
-38.20
-42.51
-47.32
-51.93
-55.30
-56.34
-54.16
-48.42
-39.49
-28.39
-16.49
-5.12
4.80
12.87
19.16
23.87
27.18
29.18
29.90
29.58
28.58
27.45
26.60
26.23
26.30
26.60
26.95
27.33
27.84
28.64
29.83
31.29
32.75
33.81
34.08
33.33
31.51
28.82
25.54
22.09
18.79
15.87
13.42
11.26
9.12
6.65
3.60
-0.08
-4.12
-8.12
-11.69
-14.66
-17.16
-19.58
-22.38
-25.91
-30.23
-35.01
-39.58
-42.95
-44.00
-41.81
-35.96
-26.86
-15.69
-4.12
6.19
14.20
19.63
22.94
24.81
25.83
26.28
26.19
25.55
24.51
23.33
22.29
21.54
21.04
20.74
20.59
20.69
21.21
22.28
23.87
25.75
27.53
28.85
29.38
28.98
27.72
25.86
23.78
21.84
20.30
19.14
18.13
16.86
14.97
12.30
9.00
5.50
2.34
-0.05
-1.58
-2.48
-3.22
-4.25
-5.85
-8.01
-10.57
-13.28
-15.99
-18.62
-21.22
-23.87
-26.69
-29.85
-33.49
-37.66
-42.12
-46.24
-49.04
-49.48
-46.79
-40.86
-32.30
-22.31
-12.21
-3.11
4.44
10.32
14.74
17.94
20.05
21.04
20.91
19.81
18.13
16.43
15.23
14.84
15.22
16.07
17.03
17.85
18.54
19.32
20.39
21.79
23.27
24.42
24.79
24.10
22.36
19.82
16.83
13.79
10.93
8.39
6.14
4.09
2.06
-0.09
-2.41
-4.89
-7.41
-9.78
-11.86
-13.62
-15.20
-16.88
-18.98
-21.77
-25.34
-29.58
-34.12
-38.37
-41.54
-42.79
-41.40
-37.00
-29.71
-20.24
-9.70
0.62
9.65
16.68
21.49
24.25
25.28
25.06
24.02
22.59
21.15
19.95
19.10
18.53
18.08
17.60
17.05
16.51
16.12
16.06
16.41
17.13
18.07
19.03
19.76
20.09
19.92
19.22
18.04
16.44
14.45
12.09
9.48
6.80
4.34
2.32
0.79
-0.41
-1.61
-3.10
-5.02
-7.27
-9.58
-11.71
-13.60
-15.37
-17.29
-19.65
-22.62
-26.26
-30.44
-34.86
-39.00
-42.16
-43.52
-42.36
-38.34
-31.69
-23.11
-13.71
-4.61
3.29
9.52
14.00
16.95
18.66
19.50
19.70
19.50
19.03
18.42
17.71
16.92
16.04
15.15
14.40
14.04
14.30
15.29
16.90
18.80
20.55
21.79
22.29
22.04
21.12
19.72
17.99
16.12
14.31
12.70
11.41
10.41
9.53
8.55
7.27
5.61
3.64
1.52
-0.57
-2.49
-4.24
-5.86
-7.46
-9.10
-10.84
-12.69
-14.63
-16.65
-18.78
-21.07
-23.54
-26.19
-28.98
-31.87
-34.89
-37.98
-41.00
-43.53
-44.93
-44.46
-41.57
-36.19
-28.77
-20.21
-11.55
-3.67
2.91
7.99
11.61
13.91
15.12
15.53
15.47
15.23
14.97
14.71
14.34
13.79
13.09
12.42
12.00
12.00
12.46
13.33
14.49
15.79
17.08
18.18
18.87
19.01
18.52
17.44
15.95
14.24
12.43
10.55
8.51
6.25
3.80
1.26
-1.11
-3.10
-4.61
-5.65
-6.41
-7.14
-8.08
-9.42
-11.16
-13.18
-15.29
-17.28
-19.07
-20.75
-22.54
-24.66
-27.16
-29.76
-31.86
-32.70
-31.63
-28.35
-23.04
-16.29
-8.97
-1.93
4.17
8.93
12.21
14.11
14.77
14.41
13.30
11.70
9.89
8.14
6.68
5.67
5.20
5.29
5.93
7.08
8.73
10.85
13.34
16.06
18.72
20.97
22.45
22.94
22.48
21.30
19.80
18.30
16.91
15.52
13.95
12.08
9.92
7.63
5.41
3.36
1.46
-0.38
-2.29
-4.36
-6.63
-9.13
-11.83
-14.63
-17.43
-20.11
-22.65
-25.16
-27.86
-30.96
-34.51
-38.29
-41.86
-44.56
-45.76
-44.94
-41.86
-36.58
-29.56
-21.45
-13.09
-5.24
1.56
7.02
11.13
14.00
15.83
16.79
17.06
16.83
16.29
15.60
14.86
14.06
13.18
12.26
11.40
10.82
10.71
11.10
11.90
12.81
13.52
13.77
13.45
12.69
11.73
10.83
10.07
9.40
8.54
7.28
5.55
3.53
1.60
0.09
-0.79
-1.16
-1.28
-1.46
-1.89
-2.55
-3.33
-4.15
-5.08
-6.28
-7.90
-10.04
-12.59
-15.38
-18.26
-21.26
-24.56
-28.38
-32.75
-37.34
-41.39
-43.90
-44.00
-41.25
-35.84
-28.49
-20.22
-12.03
-4.62
1.65
6.64
10.33
12.75
13.98
14.24
13.82
13.13
12.51
12.13
11.93
11.79
11.57
11.28
11.06
11.10
11.58
12.51
13.81
15.26
16.64
17.73
18.38
18.50
18.06
17.08
15.64
13.87
11.89
9.75
7.50
5.14
2.72
0.25
-2.19
-4.56
-6.83
-9.00
-11.08
-13.09
-15.07
-16.99
-18.81
-20.48
-22.00
-23.47
-25.13
-27.26
-30.03
-33.28
-36.49
-38.82
-39.38
-37.56
-33.23
-26.82
-19.17
-11.25
-3.92
2.25
7.05
10.55
12.98
14.57
15.50
15.86
15.67
14.98
13.93
12.71
11.55
10.64
10.12
10.06
10.48
11.34
12.58
14.05
15.58
16.94
17.89
18.25
17.89
16.78
15.03
12.87
10.56
8.44
6.70
5.41
4.42
3.45
2.15
0.28
-2.21
-5.10
-8.07
-10.74
-12.91
-14.60
-16.06
-17.68
-19.84
-22.78
-26.52
-30.81
-35.13
-38.76
-40.84
-40.64
-37.74
-32.26
-24.84
-16.47
-8.20
-0.86
5.12
9.62
12.78
14.73
15.60
15.51
14.66
13.34
11.88
10.60
9.67
9.20
9.17
9.53
10.22
11.16
12.28
13.52
14.81
16.09
17.25
18.16
18.69
18.73
18.28
17.41
16.26
14.92
13.45
11.79
9.91
7.77
5.45
3.02
0.59
-1.81
-4.22
-6.68
-9.21
-11.79
-14.40
-16.96
-19.48
-22.04
-24.76
-27.82
-31.37
-35.45
-39.92
-44.41
-48.26
-50.65
-50.72
-47.91
-42.11
-33.81
-23.97
-13.84
-4.57
3.05
8.73
12.65
15.25
17.02
18.33
19.32
19.98
20.23
20.08
19.67
19.30
19.36
20.16
21.95
24.75
28.29
32.05
35.25
37.11
37.10
35.27
32.32
29.51
28.11
28.95
31.98
36.20
40.04
41.95
40.95
36.91
30.59
23.16
15.80
9.37
4.16
0.03
-3.39
-6.51
-9.59
-12.70
-15.81
-18.92
-22.10
-25.51
-29.36
-33.74
-38.54
-43.43
-47.90
-51.28
-52.94
-52.35
-49.22
-43.60
-35.96
-27.11
-18.01
-9.65
-2.72
2.40
5.75
7.60
8.39
8.56
8.45
8.28
8.16
8.08
8.02
7.93
7.79
7.67
7.73
8.14
9.08
10.58
12.53
14.66
16.63
18.05
18.66
18.36
17.19
15.37
13.11
10.63
8.09
5.52
2.93
0.25
-2.52
-5.34
-8.10
-10.70
-13.05
-15.14
-17.09
-19.11
-21.53
-24.69
-28.78
-33.64
-38.71
-42.96
-45.19
-44.40
-40.12
-32.70
-23.13
-12.80
-3.01
5.33
11.88
16.69
20.03
22.23
23.54
24.14
24.23
23.98
23.57
23.12
22.73
22.51
22.56
22.99
23.79
24.93
26.25
27.61
28.93
30.12
31.11
31.69
31.58
30.46
28.23
25.08
21.48
18.07
15.35
13.47
12.16
10.82
8.75
5.39
0.56
-5.48
-12.11
-18.59
-24.25
-28.63
-31.64
-33.50
-34.70
-35.88
-37.61
-40.17
-43.31
-46.22
-47.69
-46.54
-42.09
-34.48
-24.60
-13.84
-3.53
5.45
12.76
18.50
22.87
26.03
28.02
28.86
28.64
27.66
26.33
25.08
24.24
23.93
24.13
24.70
25.54
26.58
27.83
29.24
30.66
31.85
32.52
32.48
31.65
30.11
28.02
25.50
22.59
19.29
15.65
11.81
8.05
4.61
1.65
-0.82
-2.99
-5.09
-7.30
-9.70
-12.23
-14.80
-17.33
-19.80
-22.20
-24.63
-27.27
-30.42
-34.39
-39.32
-44.91
-50.34
-54.34
-55.60
-53.15
-46.80
-37.14
-25.40
-12.99
-1.20
9.07
17.32
23.35
27.22
29.12
29.44
28.61
27.16
25.56
24.17
23.13
22.39
21.77
21.11
20.34
19.57
19.07
19.11
19.78
20.93
22.18
23.03
23.07
22.10
20.16
17.44
14.23
10.78
7.33
4.09
1.30
-0.88
-2.36
-3.21
-3.69
-4.16
-4.89
-5.95
-7.14
-8.07
-8.30
-7.55
-5.82
-3.52
-1.32
0.01
-0.16
-2.12
-5.73
-10.38
-15.09
-18.65
-19.87
-17.87
-12.40
-3.89
6.49
17.21
26.75
33.97
38.37
40.13
39.92
38.50
36.57
34.50
32.42
30.25
27.84
25.10
22.09
19.04
16.29
14.20
12.98
12.66
13.10
14.03
15.16
16.23
17.04
17.42
17.25
16.43
14.94
12.78
10.06
6.94
3.63
0.34
-2.78
-5.63
-8.16
-10.42
-12.46
-14.35
-16.15
-17.91
-19.62
-21.31
-22.97
-24.64
-26.33
-28.09
-29.99
-32.22
-35.00
-38.51
-42.78
-47.49
-51.93
-55.05
-55.77
-53.28
-47.36
-38.45
-27.56
-15.93
-4.79
4.94
12.73
18.35
21.90
23.63
23.97
23.37
22.31
21.16
20.18
19.45
18.97
18.70
18.64
18.85
19.43
20.45
21.90
23.62
25.33
26.72
27.53
27.63
27.02
25.83
24.21
22.27
20.13
17.85
15.47
13.02
10.51
7.96
5.44
3.05
0.94
-0.79
-2.10
-3.13
-4.10
-5.30
-6.93
-9.08
-11.65
-14.42
-17.11
-19.52
-21.60
-23.48
-25.42
-27.72
-30.67
-34.40
-38.83
-43.54
-47.79
-50.51
-50.64
-47.47
-40.92
-31.67
-21.02
-10.37
-0.91
6.76
12.56
16.66
19.28
20.50
20.39
19.14
17.18
15.13
13.55
12.73
12.53
12.49
12.07
10.93
9.13
7.09
5.40
4.60
4.84
5.86
7.01
7.49
6.59
3.93
-0.40
-5.80
-11.27
-15.60
-17.62
-16.43
-11.78
-4.29
4.49
12.57
18.11
20.25
19.42
17.16
15.39
15.38
17.27
20.05
22.25
22.72
21.28
18.58
15.63
13.18
11.24
9.24
6.36
2.03
-3.80
-10.64
-17.70
-24.24
-29.64
-33.49
-35.43
-35.21
-32.66
-27.90
-21.46
-14.23
-7.29
-1.60
2.27
4.29
4.89
4.70
4.35
4.29
4.65
5.32
6.05
6.65
7.02
7.28
7.69
8.53
9.97
12.00
14.44
16.93
19.09
20.56
21.12
20.69
19.35
17.31
14.87
12.33
9.98
7.99
6.38
5.03
3.79
2.46
0.97
-0.64
-2.24
-3.68
-4.94
-6.15
-7.59
-9.54
-12.09
-15.07
-18.10
-20.77
-22.88
-24.53
-26.05
-27.82
-30.09
-32.91
-36.05
-39.05
-41.31
-42.17
-41.04
-37.54
-31.69
-23.92
-15.04
-5.99
2.34
9.29
14.53
17.96
19.79
20.37
20.12
19.45
18.62
17.72
16.76
15.77
14.82
14.10
13.80
13.99
14.65
15.65
16.83
18.09
19.31
20.38
21.12
21.32
20.86
19.71
18.00
15.98
13.92
12.04
10.46
9.14
7.92
6.60
5.01
3.07
0.90
-1.32
-3.33
-4.99
-6.28
-7.37
-8.55
-10.05
-11.97
-14.22
-16.52
-18.59
-20.25
-21.46
-22.41
-23.43
-24.86
-26.98
-29.83
-33.12
-36.11
-37.82
-37.23
-33.72
-27.32
-18.83
-9.49
-0.65
6.70
12.16
15.77
17.91
18.94
19.22
18.99
18.39
17.56
16.57
15.46
14.19
12.78
11.33
10.02
9.06
8.60
8.73
9.38
10.43
11.71
13.08
14.32
15.25
15.68
15.45
14.57
13.17
11.54
9.99
8.76
7.94
7.40
6.90
6.14
4.94
3.27
1.23
-0.96
-3.10
-5.10
-6.93
-8.68
-10.47
-12.36
-14.33
-16.32
-18.26
-20.11
-21.92
-23.76
-25.73
-28.00
-30.68
-33.91
-37.68
-41.77
-45.64
-48.50
-49.49
-47.98
-43.78
-37.24
-29.18
-20.57
-12.31
-4.99
1.15
6.07
9.85
12.58
14.36
15.28
15.55
15.38
15.01
14.61
14.29
14.03
13.82
13.65
13.59
13.74
14.29
15.34
16.85
18.62
20.24
21.27
21.38
20.47
18.74
16.55
14.24
12.05
10.04
8.13
6.19
4.14
1.92
-0.43
-2.87
-5.32
-7.68
-9.88
-11.95
-13.97
-16.15
-18.71
-21.83
-25.57
-29.82
-34.28
-38.44
-41.68
-43.30
-42.76
-39.77
-34.48
-27.42
-19.40
-11.28
-3.78
2.68
7.92
11.98
14.91
16.81
17.72
17.73
16.99
15.74
14.26
12.83
11.68
10.92
10.61
10.74
11.27
12.16
13.36
14.77
16.22
17.47
18.25
18.35
17.65
16.25
14.37
12.30
10.29
8.45
6.75
5.09
3.33
1.39
-0.78
-3.14
-5.60
-8.04
-10.33
-12.35
-14.05
-15.44
-16.65
-17.87
-19.34
-21.28
-23.80
-26.89
-30.27
-33.48
-35.84
-36.67
-35.39
-31.78
-26.05
-18.80
-10.90
-3.21
3.56
9.00
12.95
15.44
16.61
16.68
15.95
14.77
13.49
12.38
11.56
11.02
10.67
10.49
10.57
11.09
12.26
14.15
16.62
19.31
21.79
23.60
24.50
24.44
23.55
22.06
20.20
18.13
15.95
13.66
11.27
8.79
6.30
3.88
1.66
-0.36
-2.27
-4.23
-6.46
-9.06
-11.99
-15.08
-18.07
-20.79
-23.26
-25.65
-28.31
-31.67
-36.10
-41.83
-48.80
-56.49
-64.00
-70.07
-73.48
-73.34
-69.43
-62.27
-52.92
-42.66
-32.62
-23.44
-15.27
-7.93
-1.06
5.55
11.89
17.74
22.74
26.57
29.05
30.24
30.40
29.96
29.34
28.85
28.66
28.75
28.94
29.02
28.86
28.37
27.60
26.58
25.34
23.85
22.01
19.77
17.16
14.35
11.60
9.17
7.07
5.14
3.04
0.55
-2.34
-5.34
-7.96
-9.82
-10.86
-11.40
-11.98
-13.19
-15.34
-18.36
-21.82
-25.05
-27.36
-28.19
-27.24
-24.43
-19.97
-14.26
-7.80
-1.19
5.02
10.35
14.49
17.35
19.09
20.00
20.38
20.48
20.41
20.25
20.04
19.86
19.79
19.80
19.74
19.41
18.64
17.42
15.89
14.37
13.19
12.52
12.30
12.26
11.98
11.09
9.34
6.75
3.49
-0.10
-3.72
-7.14
-10.17
-12.76
-14.90
-16.69
-18.39
-20.33
-22.85
-26.14
-30.04
-33.99
-37.12
-38.45
-37.23
-33.19
-26.68
-18.56
-9.89
-1.65
5.58
11.60
16.41
20.07
22.47
23.49
23.08
21.39
18.89
16.14
13.69
11.85
10.72
10.26
10.36
10.94
11.98
13.45
15.25
17.14
18.84
20.03
20.48
20.08
18.86
17.03
14.88
12.75
10.83
9.12
7.40
5.37
2.79
-0.36
-3.86
-7.34
-10.45
-13.04
-15.16
-17.10
-19.13
-21.49
-24.33
-27.71
-31.64
-36.00
-40.45
-44.35
-46.82
-46.95
-44.13
-38.27
-29.97
-20.32
-10.58
-1.76
5.55
11.28
15.60
18.73
20.82
21.93
22.21
21.89
21.34
20.85
20.57
20.48
20.47
20.51
20.68
21.16
22.10
23.57
25.46
27.51
29.43
30.88
31.59
31.40
30.31
28.51
26.33
24.10
22.02
20.03
17.90
15.37
12.36
9.05
5.82
3.01
0.74
-1.17
-3.13
-5.47
-8.30
-11.39
-14.36
-16.86
-18.82
-20.43
-22.17
-24.54
-27.87
-32.22
-37.26
-42.29
-46.36
-48.45
-47.80
-44.04
-37.35
-28.44
-18.32
-8.11
1.25
9.10
15.13
19.36
21.99
23.39
23.92
23.89
23.54
23.03
22.50
22.03
21.67
21.41
21.28
21.30
21.58
22.23
23.29
24.68
26.22
27.61
28.59
28.92
28.48
27.25
25.33
22.92
20.35
17.93
15.89
14.24
12.76
11.09
8.94
6.22
3.17
0.29
-1.97
-3.33
-3.93
-4.31
-5.14
-6.99
-10.07
-14.09
-18.33
-22.03
-24.61
-26.01
-26.69
-27.49
-29.30
-32.74
-37.90
-44.14
-50.12
-54.04
-54.10
-49.00
-38.41
-23.12
-4.97
13.66
30.43
43.60
52.47
57.34
59.17
59.06
57.68
55.11
51.03
45.20
37.94
30.30
23.71
19.38
17.70
18.02
19.13
19.85
19.64
18.70
17.70
17.21
17.36
17.81
18.00
17.56
16.45
14.99
13.53
12.22
10.91
9.24
6.81
3.47
-0.60
-4.97
-9.08
-12.54
-15.25
-17.46
-19.68
-22.41
-26.00
-30.45
-35.41
-40.28
-44.48
-47.57
-49.51
-50.64
-51.51
-52.68
-54.39
-56.39
-57.86
-57.72
-55.01
-49.29
-40.87
-30.69
-19.99
-9.88
-1.08
6.12
11.73
15.85
18.52
19.76
19.72
18.75
17.37
16.09
15.23
14.83
14.75
14.77
14.79
14.88
15.22
15.95
17.05
18.33
19.51
20.35
20.75
20.77
20.47
19.87
18.90
17.46
15.51
13.14
10.54
7.96
5.61
3.59
1.86
0.30
-1.27
-3.08
-5.32
-8.10
-11.34
-14.80
-18.15
-21.11
-23.65
-25.99
-28.55
-31.72
-35.67
-40.18
-44.54
-47.80
-48.93
-47.19
-42.34
-34.79
-25.46
-15.50
-6.01
2.25
8.90
13.92
17.47
19.80
21.15
21.80
22.01
21.98
21.78
21.39
20.74
19.87
18.98
18.43
18.53
19.47
21.16
23.28
25.40
27.15
28.33
28.90
28.90
28.40
27.39
25.89
23.91
21.59
19.15
16.82
14.73
12.89
11.12
9.23
7.03
4.41
1.39
-1.93
-5.41
-8.93
-12.37
-15.64
-18.72
-21.68
-24.71
-28.06
-31.94
-36.30
-40.76
-44.58
-46.78
-46.50
-43.22
-37.00
-28.47
-18.64
-8.64
0.56
8.31
14.30
18.53
21.16
22.45
22.69
22.19
21.18
19.84
18.28
16.56
14.80
13.19
11.95
11.33
11.48
12.32
13.58
14.95
16.08
16.79
17.03
16.83
16.19
15.08
13.43
11.23
8.58
5.66
2.72
0.01
-2.31
-4.20
-5.70
-6.94
-8.08
-9.32
-10.81
-12.61
-14.68
-16.85
-18.93
-20.78
-22.38
-23.92
-25.74
-28.20
-31.58
-35.84
-40.57
-44.95
-47.89
-48.35
-45.63
-39.66
-31.04
-20.87
-10.44
-0.83
7.27
13.65
18.40
21.74
23.90
25.02
25.22
24.62
23.39
21.74
19.90
18.13
16.66
15.69
15.31
15.52
16.24
17.33
18.66
20.07
21.38
22.36
22.80
22.48
21.38
19.59
17.35
14.94
12.57
10.27
7.92
5.37
2.49
-0.71
-4.09
-7.48
-10.68
-13.62
-16.23
-18.56
-20.65
-22.65
-24.80
-27.36
-30.64
-34.71
-39.22
-43.39
-46.10
-46.24
-43.15
-36.87
-28.16
-18.30
-8.64
-0.16
6.69
11.95
15.89
18.83
20.90
22.14
22.52
22.14
21.17
19.88
18.52
17.34
16.55
16.28
16.63
17.56
18.94
20.55
22.11
23.39
24.23
24.49
24.14
23.15
21.57
19.50
17.09
14.49
11.86
9.30
6.90
4.70
2.69
0.79
-1.21
-3.54
-6.35
-9.63
-13.13
-16.49
-19.39
-21.73
-23.71
-25.78
-28.42
-31.91
-36.17
-40.62
-44.28
-46.03
-44.95
-40.68
-33.52
-24.37
-14.42
-4.74
3.91
11.17
16.89
21.05
23.66
24.82
24.77
23.90
22.58
21.14
19.68
18.19
16.66
15.19
14.01
13.43
13.64
14.65
16.24
18.02
19.58
20.61
20.90
20.40
19.22
17.52
15.54
13.52
11.63
9.95
8.46
7.09
5.75
4.41
3.06
1.70
0.29
-1.22
-2.90
-4.76
-6.75
-8.82
-10.92
-13.06
-15.25
-17.47
-19.71
-21.95
-24.26
-26.86
-30.03
-33.91
-38.34
-42.71
-46.09
-47.41
-45.88
-41.20
-33.70
-24.20
-13.84
-3.77
5.10
12.17
17.21
20.33
21.84
22.20
21.85
21.15
20.31
19.42
18.53
17.71
17.05
16.63
16.49
16.64
17.02
17.56
18.18
18.78
19.23
19.39
19.11
18.30
16.95
15.09
12.85
10.36
7.76
5.21
2.83
0.71
-1.19
-2.96
-4.71
-6.56
-8.53
-10.56
-12.53
-14.35
-15.91
-17.18
-18.17
-19.02
-19.97
-21.42
-23.74
-27.16
-31.51
-36.13
-39.95
-41.79
-40.80
-36.66
-29.76
-21.06
-11.69
-2.71
5.15
11.52
16.33
19.66
21.68
22.57
22.50
21.68
20.28
18.48
16.50
14.57
12.98
11.95
11.64
12.04
13.00
14.24
15.45
16.35
16.77
16.63
15.88
14.56
12.76
10.57
8.14
5.57
2.84
-0.09
-3.26
-6.47
-9.28
-11.10
-11.48
-10.44
-8.57
-6.92
-6.52
-8.00
-11.39
-16.24
-21.91
-27.77
-33.25
-37.56
-39.61
-38.18
-32.39
-22.26
-8.90
5.80
19.83
31.80
41.28
48.52
53.98
57.84
59.86
59.65
57.07
52.57
47.11
41.83
37.65
34.99
33.65
33.04
32.46
31.38
29.59
27.27
24.83
22.71
21.14
20.10
19.28
18.26
16.71
14.50
11.75
8.72
5.62
2.54
-0.59
-3.92
-7.55
-11.48
-15.53
-19.41
-22.79
-25.52
-27.58
-29.19
-30.64
-32.20
-33.98
-35.94
-37.94
-39.83
-41.53
-42.91
-43.75
-43.79
-42.82
-40.94
-38.66
-36.83
-36.25
-37.27
-39.44
-41.58
-42.24
-40.26
-35.26
-27.67
-18.57
-9.19
-0.62
6.45
11.71
15.10
16.84
17.30
16.98
16.43
16.09
16.15
16.54
16.97
17.20
17.14
17.07
17.50
18.99
21.92
26.19
31.24
36.19
40.15
42.51
43.10
42.16
40.06
37.16
33.63
29.59
25.21
20.82
16.84
13.64
11.29
9.52
7.88
5.92
3.44
0.59
-2.29
-4.82
-6.83
-8.44
-9.98
-11.83
-14.25
-17.31
-20.97
-25.21
-30.08
-35.70
-42.01
-48.66
-54.86
-59.60
-61.87
-61.06
-57.16
-50.76
-42.85
-34.52
-26.65
-19.83
-14.31
-10.15
-7.24
-5.38
-4.26
-3.49
-2.69
-1.62
-0.30
1.08
2.23
3.01
3.55
4.24
5.54
7.81
11.12
15.18
19.48
23.45
26.61
28.58
29.20
28.46
26.51
23.64
20.27
16.81
13.65
11.00
8.94
7.40
6.18
5.06
3.87
2.49
0.85
-1.10
-3.43
-6.22
-9.50
-13.20
-17.06
-20.60
-23.21
-24.26
-23.29
-20.05
-14.62
-7.36
1.12
10.05
18.60
25.99
31.59
35.02
36.21
35.35
32.87
29.31
25.21
20.96
16.84
12.99
9.48
6.32
3.54
1.09
-1.08
-3.02
-4.74
-6.19
-7.31
-8.07
-8.56
-8.91
-9.29
-9.83
-10.55
-11.38
-12.23
-13.00
-13.61
-14.03
-14.27
-14.35
-14.34
-14.37
-14.64
-15.28
-16.33
-17.66
-19.02
-20.16
-20.96
-21.55
-22.26
-23.50
-25.60
-28.64
-32.38
-36.30
-39.71
-41.88
-42.24
-40.39
-36.31
-30.25
-22.78
-14.64
-6.60
0.72
6.94
11.90
15.61
18.16
19.65
20.22
19.99
19.22
18.19
17.15
16.30
15.68
15.29
15.11
15.23
15.77
16.88
18.52
20.51
22.51
24.16
25.25
25.66
25.37
24.40
22.80
20.68
18.22
15.73
13.46
11.57
9.99
8.51
6.86
4.87
2.52
-0.12
-2.89
-5.69
-8.51
-11.36
-14.24
-17.13
-19.98
-22.87
-25.93
-29.35
-33.18
-37.11
-40.52
-42.46
-42.00
-38.60
-32.33
-23.91
-14.51
-5.39
2.51
8.72
13.17
16.10
17.78
18.43
18.25
17.40
16.13
14.67
13.22
11.79
10.28
8.56
6.62
4.71
3.22
2.53
2.85
3.96
5.33
6.23
6.08
4.59
1.98
-1.24
-4.45
-7.22
-9.47
-11.45
-13.63
-16.51
-20.45
-25.56
-31.60
-37.75
-42.61
-44.44
-41.56
-33.10
-19.46
-2.40
15.50
31.69
44.41
53.06
57.93
59.70
58.92
55.89
50.90
44.59
37.96
32.26
28.42
26.68
26.48
26.79
26.50
24.97
22.18
18.59
14.78
11.21
8.04
5.22
2.65
0.30
-1.73
-3.29
-4.26
-4.60
-4.37
-3.75
-2.95
-2.26
-1.93
-2.07
-2.61
-3.36
-4.08
-4.60
-4.95
-5.26
-5.73
-6.46
-7.45
-8.51
-9.46
-10.16
-10.60
-10.95
-11.42
-12.20
-13.38
-14.95
-16.79
-18.77
-20.74
-22.61
-24.34
-26.03
-27.91
-30.28
-33.35
-37.08
-40.97
-44.14
-45.50
-44.20
-39.93
-33.09
-24.68
-15.88
-7.72
-0.76
4.88
9.37
12.90
15.53
17.21
17.89
17.70
16.96
16.13
15.61
15.59
15.99
16.54
16.94
17.09
17.00
16.90
17.00
17.40
18.08
18.86
19.56
19.95
19.85
19.14
17.79
15.87
13.59
11.21
8.94
6.89
5.00
3.18
1.31
-0.60
-2.52
-4.41
-6.29
-8.24
-10.37
-12.70
-15.16
-17.65
-20.08
-22.49
-25.03
-27.89
-31.10
-34.41
-37.23
-38.74
-38.17
-35.03
-29.36
-21.75
-13.11
-4.49
3.30
9.75
14.70
18.20
20.46
21.68
22.09
21.92
21.37
20.62
19.74
18.76
17.70
16.65
15.78
15.30
15.44
16.25
17.64
19.33
20.99
22.28
22.97
22.94
22.20
20.88
19.14
17.17
15.11
13.10
11.16
9.30
7.49
5.66
3.77
1.78
-0.35
-2.68
-5.23
-8.00
-10.91
-13.81
-16.49
-18.71
-20.28
-21.13
-21.41
-21.51
-21.99
-23.38
-25.96
-29.51
-33.31
-36.28
-37.34
-35.81
-31.62
-25.38
-18.09
-10.81
-4.31
1.04
5.24
8.42
10.74
12.24
12.94
12.97
12.58
12.08
11.74
11.67
11.77
11.78
11.56
11.09
10.57
10.25
10.31
10.76
11.47
12.19
12.77
13.10
13.19
13.07
12.73
12.16
11.33
10.23
8.86
7.29
5.56
3.68
1.66
-0.57
-3.06
-5.81
-8.72
-11.59
-14.15
-16.15
-17.51
-18.36
-19.08
-20.20
-22.22
-25.38
-29.56
-34.26
-38.61
-41.60
-42.32
-40.22
-35.28
-28.03
-19.34
-10.24
-1.62
5.92
12.07
16.70
19.82
21.48
21.81
21.10
19.73
18.14
16.69
15.63
15.06
14.95
15.23
15.80
16.53
17.29
17.96
18.45
18.72
18.76
18.59
18.12
17.24
15.84
13.84
11.27
8.27
5.05
1.78
-1.35
-4.24
-6.86
-9.25
-11.53
-13.82
-16.29
-19.02
-22.04
-25.28
-28.58
-31.70
-34.34
-36.26
-37.31
-37.60
-37.44
-37.28
-37.40
-37.70
-37.62
-36.36
-33.17
-27.75
-20.39
-11.80
-2.89
5.63
13.34
20.15
26.12
31.34
35.92
39.93
43.45
46.54
49.15
51.17
52.41
52.66
51.81
49.90
47.12
43.88
40.69
38.10
36.47
35.79
35.61
35.15
33.59
30.40
25.57
19.65
13.43
7.60
2.48
-2.07
-6.48
-11.15
-16.27
-21.75
-27.39
-32.88
-37.81
-41.47
-42.87
-40.99
-35.35
-26.44
-15.78
-5.49
2.55
7.38
9.09
8.41
5.97
2.00
-3.57
-10.53
-18.03
-24.50
-28.36
-28.76
-25.97
-21.28
-16.32
-12.26
-9.39
-7.20
-4.88
-1.92
1.66
5.22
7.87
8.86
7.90
5.30
1.93
-1.09
-2.75
-2.47
-0.27
3.33
7.58
11.86
16.02
20.44
25.87
33.03
42.28
53.31
65.23
76.74
86.62
94.01
98.60
100.55
100.26
98.12
94.36
89.08
82.43
74.70
66.31
57.66
49.02
40.49
32.09
23.90
16.12
8.98
2.63
-3.03
-8.36
-13.87
-20.07
-27.20
-35.22
-43.74
-52.09
-59.47
-65.07
-68.18
-68.45
-65.89
-61.00
-54.57
-47.55
-40.87
-35.24
-31.16
-28.92
-28.58
-29.98
-32.70
-36.11
-39.41
-41.82
-42.83
-42.36
-40.71
-38.41
-35.91
-33.42
-30.87
-28.06
-24.90
-21.51
-18.15
-15.15
-12.72
-10.89
-9.61
-8.77
-8.34
-8.31
-8.72
-9.56
-10.78
-12.23
-13.72
-15.06
-16.15
-17.02
-17.80
-18.70
-19.91
-21.53
-23.60
-26.11
-29.00
-32.29
-36.03
-40.32
-45.21
-50.61
-56.11
-60.91
-63.90
-63.97
-60.37
-53.07
-42.86
-31.13
-19.43
-8.98
-0.39
6.31
11.46
15.47
18.65
21.15
23.02
24.32
25.07
25.34
25.18
24.64
23.84
22.95
22.29
22.17
22.79
24.22
26.21
28.37
30.19
31.27
31.45
30.85
29.78
28.60
27.54
26.55
25.40
23.75
21.39
18.28
14.57
10.51
6.33
2.20
-1.84
-5.75
-9.45
-12.85
-15.84
-18.41
-20.65
-22.71
-24.76
-26.91
-29.23
-31.83
-34.90
-38.65
-43.15
-48.11
-52.80
-56.10
-56.80
-54.05
-47.62
-38.05
-26.47
-14.24
-2.56
7.72
16.14
22.58
27.12
29.95
31.36
31.72
31.41
30.75
29.97
29.18
28.41
27.70
27.14
26.84
26.92
27.45
28.43
29.79
31.37
32.95
34.19
34.79
34.50
33.27
31.28
28.79
26.12
23.46
20.86
18.21
15.44
12.47
9.38
6.31
3.41
0.72
-1.81
-4.34
-7.09
-10.17
-13.56
-17.06
-20.31
-23.03
-25.09
-26.62
-27.98
-29.72
-32.39
-36.36
-41.62
-47.62
-53.31
-57.23
-58.00
-54.78
-47.58
-37.33
-25.53
-13.79
-3.27
5.48
12.45
17.87
21.90
24.59
25.91
25.94
24.93
23.33
21.55
19.95
18.69
17.82
17.34
17.24
17.53
18.20
19.24
20.55
22.01
23.43
24.60
25.31
25.32
24.52
22.85
20.41
17.42
14.17
10.95
8.00
5.40
3.06
0.73
-1.85
-4.84
-8.23
-11.78
-15.17
-18.11
-20.47
-22.40
-24.26
-26.55
-29.77
-34.18
-39.61
-45.33
-50.16
-52.72
-51.86
-47.11
-38.82
-28.13
-16.51
-5.40
4.23
11.97
17.85
22.10
24.96
26.57
27.02
26.37
24.76
22.45
19.83
17.35
15.37
14.13
13.70
13.93
14.60
15.42
16.13
16.52
16.44
15.95
15.37
15.28
16.36
19.11
23.62
29.40
35.54
40.98
44.79
46.39
45.60
42.59
37.77
31.75
25.26
18.94
13.25
8.33
3.96
-0.36
-5.18
-11.04
-18.29
-27.00
-36.84
-46.95
-56.07
-62.70
-65.58
-64.03
-58.20
-49.01
-37.89
-26.32
-15.56
-6.34
1.01
6.55
10.46
12.97
14.28
14.56
14.04
13.00
11.79
10.80
10.34
10.57
11.47
12.89
14.66
16.65
18.83
21.21
23.72
26.23
28.41
29.91
30.42
29.79
28.09
25.57
22.58
19.46
16.42
13.52
10.66
7.65
4.36
0.70
-3.32
-7.59
-11.97
-16.26
-20.27
-23.84
-26.91
-29.58
-32.12
-34.92
-38.42
-42.94
-48.49
-54.63
-60.43
-64.59
-65.82
-63.12
-56.20
-45.58
-32.46
-18.39
-4.84
7.07
16.79
24.17
29.37
32.68
34.48
35.16
35.11
34.61
33.84
32.84
31.60
30.15
28.62
27.30
26.49
26.44
27.22
28.67
30.42
32.03
33.09
33.35
32.77
31.49
29.78
27.82
25.67
23.22
20.32
16.86
12.91
8.73
4.65
0.98
-2.16
-4.82
-7.24
-9.68
-12.36
-15.38
-18.66
-22.04
-25.30
-28.32
-31.08
-33.75
-36.70
-40.36
-45.04
-50.63
-56.45
-61.21
-63.36
-61.56
-55.24
-44.91
-31.98
-18.26
-5.35
5.82
14.99
22.34
28.09
32.25
34.71
35.40
34.49
32.38
29.67
26.92
24.58
22.85
21.78
21.31
21.35
21.85
22.84
24.34
26.25
28.30
30.00
30.86
30.50
28.86
26.28
23.24
20.28
17.61
15.17
12.59
9.44
5.42
0.51
-5.01
-10.69
-16.03
-20.65
-24.40
-27.34
-29.76
-32.05
-34.65
-37.99
-42.32
-47.46
-52.68
-56.65
-57.85
-55.00
-47.63
-36.32
-22.51
-8.02
5.51
17.03
26.17
33.02
37.88
41.02
42.65
42.92
42.03
40.21
37.73
34.91
32.05
29.49
27.55
26.45
26.26
26.87
27.98
29.27
30.42
31.24
31.63
31.56
31.02
29.92
28.15
25.61
22.34
18.48
14.32
10.18
6.30
2.70
-0.74
-4.28
-8.13
-12.40
-17.01
-21.77
-26.41
-30.78
-34.82
-38.65
-42.49
-46.64
-51.44
-57.18
-63.95
-71.40
-78.64
-84.19
-86.34
-83.60
-75.35
-62.12
-45.53
-27.83
-11.18
2.93
13.88
21.89
27.57
31.55
34.31
36.08
36.98
37.15
36.79
36.14
35.42
34.75
34.21
33.83
33.65
33.77
34.36
35.54
37.33
39.54
41.77
43.54
44.40
44.13
42.76
40.53
37.78
34.75
31.53
28.07
24.31
20.32
16.28
12.42
8.86
5.50
2.09
-1.67
-5.92
-10.51
-15.14
-19.44
-23.15
-26.28
-29.08
-31.92
-35.28
-39.54
-44.97
-51.50
-58.55
-64.99
-69.20
-69.58
-64.99
-55.31
-41.49
-25.31
-8.81
6.30
18.98
28.93
36.32
41.51
44.84
46.60
47.06
46.58
45.54
44.25
42.96
41.73
40.61
39.60
38.84
38.43
38.51
39.09
40.07
41.22
42.20
42.69
42.42
41.22
39.12
36.30
33.06
29.66
26.25
22.80
19.19
15.36
11.36
7.39
3.65
0.17
-3.24
-6.91
-11.14
-15.99
-21.19
-26.27
-30.67
-34.06
-36.41
-38.10
-39.74
-42.05
-45.68
-51.02
-58.06
-66.23
-74.34
-80.75
-83.68
-81.81
-74.77
-63.36
-49.36
-34.93
-21.87
-11.18
-2.94
3.41
8.56
12.94
16.65
19.54
21.48
22.46
22.68
22.40
21.83
21.10
20.22
19.29
18.51
18.28
18.98
20.83
23.73
27.19
30.47
32.90
34.08
34.05
33.20
32.03
30.89
29.86
28.78
27.39
25.52
23.13
20.32
17.22
13.98
10.66
7.26
3.77
0.12
-3.78
-7.95
-12.41
-17.07
-21.77
-26.22
-30.05
-32.87
-34.37
-34.33
-32.79
-30.00
-26.38
-22.44
-18.54
-14.91
-11.59
-8.52
-5.72
-3.26
-1.28
0.08
0.89
1.36
1.79
2.48
3.53
4.84
6.20
7.36
8.23
8.84
9.26
9.56
9.69
9.48
8.77
7.48
5.64
3.42
0.99
-1.52
-4.07
-6.58
-9.04
-11.33
-13.38
-15.15
-16.67
-18.05
-19.44
-20.96
-22.66
-24.45
-26.09
-27.28
-27.66
-26.99
-25.21
-22.48
-19.13
-15.52
-11.93
-8.48
-5.12
-1.79
1.49
4.53
7.04
8.73
9.50
9.46
8.95
8.35
7.94
7.81
7.78
7.59
6.99
5.94
4.53
2.96
1.38
-0.22
-1.99
-4.15
-6.85
-10.08
-13.69
-17.39
-20.88
-23.92
-26.42
-28.51
-30.50
-32.89
-36.18
-40.65
-46.18
-52.07
-57.10
-59.73
-58.57
-52.77
-42.38
-28.33
-12.25
4.09
19.08
31.64
41.23
47.76
51.39
52.46
51.33
48.44
44.21
39.12
33.63
28.23
23.40
19.57
17.06
16.00
16.26
17.49
19.20
20.88
22.08
22.56
22.22
21.11
19.33
16.97
14.11
10.71
6.69
1.99
-3.41
-9.41
-15.73
-21.99
-27.79
-32.95
-37.57
-42.12
-47.27
-53.64
-61.41
-70.02
-78.09
-83.65
-84.69
-79.77
-68.61
-52.23
-32.76
-12.75
5.56
20.79
32.58
41.33
47.73
52.34
55.46
57.14
57.47
56.58
54.74
52.20
49.18
45.81
42.25
38.67
35.34
32.57
30.61
29.63
29.69
30.71
32.50
34.64
36.55
37.59
37.15
35.00
31.40
27.14
23.30
20.76
19.81
19.94
19.94
18.45
14.62
8.54
1.32
-5.32
-9.79
-11.32
-10.25
-7.90
-6.05
-6.34
-9.83
-16.69
-25.82
-34.68
-39.37
-35.70
-20.71
5.59
39.41
74.04
102.16
118.65
122.56
117.04
107.55
99.19
94.69
93.86
94.65
94.73
92.81
88.94
84.15
79.72
76.73
76.12
78.90
86.36
99.64
119.13
143.79
170.80
196.14
215.61
225.81
224.93
213.03
192.01
165.45
138.01
114.37
97.69
88.20
82.81
76.21
63.26
41.57
12.90
-17.45
-42.90
-58.39
-62.43
-57.35
-48.05
-40.09
-37.95
-44.24
-59.68
-83.46
-113.62
-147.23
-180.53
-209.21
-229.42
-238.98
-238.40
-230.89
-221.18
-213.41
-209.23
-207.19
-203.76
-195.34
-180.22
-159.36
-135.63
-112.31
-91.62
-74.31
-60.04
-48.30
-38.93
-32.11
-27.85
-25.61
-24.43
-23.48
-22.73
-23.12
-26.44
-34.57
-48.76
-69.04
-93.85
-120.04
-143.17
-158.35
-161.43
-150.46
-126.60
-94.23
-59.68
-29.23
-7.13
5.45
10.04
9.51
6.55
2.72
-1.52
-6.22
-11.43
-16.98
-22.63
-28.41
-34.63
-41.60
-49.31
-57.30
-64.78
-71.01
-75.54
-78.29
-79.49
-79.61
-79.42
-80.02
-82.60
-87.82
-95.12
-102.18
-105.20
-99.95
-83.29
-54.45
-15.61
28.82
73.74
115.01
150.59
180.46
205.67
227.00
244.07
255.23
258.24
251.24
233.68
206.76
173.49
138.26
106.10
81.56
67.34
63.17
65.53
68.60
66.36
54.83
33.64
5.89
-23.41
-49.52
-69.69
-83.64
-92.85
-99.28
-104.28
-108.22
-110.73
-111.26
-109.55
-105.62
-99.69
-91.94
-82.38
-71.12
-58.50
-45.34
-33.01
-23.12
-17.05
-15.49
-18.10
-23.63
-30.42
-37.05
-42.90
-48.25
-53.88
-60.33
-67.32
-73.46
-76.63
-74.78
-66.72
-52.68
-34.32
-14.22
4.90
20.83
32.35
39.27
42.19
42.15
40.32
37.74
35.14
32.96
31.26
29.88
28.59
27.22
25.76
24.41
23.44
23.14
23.76
25.41
28.14
31.93
36.58
41.77
46.92
51.31
54.17
54.89
53.18
49.18
43.35
36.38
28.98
21.66
14.67
8.01
1.54
-4.85
-11.12
-17.07
-22.45
-27.02
-30.80
-34.04
-37.10
-40.31
-43.79
-47.41
-50.81
-53.44
-54.61
-53.52
-49.39
-41.72
-30.57
-16.77
-1.82
12.53
24.78
34.11
40.45
44.25
46.08
46.26
44.90
42.05
37.94
33.07
28.12
23.65
20.00
17.15
14.95
13.26
12.14
11.82
12.54
14.41
17.21
20.48
23.64
26.15
27.71
28.30
28.11
27.39
26.33
24.97
23.20
20.87
17.87
14.21
10.01
5.40
0.49
-4.69
-10.14
-15.75
-21.40
-26.92
-32.26
-37.54
-43.06
-49.15
-55.96
-63.19
-69.96
-74.82
-76.07
-72.28
-62.73
-47.81
-28.91
-8.14
12.21
30.18
44.39
54.15
59.37
60.51
58.48
54.50
49.83
45.49
41.96
39.15
36.45
33.12
28.57
22.87
16.92
12.48
11.82
17.09
29.51
48.80
72.96
98.61
121.81
139.09
148.36
149.43
143.83
134.13
122.94
112.14
102.39
93.32
83.99
73.54
61.64
48.45
34.45
20.10
5.64
-8.91
-23.60
-38.43
-53.32
-67.91
-81.60
-93.53
-102.63
-107.90
-108.63
-104.63
-96.34
-84.73
-71.04
-56.65
-42.88
-30.83
-21.29
-14.69
-10.96
-9.64
-9.92
-10.93
-11.90
-12.44
-12.47
-12.19
-11.93
-11.96
-12.41
-13.16
-13.95
-14.42
-14.25
-13.32
-11.76
-9.96
-8.40
-7.45
-7.25
-7.58
-8.06
-8.30
-8.12
-7.62
-7.20
-7.39
-8.67
-11.39
-15.56
-20.96
-27.09
-33.32
-39.14
-44.29
-48.97
-53.75
-59.31
-66.00
-73.48
-80.58
-85.53
-86.56
-82.58
-73.55
-60.59
-45.42
-29.88
-15.34
-2.52
8.40
17.49
24.82
30.35
34.09
36.17
36.95
36.88
36.35
35.55
34.34
32.41
29.43
25.29
20.21
14.76
9.70
5.69
3.06
1.62
0.74
-0.44
-2.69
-6.32
-11.16
-16.53
-21.61
-25.71
-28.56
-30.34
-31.43
-32.28
-33.06
-33.77
-34.24
-34.40
-34.26
-33.87
-33.14
-31.76
-29.29
-25.32
-19.64
-12.32
-3.55
6.53
17.93
30.69
44.76
59.76
74.97
89.47
102.30
112.72
120.19
124.40
125.23
122.74
117.20
109.13
99.26
88.39
77.27
66.39
56.03
46.33
37.46
29.66
23.25
18.46
15.30
13.45
12.33
11.34
10.09
8.61
7.23
6.42
6.42
7.06
7.73
7.68
6.33
3.67
0.27
-2.99
-5.47
-7.30
-9.64
-14.43
-23.81
-39.36
-61.53
-89.38
-120.53
-151.57
-178.59
-197.81
-206.49
-203.59
-190.20
-169.34
-145.07
-121.38
-101.13
-85.51
-74.24
-66.13
-59.79
-54.07
-48.27
-42.16
-35.85
-29.80
-24.57
-20.69
-18.39
-17.45
-17.25
-17.00
-15.99
-13.89
-10.68
-6.63
-2.12
2.50
6.95
11.02
14.52
17.25
18.96
19.45
18.65
16.70
13.96
10.94
8.07
5.56
3.27
0.82
-2.28
-6.41
-11.74
-18.25
-25.70
-33.64
-41.28
-47.41
-50.63
-49.67
-43.99
-34.08
-21.30
-6.99
8.39
25.70
46.54
71.93
100.99
130.39
155.22
170.74
174.12
165.38
146.91
122.30
95.08
68.20
44.12
25.15
13.38
10.06
14.92
25.86
39.49
52.25
61.50
66.17
66.58
63.79
58.76
51.91
43.10
31.97
18.41
2.78
-14.05
-30.90
-46.54
-60.05
-70.95
-79.32
-85.77
-91.25
-96.78
-103.05
-110.13
-117.24
-122.87
-125.21
-122.67
-114.52
-101.13
-83.89
-64.77
-45.68
-28.05
-12.57
0.57
11.47
20.20
26.76
31.09
33.24
33.45
32.15
29.90
27.27
24.76
22.70
21.25
20.32
19.67
18.96
17.91
16.45
14.70
12.90
11.23
9.70
8.17
6.41
4.31
1.89
-0.66
-3.15
-5.41
-7.35
-8.99
-10.46
-12.11
-14.55
-18.50
-24.47
-32.30
-40.94
-48.47
-52.72
-51.97
-45.61
-34.34
-19.82
-4.07
11.17
24.82
36.38
45.64
52.44
56.59
57.94
56.63
53.19
48.49
43.42
38.74
34.82
31.68
29.16
27.10
25.47
24.40
24.09
24.57
25.70
27.06
28.09
28.26
27.23
24.92
21.52
17.36
12.85
8.26
3.80
-0.47
-4.58
-8.69
-13.06
-18.07
-24.18
-31.71
-40.54
-49.89
-58.26
-63.72
-64.45
-59.44
-48.83
-33.95
-16.88
0.15
15.39
27.78
37.00
43.16
46.59
47.61
46.59
43.90
40.00
35.43
30.78
26.65
23.52
21.71
21.28
22.02
23.50
25.28
27.01
28.51
29.77
30.82
31.61
31.90
31.29
29.38
25.93
20.99
14.90
8.21
1.43
-5.04
-11.07
-16.80
-22.49
-28.54
-35.35
-43.23
-52.22
-61.84
-70.91
-77.56
-79.69
-75.59
-64.66
-47.80
-27.20
-5.66
14.21
30.70
43.17
51.82
57.25
60.02
60.48
58.85
55.36
50.37
44.40
38.04
31.89
26.46
22.15
19.24
17.85
17.91
19.21
21.32
23.73
25.97
27.63
28.45
28.28
27.06
24.77
21.42
17.12
12.06
6.54
0.88
-4.67
-9.99
-15.09
-20.14
-25.42
-31.32
-38.33
-46.79
-56.67
-67.21
-76.78
-83.16
-84.05
-77.94
-64.66
-45.62
-23.41
-1.02
19.01
35.12
46.77
54.15
57.80
58.28
56.22
52.28
47.28
42.04
37.26
33.30
30.19
27.78
25.97
24.82
24.59
25.47
27.43
30.08
32.71
34.59
35.15
34.23
32.03
28.99
25.53
21.88
18.00
13.66
8.66
2.98
-3.14
-9.27
-14.98
-20.03
-24.39
-28.40
-32.59
-37.60
-43.93
-51.69
-60.31
-68.43
-74.14
-75.34
-70.52
-59.28
-42.64
-22.75
-2.28
16.38
31.62
42.83
50.18
54.23
55.64
54.91
52.49
48.83
44.42
39.80
35.49
31.87
29.15
27.38
26.52
26.50
27.26
28.76
30.93
33.52
36.10
38.03
38.68
37.54
34.53
30.04
24.80
19.64
15.12
11.36
7.98
4.37
-0.05
-5.50
-11.75
-18.21
-24.22
-29.28
-33.29
-36.56
-39.66
-43.22
-47.79
-53.65
-60.79
-68.74
-76.50
-82.59
-85.31
-83.27
-75.77
-63.07
-46.16
-26.31
-4.67
17.80
39.93
60.01
75.64
84.30
84.33
75.60
59.80
39.90
19.43
1.69
-10.76
-16.40
-14.81
-6.70
6.39
22.49
39.71
56.54
71.87
84.76
94.09
98.60
97.07
88.87
74.48
55.63
35.00
15.64
0.08
-10.31
-15.80
-18.10
-19.67
-22.67
-28.21
-36.05
-45.05
-53.95
-62.05
-69.36
-76.34
-83.42
-90.63
-97.51
-103.29
-106.97
-107.59
-104.32
-96.64
-84.52
-68.65
-50.33
-31.23
-13.13
2.66
15.40
25.04
32.06
37.21
41.24
44.79
48.29
51.99
56.01
60.29
64.61
68.50
71.20
71.82
69.64
64.45
56.77
47.76
38.82
31.17
25.47
21.68
19.29
17.62
16.07
14.27
12.20
10.13
8.55
7.93
8.53
10.07
11.80
12.65
11.66
8.49
3.56
-2.07
-7.21
-11.07
-13.55
-15.30
-17.41
-21.09
-27.29
-36.33
-47.68
-59.91
-70.87
-78.25
-80.21
-75.99
-66.07
-52.00
-35.81
-19.47
-4.56
7.93
17.46
24.01
28.11
30.82
33.53
37.54
43.48
51.06
59.12
66.08
70.50
71.66
69.69
65.44
60.04
54.39
48.82
42.97
36.02
27.06
15.55
1.60
-13.95
-29.77
-44.32
-56.14
-64.11
-67.56
-66.47
-61.46
-53.71
-44.61
-35.23
-25.91
-16.27
-5.54
6.78
20.39
34.07
45.87
53.86
56.74
54.16
46.67
35.40
21.71
6.99
-7.13
-18.77
-25.87
-26.73
-20.60
-8.26
8.06
25.24
40.26
51.09
57.13
59.12
58.53
56.94
55.52
54.90
55.13
55.72
55.83
54.51
51.03
45.33
38.07
30.54
24.08
19.61
17.24
16.32
15.82
14.83
12.91
10.17
7.04
3.95
1.02
-2.01
-5.64
-10.39
-16.65
-24.46
-33.59
-43.54
-53.68
-63.38
-72.11
-79.44
-85.16
-89.22
-91.76
-93.14
-93.87
-94.60
-96.02
-98.73
-102.91
-108.30
-114.20
-119.74
-124.30
-127.50
-129.13
-128.76
-125.43
-117.73
-104.31
-84.58
-59.16
-29.93
0.60
30.08
56.89
80.32
100.25
116.65
129.25
137.48
140.70
138.44
130.72
118.15
101.94
83.57
64.60
46.24
29.27
14.03
0.60
-10.95
-20.49
-27.82
-32.81
-35.51
-36.24
-35.43
-33.53
-30.87
-27.61
-23.91
-19.95
-16.04
-12.53
-9.71
-7.78
-6.79
-6.71
-7.45
-8.89
-10.93
-13.39
-16.09
-18.85
-21.51
-23.92
-25.97
-27.53
-28.57
-29.21
-29.85
-31.11
-33.55
-37.29
-41.69
-45.33
-46.36
-43.18
-35.08
-22.59
-7.33
8.56
23.15
35.17
44.19
50.39
54.18
55.99
56.10
54.61
51.62
47.13
41.12
33.66
25.00
15.75
6.83
-0.63
-5.59
-7.43
-6.09
-2.19
3.23
8.96
13.93
17.44
19.20
19.33
18.21
16.38
14.49
13.09
12.51
12.67
13.05
12.78
10.95
7.04
1.19
-5.79
-12.77
-18.72
-23.17
-26.34
-28.99
-32.11
-36.59
-42.85
-50.70
-59.17
-66.65
-71.14
-70.87
-64.80
-53.15
-37.36
-19.72
-2.59
12.21
23.78
32.09
37.60
40.85
42.19
41.77
39.70
36.22
31.79
26.97
22.30
18.18
14.77
12.16
10.43
9.75
10.25
11.94
14.59
17.75
20.83
23.22
24.52
24.53
23.28
20.96
17.89
14.41
10.86
7.48
4.35
1.38
-1.66
-5.06
-8.94
-13.23
-17.59
-21.51
-24.55
-26.55
-27.74
-28.72
-30.34
-33.40
-38.40
-45.29
-53.39
-61.34
-67.31
-69.43
-66.25
-57.26
-43.12
-25.58
-6.95
10.52
25.20
36.36
44.01
48.59
50.61
50.46
48.46
44.99
40.54
35.69
31.02
26.92
23.58
21.00
19.11
17.91
17.45
17.87
19.23
21.40
24.06
26.66
28.58
29.26
28.36
25.85
22.08
17.61
13.05
8.86
5.16
1.74
-1.82
-5.94
-10.81
-16.34
-22.11
-27.59
-32.38
-36.29
-39.47
-42.28
-45.16
-48.59
-52.97
-58.55
-65.17
-72.10
-77.95
-80.85
-78.97
-71.24
-57.77
-40.04
-20.38
-1.27
15.39
28.63
38.34
44.89
48.72
50.21
49.65
47.37
43.83
39.58
35.17
31.06
27.54
24.75
22.76
21.57
21.18
21.55
22.65
24.32
26.29
28.18
29.47
29.70
28.55
25.95
22.15
17.63
12.96
8.64
4.86
1.52
-1.74
-5.35
-9.63
-14.59
-19.95
-25.21
-29.87
-33.63
-36.50
-38.86
-41.31
-44.50
-48.97
-54.91
-61.95
-69.07
-74.68
-76.95
-74.32
-66.08
-52.67
-35.65
-17.21
0.42
15.56
27.37
35.76
41.06
43.72
44.12
42.56
39.38
34.98
29.86
24.53
19.41
14.87
11.25
8.83
7.86
8.47
10.58
13.83
17.68
21.42
24.44
26.30
26.83
26.11
24.34
21.71
18.33
14.25
9.48
4.11
-1.65
-7.51
-13.15
-18.35
-23.05
-27.37
-31.62
-36.20
-41.47
-47.58
-54.21
-60.44
-64.80
-65.60
-61.47
-51.92
-37.60
-20.17
-1.85
15.26
29.66
40.68
48.29
52.81
54.65
54.16
51.67
47.56
42.32
36.47
30.56
25.04
20.33
16.74
14.44
13.53
13.88
15.20
17.05
18.89
20.21
20.56
19.69
17.62
14.59
10.96
7.06
3.05
-1.10
-5.55
-10.40
-15.64
-21.06
-26.38
-31.34
-35.87
-40.09
-44.34
-49.09
-54.85
-61.89
-69.97
-78.10
-84.53
-87.14
-84.10
-74.58
-59.16
-39.76
-19.01
0.53
17.07
29.80
38.76
44.40
47.24
47.73
46.25
43.27
39.39
35.25
31.42
28.26
25.86
24.21
23.25
23.02
23.60
25.08
27.34
30.03
32.54
34.15
34.29
32.70
29.49
25.16
20.30
15.44
10.81
6.32
1.65
-3.50
-9.31
-15.61
-21.98
-27.90
-33.01
-37.23
-40.90
-44.68
-49.35
-55.47
-63.04
-71.23
-78.38
-82.34
-81.13
-73.59
-59.90
-41.57
-21.04
-0.92
16.71
30.66
40.67
47.08
50.53
51.60
50.81
48.57
45.29
41.41
37.44
33.91
31.21
29.57
29.03
29.47
30.67
32.41
34.50
36.71
38.77
40.35
41.09
40.67
38.87
35.65
31.21
25.94
20.41
15.17
10.65
6.95
3.85
0.88
-2.48
-6.56
-11.38
-16.66
-21.95
-26.73
-30.68
-33.69
-36.01
-38.16
-40.91
-45.05
-51.12
-59.10
-68.11
-76.44
-81.84
-82.16
-76.09
-63.69
-46.40
-26.64
-6.99
10.48
24.66
35.30
42.69
47.25
49.30
49.10
47.01
43.53
39.40
35.30
31.81
29.23
27.63
26.93
27.00
27.75
29.07
30.83
32.75
34.48
35.62
35.87
35.10
33.39
30.96
28.02
24.71
21.04
17.01
12.71
8.31
4.13
0.38
-2.83
-5.63
-8.32
-11.19
-14.40
-17.88
-21.32
-24.39
-26.86
-28.71
-30.17
-31.67
-33.70
-36.79
-41.35
-47.52
-54.91
-62.44
-68.34
-70.55
-67.33
-57.98
-43.17
-24.86
-5.64
12.07
26.62
37.39
44.58
48.79
50.62
50.45
48.51
45.03
40.44
35.36
30.59
26.87
24.75
24.33
25.33
27.22
29.43
31.58
33.50
35.18
36.60
37.58
37.78
36.89
34.73
31.40
27.21
22.52
17.69
12.95
8.45
4.24
0.32
-3.44
-7.32
-11.59
-16.41
-21.70
-27.13
-32.17
-36.40
-39.63
-42.00
-43.94
-46.02
-48.84
-52.88
-58.46
-65.41
-72.96
-79.62
-83.41
-82.32
-75.08
-61.68
-43.52
-23.02
-2.83
14.89
29.00
39.29
46.14
50.06
51.50
50.77
48.27
44.54
40.28
36.17
32.69
30.10
28.43
27.62
27.66
28.50
30.08
32.21
34.52
36.60
38.00
38.44
37.80
36.15
33.67
30.64
27.27
23.69
19.95
15.98
11.75
7.31
2.82
-1.48
-5.39
-8.84
-11.94
-14.91
-17.98
-21.27
-24.74
-28.24
-31.59
-34.68
-37.49
-40.13
-42.83
-46.01
-50.18
-55.78
-62.87
-70.80
-78.05
-82.47
-81.87
-74.88
-61.48
-43.16
-22.44
-2.08
15.71
29.67
39.53
45.72
48.93
49.84
49.00
46.86
43.86
40.43
36.99
33.93
31.52
29.90
29.07
28.97
29.51
30.71
32.54
34.93
37.59
40.07
41.78
42.19
41.01
38.31
34.48
30.06
25.60
21.48
17.83
14.57
11.50
8.38
5.06
1.56
-2.01
-5.44
-8.59
-11.44
-14.13
-16.90
-19.97
-23.42
-27.10
-30.68
-33.84
-36.38
-38.42
-40.34
-42.70
-46.14
-51.11
-57.71
-65.39
-72.95
-78.58
-80.31
-76.65
-67.09
-52.46
-34.65
-16.08
1.10
15.45
26.43
34.16
39.03
41.51
41.99
40.88
38.63
35.74
32.63
29.59
26.77
24.18
21.87
19.99
18.74
18.37
19.02
20.63
22.93
25.44
27.58
28.80
28.75
27.33
24.74
21.35
17.59
13.84
10.31
7.07
4.02
1.00
-2.17
-5.60
-9.32
-13.26
-17.25
-21.03
-24.35
-27.05
-29.14
-30.88
-32.73
-35.28
-39.06
-44.26
-50.55
-56.92
-61.84
-63.56
-60.76
-52.98
-40.84
-25.90
-10.10
4.79
17.58
27.74
35.26
40.31
43.11
43.84
42.78
40.31
36.85
32.91
28.86
25.05
21.72
19.09
17.26
16.29
16.12
16.63
17.65
18.94
20.16
20.92
20.81
19.57
17.19
14.01
10.49
7.14
4.20
1.58
-1.13
-4.38
-8.49
-13.45
-18.94
-24.42
-29.37
-33.43
-36.54
-38.92
-41.12
-43.79
-47.58
-52.83
-59.30
-65.92
-70.98
-72.46
-68.79
-59.39
-45.06
-27.70
-9.74
6.64
20.08
30.15
37.17
41.72
44.29
45.14
44.41
42.25
38.99
35.16
31.31
27.90
25.14
23.08
21.67
20.88
20.78
21.46
22.92
25.02
27.35
29.35
30.43
30.13
28.27
24.97
20.66
15.95
11.44
7.47
4.02
0.71
-3.04
-7.68
-13.32
-19.64
-25.99
-31.65
-36.18
-39.50
-42.02
-44.40
-47.44
-51.76
-57.64
-64.76
-72.11
-78.09
-80.78
-78.57
-70.62
-57.29
-40.06
-21.15
-2.85
13.05
25.60
34.64
40.55
43.91
45.27
45.03
43.55
41.14
38.20
35.12
32.27
29.90
28.12
26.94
26.31
26.22
26.66
27.67
29.22
31.12
33.04
34.46
34.89
33.89
31.34
27.42
22.52
17.21
11.99
7.17
2.88
-0.97
-4.55
-8.04
-11.58
-15.24
-18.97
-22.65
-26.14
-29.31
-32.14
-34.73
-37.33
-40.28
-44.01
-48.87
-55.01
-62.16
-69.36
-75.06
-77.33
-74.50
-65.77
-51.69
-34.02
-15.24
2.24
16.77
27.67
35.06
39.46
41.41
41.33
39.57
36.56
32.83
28.94
25.32
22.24
19.73
17.78
16.40
15.65
15.65
16.42
17.84
19.68
21.65
23.58
25.41
27.19
28.94
30.56
31.76
32.14
31.37
29.38
26.37
22.79
19.11
15.59
12.19
8.65
4.67
0.20
-4.51
-8.97
-12.82
-15.96
-18.80
-22.01
-26.26
-31.96
-39.07
-47.25
-55.86
-64.02
-70.67
-74.57
-74.53
-69.73
-60.18
-46.81
-31.30
-15.58
-1.33
10.46
19.50
25.98
30.28
32.67
33.36
32.46
30.17
26.85
22.96
19.03
15.61
13.14
11.85
11.80
12.81
14.59
16.84
19.26
21.63
23.67
25.06
25.45
24.61
22.50
19.34
15.59
11.72
8.03
4.52
0.98
-2.91
-7.28
-12.05
-16.88
-21.35
-25.14
-28.18
-30.61
-32.86
-35.49
-39.11
-44.17
-50.67
-57.92
-64.44
-68.28
-67.63
-61.45
-49.98
-34.66
-17.65
-1.15
13.23
24.67
33.03
38.60
41.77
42.90
42.36
40.46
37.52
33.89
29.92
25.99
22.52
19.90
18.39
18.01
18.61
19.90
21.59
23.48
25.41
27.20
28.61
29.26
28.81
27.08
24.10
20.20
15.85
11.54
7.55
3.85
0.18
-3.82
-8.44
-13.66
-19.21
-24.63
-29.46
-33.39
-36.40
-38.75
-40.91
-43.52
-47.20
-52.39
-59.10
-66.63
-73.51
-77.80
-77.56
-71.59
-59.88
-43.75
-25.41
-7.29
8.62
21.20
30.22
36.12
39.57
41.19
41.39
40.43
38.46
35.73
32.59
29.47
26.81
24.95
24.06
24.10
24.89
26.20
27.82
29.62
31.49
33.27
34.68
35.42
35.18
33.81
31.34
27.99
24.08
19.92
15.77
11.76
7.90
4.05
-0.01
-4.49
-9.53
-15.01
-20.55
-25.64
-29.89
-33.16
-35.70
-38.02
-40.76
-44.52
-49.65
-56.13
-63.42
-70.36
-75.26
-76.28
-72.01
-62.02
-47.13
-29.24
-10.71
6.29
20.32
30.88
38.16
42.71
45.11
45.76
44.93
42.82
39.74
36.12
32.45
29.17
26.64
25.03
24.41
24.75
25.98
27.93
30.34
32.83
35.01
36.51
37.11
36.76
35.51
33.45
30.71
27.43
23.78
19.96
16.11
12.31
8.53
4.76
0.97
-2.85
-6.67
-10.55
-14.55
-18.72
-22.98
-27.13
-30.86
-34.01
-36.60
-38.92
-41.51
-44.92
-49.54
-55.32
-61.59
-67.08
-70.14
-69.17
-63.17
-52.15
-37.23
-20.35
-3.65
11.09
22.87
31.42
37.04
40.16
41.17
40.39
38.11
34.73
30.78
26.84
23.41
20.79
19.07
18.20
18.09
18.67
19.87
21.61
23.68
25.70
27.20
27.71
26.95
24.91
21.91
18.38
14.77
11.28
7.87
4.29
0.32
-4.12
-8.86
-13.50
-17.66
-21.08
-23.82
-26.22
-28.78
-32.07
-36.54
-42.32
-49.04
-55.70
-60.75
-62.48
-59.50
-51.30
-38.51
-22.74
-6.14
9.29
22.15
31.85
38.42
42.23
43.74
43.31
41.25
37.91
33.67
28.98
24.35
20.24
17.01
14.89
14.01
14.36
15.86
18.26
21.18
24.10
26.41
27.56
27.25
25.50
22.66
19.26
15.77
12.45
9.18
5.65
1.52
-3.36
-8.84
-14.53
-19.95
-24.72
-28.73
-32.15
-35.42
-39.14
-43.89
-50.03
-57.35
-64.95
-71.20
-74.12
-71.97
-63.96
-50.65
-33.79
-15.77
1.13
15.39
26.41
34.34
39.68
42.90
44.28
43.98
42.18
39.20
35.51
31.64
28.11
25.27
23.27
22.13
21.77
22.10
23.08
24.62
26.52
28.47
30.02
30.71
30.19
28.32
25.23
21.29
16.98
12.78
9.01
5.74
2.73
-0.45
-4.28
-9.02
-14.55
-20.43
-25.98
-30.57
-33.94
-36.25
-38.09
-40.31
-43.76
-49.01
-56.02
-64.01
-71.43
-76.23
-76.48
-70.95
-59.61
-43.67
-25.24
-6.70
9.96
23.53
33.61
40.42
44.42
46.12
45.90
44.12
41.11
37.32
33.24
29.39
26.25
24.09
23.02
22.90
23.50
24.53
25.79
27.17
28.62
30.06
31.29
31.99
31.76
30.27
27.41
23.37
18.68
13.96
9.74
6.21
3.15
0.15
-3.26
-7.27
-11.73
-16.24
-20.35
-23.81
-26.58
-28.86
-30.98
-33.26
-36.08
-39.84
-44.83
-51.01
-57.81
-63.96
-67.73
-67.39
-61.89
-51.24
-36.62
-20.01
-3.60
10.87
22.40
30.77
36.26
39.35
40.50
40.06
38.35
35.68
32.42
28.94
25.62
22.82
20.82
19.80
19.81
20.78
22.51
24.71
27.04
29.15
30.71
31.49
31.34
30.23
28.29
25.74
22.77
19.55
16.13
12.53
8.72
4.79
0.89
-2.77
-6.08
-9.07
-11.95
-15.01
-18.41
-22.08
-25.57
-28.28
-29.64
-29.45
-28.09
-26.44
-25.60
-26.59
-29.85
-35.12
-41.34
-46.83
-49.76
-48.54
-42.37
-31.47
-17.10
-1.20
14.18
27.36
37.41
44.15
47.90
49.14
48.34
45.90
42.29
38.08
33.88
30.26
27.55
25.87
25.21
25.51
26.71
28.70
31.28
34.07
36.58
38.26
38.71
37.71
35.28
31.58
26.87
21.36
15.18
8.40
1.09
-6.59
-14.33
-21.70
-28.24
-33.61
-37.64
-40.34
-41.80
-42.16
-41.49
-39.94
-37.73
-35.22
-32.91
-31.29
-30.86
-31.96
-34.85
-39.61
-45.99
-53.28
-60.24
-65.15
-66.29
-62.46
-53.39
-39.99
-24.00
-7.45
7.90
20.94
31.22
38.68
43.42
45.59
45.35
43.03
39.10
34.09
28.58
23.09
18.08
13.92
10.93
9.27
8.95
9.82
11.62
13.99
16.47
18.52
19.53
19.06
16.93
13.42
9.21
5.12
1.80
-0.48
-1.96
-3.18
-4.76
-7.10
-10.28
-14.04
-17.91
-21.47
-24.49
-27.06
-29.59
-32.70
-37.02
-42.89
-50.22
-58.21
-65.44
-70.08
-70.46
-65.53
-55.33
-40.97
-24.35
-7.57
7.59
20.00
29.24
35.38
38.82
40.08
39.69
38.19
35.97
33.32
30.38
27.25
24.10
21.18
18.79
17.24
16.74
17.35
18.93
21.21
23.74
25.94
27.22
27.16
25.64
22.94
19.58
16.15
12.99
10.05
6.98
3.36
-1.00
-5.90
-10.88
-15.41
-19.20
-22.32
-25.13
-28.14
-31.87
-36.66
-42.65
-49.59
-56.67
-62.48
-65.28
-63.45
-56.15
-43.73
-27.74
-10.48
5.76
19.29
29.38
36.17
40.26
42.27
42.64
41.52
39.00
35.24
30.63
25.78
21.38
17.99
15.86
14.99
15.19
16.23
17.98
20.35
23.18
26.12
28.63
30.11
30.10
28.45
25.40
21.49
17.34
13.47
10.07
7.05
4.04
0.66
-3.31
-7.87
-12.75
-17.58
-21.98
-25.72
-28.71
-31.06
-33.02
-35.01
-37.53
-41.10
-45.95
-51.84
-57.79
-62.23
-63.36
-59.75
-50.95
-37.68
-21.72
-5.27
9.64
21.72
30.54
36.34
39.62
40.80
40.11
37.72
33.91
29.28
24.58
20.55
17.68
16.06
15.47
15.58
16.14
17.07
18.43
20.27
22.42
24.51
26.02
26.46
25.56
23.33
20.09
16.33
12.61
9.30
6.52
4.04
1.42
-1.76
-5.67
-10.12
-14.63
-18.64
-21.79
-24.09
-25.87
-27.68
-30.08
-33.50
-38.13
-43.83
-49.97
-55.47
-58.85
-58.66
-53.92
-44.57
-31.57
-16.65
-1.79
11.33
21.77
29.33
34.28
37.04
37.88
36.92
34.26
30.22
25.41
20.67
16.78
14.25
13.13
13.17
13.97
15.24
16.88
18.93
21.32
23.80
25.89
27.07
26.92
25.32
22.48
18.89
15.12
11.64
8.63
5.95
3.22
0.05
-3.79
-8.20
-12.80
-17.06
-20.61
-23.33
-25.43
-27.41
-29.87
-33.31
-37.95
-43.51
-49.16
-53.59
-55.31
-53.10
-46.46
-35.84
-22.55
-8.38
4.91
15.99
24.21
29.49
32.17
32.75
31.75
29.58
26.64
23.24
19.68
16.26
13.28
11.05
9.76
9.48
10.04
11.16
12.51
13.82
14.96
15.89
16.58
16.91
16.65
15.61
13.63
10.73
7.05
2.81
-1.74
-6.37
-10.86
-14.99
-18.61
-21.70
-24.42
-27.15
-30.36
-34.49
-39.69
-45.67
-51.61
-56.26
-58.21
-56.28
-49.90
-39.37
-25.77
-10.76
3.92
16.80
26.97
34.09
38.27
39.92
39.51
37.55
34.49
30.75
26.76
22.93
19.64
17.19
15.75
15.29
15.69
16.75
18.24
20.02
21.86
23.53
24.68
24.92
23.96
21.72
18.41
14.49
10.45
6.65
3.15
-0.28
-3.97
-8.20
-12.95
-17.89
-22.54
-26.45
-29.48
-31.87
-34.17
-37.11
-41.25
-46.80
-53.38
-59.99
-65.14
-67.23
-64.96
-57.78
-46.10
-31.22
-15.01
0.65
14.28
25.03
32.65
37.34
39.50
39.59
38.06
35.32
31.88
28.22
24.80
21.98
19.95
18.72
18.18
18.24
18.84
19.97
21.64
23.70
25.81
27.49
28.21
27.62
25.68
22.64
18.97
15.18
11.63
8.45
5.50
2.48
-0.92
-4.88
-9.29
-13.81
-17.96
-21.34
-23.80
-25.53
-27.02
-28.90
-31.81
-36.18
-42.06
-48.99
-55.87
-61.10
-62.99
-60.20
-52.32
-40.07
-25.11
-9.51
4.84
16.73
25.74
32.00
35.92
37.83
37.98
36.55
33.83
30.28
26.52
23.16
20.71
19.37
19.09
19.65
20.75
22.17
23.79
25.55
27.37
29.07
30.34
30.85
30.33
28.68
25.98
22.47
18.46
14.29
10.22
6.49
3.18
0.30
-2.25
-4.68
-7.18
-9.90
-12.79
-15.70
-18.43
-20.85
-23.01
-25.14
-27.56
-30.58
-34.45
-39.38
-45.35
-52.03
-58.55
-63.57
-65.50
-63.05
-55.69
-43.97
-29.42
-14.02
0.38
12.53
21.88
28.46
32.56
34.50
34.56
33.07
30.41
27.11
23.71
20.73
18.53
17.29
17.00
17.56
18.75
20.37
22.25
24.21
26.10
27.72
28.85
29.20
28.55
26.79
23.98
20.37
16.32
12.22
8.32
4.67
1.13
-2.55
-6.54
-10.84
-15.16
-19.13
-22.41
-24.93
-26.95
-28.99
-31.65
-35.42
-40.49
-46.66
-53.25
-59.11
-62.80
-62.87
-58.33
-49.05
-35.90
-20.60
-5.23
8.39
19.17
26.81
31.67
34.34
35.38
35.15
33.87
31.73
29.00
26.03
23.17
20.73
18.95
17.97
17.86
18.59
20.01
21.87
23.84
25.57
26.72
27.07
26.52
25.16
23.24
21.15
19.32
18.05
17.42
17.27
17.16
16.54
14.90
11.93
7.59
2.18
-3.70
-9.32
-14.12
-17.82
-20.59
-22.95
-25.58
-29.08
-33.86
-40.03
-47.32
-54.97
-61.73
-65.97
-66.11
-61.13
-51.13
-37.42
-22.17
-7.70
4.26
12.96
18.67
22.13
24.12
25.06
25.07
24.11
22.28
19.91
17.49
15.51
14.23
13.70
13.81
14.44
15.53
17.10
19.08
21.30
23.40
24.97
25.67
25.38
24.14
22.14
19.55
16.51
13.14
9.62
6.29
3.56
1.77
0.99
0.86
0.79
0.15
-1.39
-3.67
-6.11
-8.09
-9.23
-9.75
-10.32
-11.77
-14.78
-19.60
-26.01
-33.41
-40.91
-47.37
-51.57
-52.44
-49.36
-42.42
-32.52
-21.12
-9.78
0.20
8.15
13.97
17.94
20.46
21.86
22.35
22.02
20.96
19.33
17.42
15.62
14.30
13.76
14.13
15.36
17.27
19.60
22.10
24.54
26.68
28.32
29.28
29.47
28.92
27.75
26.07
23.98
21.44
18.39
14.84
11.00
7.17
3.74
0.86
-1.57
-3.94
-6.68
-10.02
-13.87
-17.84
-21.48
-24.50
-26.90
-28.97
-31.11
-33.75
-37.21
-41.71
-47.22
-53.30
-59.01
-62.96
-63.61
-59.83
-51.38
-39.03
-24.45
-9.60
3.81
14.76
22.97
28.64
32.15
33.78
33.75
32.24
29.59
26.26
22.81
19.71
17.25
15.52
14.52
14.19
14.56
15.67
17.50
19.81
22.22
24.18
25.23
25.08
23.76
21.56
18.85
16.00
13.20
10.51
7.80
4.86
1.50
-2.38
-6.71
-11.20
-15.46
-19.09
-21.91
-24.02
-25.84
-27.95
-30.94
-35.10
-40.34
-46.05
-51.18
-54.39
-54.38
-50.29
-41.99
-30.24
-16.44
-2.30
10.63
21.29
29.18
34.35
37.07
37.78
36.90
34.85
32.01
28.75
25.44
22.36
19.74
17.76
16.53
16.10
16.50
17.67
19.43
21.53
23.61
25.29
26.22
26.07
24.63
21.89
18.18
14.24
11.07
9.57
10.15
12.36
15.06
16.85
16.70
14.36
10.38
5.61
0.71
-4.13
-9.08
-14.36
-19.87
-25.32
-30.51
-35.65
-41.32
-48.07
-55.87
-63.66
-69.59
-71.68
-68.59
-60.30
-48.12
-34.15
-20.49
-8.62
0.88
8.14
13.57
17.55
20.24
21.66
21.88
21.10
19.70
18.07
16.55
15.36
14.65
14.55
15.14
16.44
18.30
20.47
22.64
24.55
26.03
26.98
27.32
26.96
25.80
23.85
21.23
18.18
15.01
11.88
8.86
5.85
2.70
-0.71
-4.42
-8.37
-12.42
-16.41
-20.14
-23.48
-26.34
-28.72
-30.78
-32.78
-35.14
-38.37
-42.84
-48.57
-54.93
-60.65
-64.01
-63.39
-57.84
-47.54
-33.75
-18.39
-3.45
9.64
20.16
28.05
33.59
37.03
38.58
38.40
36.78
34.15
31.11
28.16
25.62
23.60
22.01
20.78
19.89
19.45
19.65
20.54
22.00
23.70
25.16
25.94
25.70
24.35
21.98
18.83
15.24
11.60
8.22
5.26
2.68
0.20
-2.53
-5.80
-9.69
-13.99
-18.31
-22.25
-25.54
-28.16
-30.35
-32.54
-35.19
-38.72
-43.26
-48.51
-53.59
-57.20
-57.88
-54.56
-46.97
-35.77
-22.44
-8.72
3.82
14.19
21.97
27.23
30.25
31.39
31.03
29.54
27.29
24.66
21.93
19.31
16.94
14.92
13.41
12.53
12.41
13.05
14.29
15.85
17.38
18.54
19.08
18.83
17.78
15.99
13.57
10.64
7.37
3.92
0.46
-2.86
-5.98
-8.91
-11.71
-14.48
-17.23
-20.01
-22.92
-26.24
-30.40
-35.78
-42.35
-49.44
-55.65
-59.21
-58.57
-53.03
-43.08
-30.17
-16.25
-3.10
8.18
17.16
23.97
28.88
32.12
33.81
34.01
32.92
30.83
28.16
25.28
22.50
20.04
18.04
16.67
16.09
16.44
17.71
19.66
21.85
23.69
24.66
24.42
22.99
20.65
17.80
14.80
11.80
8.82
5.74
2.45
-1.09
-4.86
-8.79
-12.79
-16.74
-20.50
-23.94
-27.02
-29.90
-32.90
-36.52
-41.22
-47.09
-53.74
-60.14
-64.78
-66.11
-62.99
-55.12
-43.24
-28.88
-13.90
0.03
11.79
20.94
27.50
31.75
33.98
34.51
33.70
31.98
29.78
27.49
25.29
23.22
21.28
19.53
18.20
17.56
17.79
18.91
20.67
22.70
24.57
25.91
26.43
26.02
24.65
22.49
19.78
16.82
13.85
10.96
8.11
5.12
1.81
-1.89
-5.87
-9.93
-13.86
-17.48
-20.78
-23.87
-27.05
-30.71
-35.28
-40.97
-47.57
-54.27
-59.69
-62.19
-60.41
-53.76
-42.74
-28.80
-13.88
0.16
12.03
21.13
27.47
31.41
33.38
33.77
32.93
31.21
28.94
26.44
23.92
21.52
19.37
17.62
16.47
16.13
16.67
17.99
19.75
21.49
22.69
23.00
22.31
20.72
18.47
15.85
13.01
10.07
7.01
3.78
0.33
-3.38
-7.29
-11.26
-15.05
-18.45
-21.32
-23.78
-26.18
-28.99
-32.72
-37.51
-43.05
-48.42
-52.32
-53.36
-50.52
-43.51
-32.89
-19.99
-6.52
5.94
16.33
24.24
29.80
33.39
35.35
35.83
34.86
32.59
29.34
25.71
22.31
19.67
17.95
17.05
16.76
16.87
17.38
18.35
19.80
21.53
23.07
23.86
23.46
21.75
19.00
15.78
12.68
10.09
8.08
6.33
4.32
1.58
-2.15
-6.74
-11.76
-16.62
-20.80
-24.08
-26.62
-28.94
-31.69
-35.54
-40.84
-47.43
-54.54
-60.80
-64.51
-64.14
-58.82
-48.74
-35.15
-20.02
-5.38
7.20
17.00
24.04
28.79
31.75
33.24
33.35
32.19
29.98
27.17
24.33
22.01
20.52
19.92
20.00
20.50
21.22
22.10
23.16
24.42
25.78
26.94
27.51
27.10
25.45
22.56
18.77
14.63
10.76
7.53
5.00
2.82
0.45
-2.59
-6.43
-10.82
-15.20
-19.04
-22.02
-24.18
-25.87
-27.63
-30.01
-33.49
-38.32
-44.37
-50.98
-56.90
-60.52
-60.27
-55.19
-45.32
-31.76
-16.30
-0.95
12.66
23.54
31.37
36.33
38.86
39.46
38.58
36.59
33.83
30.63
27.32
24.31
21.98
20.60
20.28
20.87
22.05
23.45
24.77
25.90
26.85
27.63
28.15
28.15
27.28
25.29
22.22
18.39
14.32
10.53
7.32
4.71
2.50
0.33
-2.10
-4.96
-8.25
-11.85
-15.50
-18.90
-21.82
-24.16
-26.02
-27.76
-29.84
-32.81
-37.05
-42.60
-48.92
-54.92
-59.07
-59.89
-56.39
-48.47
-36.99
-23.47
-9.64
3.09
13.83
22.23
28.29
32.13
33.93
33.92
32.42
29.90
26.90
23.90
21.32
19.39
18.22
17.76
17.93
18.61
19.73
21.28
23.20
25.36
27.38
28.72
28.81
27.33
24.41
20.58
16.61
13.12
10.29
7.83
5.18
1.83
-2.39
-7.27
-12.30
-16.90
-20.65
-23.37
-25.19
-26.46
-27.75
-29.72
-32.90
-37.49
-43.06
-48.55
-52.39
-52.99
-49.27
-41.07
-29.30
-15.59
-1.79
10.59
20.67
28.22
33.38
36.37
37.36
36.56
34.25
30.90
27.10
23.44
20.33
18.02
16.59
16.02
16.22
17.07
18.42
20.08
21.86
23.57
24.96
25.71
25.48
24.01
21.25
17.53
13.38
9.42
6.05
3.26
0.72
-2.10
-5.63
-9.98
-14.87
-19.73
-23.98
-27.22
-29.43
-30.98
-32.52
-34.80
-38.44
-43.64
-50.00
-56.46
-61.43
-63.22
-60.55
-53.00
-41.28
-26.96
-12.05
1.65
12.97
21.55
27.58
31.52
33.76
34.53
33.95
32.17
29.48
26.35
23.31
20.78
18.99
17.97
17.58
17.75
18.43
19.69
21.50
23.69
25.83
27.34
27.71
26.74
24.57
21.65
18.52
15.56
12.91
10.43
7.88
5.02
1.69
-2.13
-6.34
-10.75
-15.07
-19.03
-22.42
-25.20
-27.56
-29.96
-32.99
-37.20
-42.77
-49.30
-55.72
-60.47
-61.90
-58.91
-51.27
-39.86
-26.28
-12.43
0.10
10.36
18.03
23.27
26.41
27.80
27.72
26.39
24.06
21.04
17.70
14.41
11.51
9.21
7.60
6.64
6.29
6.49
7.26
8.60
10.41
12.51
14.51
16.10
17.07
17.48
17.58
17.60
17.59
17.30
16.25
14.06
10.63
6.33
1.84
-2.10
-5.02
-6.91
-8.15
-9.37
-11.21
-14.23
-18.79
-24.93
-32.20
-39.48
-45.18
-47.61
-45.59
-38.94
-28.64
-16.39
-4.06
6.91
15.81
22.53
27.27
30.22
31.47
31.05
29.10
25.96
22.15
18.22
14.72
12.06
10.45
9.96
10.51
11.86
13.70
15.69
17.49
18.83
19.57
19.66
19.14
18.06
16.50
14.52
12.17
9.56
6.76
3.79
0.59
-3.03
-7.14
-11.71
-16.41
-20.78
-24.41
-27.17
-29.41
-31.80
-35.12
-39.93
-46.19
-53.18
-59.55
-63.61
-63.84
-59.37
-50.21
-37.37
-22.50
-7.51
5.98
16.92
24.89
29.98
32.61
33.29
32.56
30.94
28.87
26.67
24.55
22.59
20.79
19.22
18.00
17.31
17.29
18.00
19.38
21.24
23.26
25.05
26.15
26.15
24.79
22.13
18.52
14.55
10.81
7.57
4.80
2.11
-0.96
-4.67
-8.97
-13.54
-17.92
-21.73
-24.79
-27.15
-29.06
-30.90
-33.15
-36.28
-40.60
-45.95
-51.57
-56.09
-57.87
-55.55
-48.53
-37.33
-23.40
-8.73
4.81
15.88
23.94
29.09
31.81
32.64
32.05
30.46
28.24
25.78
23.39
21.30
19.58
18.18
17.05
16.16
15.66
15.76
16.72
18.67
21.53
24.90
28.16
30.64
31.85
31.72
30.60
29.09
27.70
26.59
25.51
23.90
21.23
17.19
11.86
5.58
-1.17
-7.95
-14.37
-20.16
-25.17
-29.41
-33.15
-36.92
-41.28
-46.60
-52.74
-58.84
-63.48
-65.10
-62.54
-55.48
-44.64
-31.51
-17.89
-5.32
5.23
13.39
19.23
23.06
25.22
26.09
25.96
25.11
23.74
21.99
20.02
18.01
16.22
14.90
14.27
14.41
15.21
16.44
17.84
19.11
19.98
20.24
19.77
18.60
16.86
14.77
12.48
10.02
7.29
4.12
0.43
-3.71
-8.02
-12.14
-15.78
-18.85
-21.50
-24.11
-27.14
-31.05
-36.04
-41.94
-48.06
-53.19
-55.90
-54.93
-49.67
-40.38
-28.21
-14.74
-1.62
9.96
19.37
26.48
31.41
34.33
35.39
34.79
32.82
29.93
26.61
23.33
20.43
18.06
16.28
15.11
14.59
14.85
15.97
17.84
20.14
22.32
23.76
24.01
22.86
20.54
17.46
14.19
11.15
8.56
6.28
3.94
1.11
-2.51
-6.94
-11.84
-16.67
-20.86
-24.11
-26.47
-28.35
-30.40
-33.24
-37.30
-42.59
-48.59
-54.21
-57.97
-58.40
-54.50
-46.11
-34.13
-20.16
-6.12
6.41
16.45
23.73
28.46
31.06
31.97
31.59
30.25
28.31
26.09
23.88
21.90
20.26
19.02
18.19
17.80
17.89
18.49
19.58
21.03
22.60
23.96
24.73
24.63
23.52
21.48
18.74
15.62
12.40
9.21
6.02
2.71
-0.89
-4.86
-9.11
-13.44
-17.53
-21.07
-23.91
-26.14
-28.13
-30.49
-33.88
-38.67
-44.73
-51.24
-56.72
-59.46
-58.08
-52.03
-41.81
-28.84
-14.94
-1.81
9.41
18.21
24.60
28.81
31.12
31.77
31.05
29.29
26.90
24.23
21.60
19.18
17.09
15.40
14.23
13.66
13.78
14.53
15.77
17.24
18.62
19.60
19.93
19.43
18.08
15.99
13.42
10.65
7.93
5.32
2.68
-0.22
-3.58
-7.40
-11.42
-15.23
-18.46
-20.99
-23.03
-25.07
-27.71
-31.44
-36.35
-42.02
-47.44
-51.23
-51.97
-48.63
-41.03
-29.88
-16.66
-3.18
8.95
18.67
25.57
29.87
32.07
32.71
32.26
30.93
28.87
26.15
22.94
19.54
16.41
14.02
12.74
12.71
13.78
15.60
17.73
19.73
21.22
21.95
21.75
20.63
18.71
16.21
13.40
