1706100727.00
64.000000
-0.00
-0.00
-0.00
-0.00
-0.00
-0.00
-0.00
-0.00
-0.00
-0.00
0.00
0.01
0.01
-0.00
-0.03
-0.05
-0.05
0.00
0.13
0.36
0.66
1.01
1.37
1.72
2.06
2.40
2.79
3.24
3.80
4.42
5.06
5.66
6.20
6.68
7.15
7.68
8.31
9.14
10.09
11.04
11.88
12.56
13.14
13.76
14.65
15.96
17.91
20.32
22.90
25.38
27.58
29.57
31.68
34.32
37.81
42.54
48.15
54.10
59.83
64.97
69.58
74.14
79.34
85.71
93.76
103.00
112.62
121.73
129.77
136.75
143.30
150.75
157.77
166.64
177.95
191.79
206.97
220.57
228.25
225.36
208.53
176.87
132.76
80.05
23.07
-34.95
-92.44
-149.16
-205.23
-260.37
-313.73
-363.85
-409.80
-450.85
-486.42
-515.63
-537.08
-549.03
-549.72
-538.07
-513.85
-478.26
-433.40
-381.90
-326.40
-269.15
-211.87
-155.82
-102.03
-51.37
-4.80
36.78
72.74
102.78
127.06
146.08
160.56
171.20
178.62
183.23
185.31
185.08
182.83
178.91
173.71
167.65
161.09
154.26
147.31
140.31
133.30
126.33
119.45
112.74
106.28
100.11
94.27
88.77
83.62
78.83
74.41
70.36
66.71
63.46
60.62
58.18
56.12
54.42
53.02
51.83
50.75
49.63
48.31
46.60
44.34
41.40
37.70
33.20
27.97
22.08
15.71
9.09
2.49
-3.83
-9.63
-14.70
-18.88
-22.08
-24.30
-25.55
-25.93
-25.55
-24.55
-23.06
-21.22
-19.13
-16.86
-14.46
-11.97
-9.40
-6.81
-4.19
-1.56
1.09
3.75
6.42
9.13
11.90
14.68
17.47
20.28
23.10
25.96
28.89
31.93
35.15
38.60
42.23
45.99
49.88
53.90
58.08
62.44
67.04
71.93
77.21
82.75
88.44
94.24
100.08
105.95
111.82
117.68
123.55
129.45
135.13
140.34
144.91
148.60
151.16
152.23
151.33
147.79
142.91
137.16
130.84
124.16
117.27
110.31
103.37
96.57
90.03
83.90
78.02
72.30
66.72
61.25
55.91
50.75
45.82
41.21
37.06
33.23
29.69
26.40
23.37
20.56
18.00
15.67
13.58
11.78
10.14
8.60
7.12
5.68
4.27
2.90
1.59
0.37
-0.71
-1.70
-2.59
-3.39
-4.10
-4.71
-5.22
-5.62
-5.90
-6.05
-6.09
-6.03
-5.87
-5.64
-5.35
-4.98
-4.54
-4.05
-3.54
-3.03
-2.57
-2.21
-1.97
-1.86
-1.87
-1.95
-2.11
-2.32
-2.60
-2.97
-3.44
-4.03
-4.69
-5.38
-6.05
-6.70
-7.32
-7.98
-8.76
-9.73
-10.94
-12.36
-13.91
-15.49
-17.03
-18.55
-20.17
-22.06
-24.37
-27.16
-30.31
-33.61
-36.79
-39.71
-42.40
-45.15
-48.36
-52.38
-57.38
-63.23
-69.53
-75.85
-81.92
-87.79
-93.90
-100.86
-109.22
-119.24
-130.68
-143.04
-155.69
-168.20
-180.47
-192.75
-205.54
-219.53
-235.63
-254.73
-277.33
-302.82
-329.00
-352.17
-368.05
-373.27
-366.68
-349.82
-326.26
-300.23
-275.12
-252.78
-233.60
-217.18
-202.86
-190.01
-177.72
-164.77
-149.73
-131.60
-110.35
-87.07
-63.59
-41.74
-22.70
-6.48
7.67
20.81
33.53
45.66
56.18
63.65
66.72
64.63
57.59
46.95
34.84
23.81
15.97
12.46
13.05
16.34
20.39
23.41
24.34
23.00
19.87
15.70
11.09
6.50
2.19
-1.62
-4.70
-6.88
-8.14
-8.57
-8.33
-7.55
-6.32
-4.66
-2.57
-0.18
2.26
4.39
5.79
6.13
5.21
2.99
-0.49
-5.27
-11.53
-19.47
-29.12
-40.00
-50.90
-59.90
-64.77
-63.60
-55.38
-40.51
-20.72
1.28
22.56
40.56
53.73
61.59
64.63
63.90
60.75
56.42
52.07
48.71
47.11
47.71
50.53
55.10
60.60
66.10
70.87
74.49
76.90
78.19
78.49
77.80
76.00
72.85
68.09
61.53
53.15
43.14
31.96
20.32
9.12
-0.74
-8.58
-14.11
-17.38
-18.77
-18.74
-17.64
-15.72
-13.20
-10.45
-8.08
-6.97
-7.86
-11.19
-16.79
-23.95
-31.66
-39.04
-45.58
-51.26
-56.36
-61.26
-66.16
-70.92
-74.90
-77.02
-75.97
-70.58
-60.27
-45.44
-27.50
-8.70
8.53
22.09
30.85
34.76
34.79
32.53
29.76
28.00
28.20
30.56
34.70
39.79
44.94
49.40
52.72
54.71
55.52
55.49
55.12
54.95
55.41
56.63
58.35
59.94
60.76
60.42
59.06
57.34
56.12
56.04
57.18
59.02
60.56
60.68
58.47
53.45
45.71
35.78
24.53
13.02
2.31
-6.76
-13.60
-18.05
-20.31
-20.91
-20.69
-20.79
-22.57
-27.36
-36.04
-48.51
-63.48
-78.68
-91.39
-99.34
-101.33
-97.46
-88.81
-76.89
-63.17
-48.77
-34.52
-21.06
-8.89
1.62
10.46
17.86
24.16
29.58
34.03
37.11
38.36
37.47
34.57
30.32
25.84
22.46
21.37
23.32
28.32
35.67
44.11
52.14
58.44
62.12
62.89
61.03
57.15
51.99
46.27
40.52
35.05
30.06
25.55
21.46
17.66
14.02
10.38
6.73
3.18
-0.00
-2.46
-3.94
-4.48
-4.40
-4.31
-4.90
-6.74
-10.23
-15.49
-22.38
-30.43
-38.84
-46.46
-52.01
-54.41
-53.11
-48.25
-40.58
-31.20
-21.23
-11.57
-2.81
4.77
11.18
16.67
21.63
26.48
31.50
36.68
41.75
46.34
50.15
53.10
55.33
57.06
58.60
60.28
62.47
65.53
69.48
73.76
77.10
77.87
74.72
67.23
56.16
43.28
30.57
19.47
10.46
3.14
-3.21
-9.12
-14.62
-19.43
-23.20
-25.89
-27.81
-29.48
-31.38
-33.77
-36.63
-39.72
-42.74
-45.42
-47.70
-49.76
-52.04
-55.17
-59.77
-66.22
-74.35
-83.31
-91.67
-97.72
-99.96
-97.54
-90.52
-79.76
-66.69
-52.81
-39.43
-27.38
-17.03
-8.37
-1.14
4.94
10.21
14.93
19.30
23.48
27.58
31.58
35.35
38.74
41.56
43.82
45.62
47.17
48.71
50.23
51.60
52.51
52.70
52.04
50.64
48.83
47.01
45.61
44.85
44.75
45.02
45.20
44.69
43.04
40.03
35.78
30.73
25.47
20.57
16.39
13.01
10.33
8.02
5.73
3.11
-0.07
-3.95
-8.53
-13.78
-19.69
-26.33
-33.89
-42.53
-52.22
-62.54
-72.60
-81.15
-86.93
-88.94
-86.83
-81.01
-72.52
-62.75
-53.05
-44.38
-37.16
-31.35
-26.64
-22.69
-19.32
-16.63
-14.89
-14.38
-15.29
-17.51
-20.72
-24.51
-28.55
-32.78
-37.32
-42.44
-48.35
-55.16
-62.87
-71.49
-81.10
-91.80
-103.66
-116.48
-129.72
-142.46
-153.68
-162.30
-167.36
-168.13
-163.96
-154.45
-139.32
-118.50
-92.29
-61.45
-27.16
8.99
45.20
79.77
111.23
138.48
160.68
177.25
187.83
192.38
191.22
185.16
175.35
163.02
149.23
134.78
120.30
106.45
94.12
84.33
77.92
75.24
75.94
79.02
83.13
86.98
89.64
90.68
90.09
88.16
85.33
82.07
78.78
75.75
73.14
70.93
68.97
67.04
64.86
62.15
58.67
54.23
48.75
42.41
35.57
28.77
22.53
17.11
12.42
8.10
3.82
-0.57
-4.79
-8.34
-10.72
-11.68
-11.48
-10.74
-10.21
-10.50
-11.94
-14.43
-17.65
-21.18
-24.68
-27.92
-30.95
-34.00
-37.41
-41.64
-46.99
-53.54
-60.93
-68.17
-73.83
-76.34
-74.45
-67.76
-56.90
-43.44
-29.35
-16.40
-5.69
2.51
8.53
13.04
16.62
19.66
22.33
24.63
26.61
28.31
29.90
31.53
33.32
35.21
36.92
38.14
38.58
38.17
37.05
35.55
34.07
32.89
32.10
31.59
31.08
30.18
28.56
26.00
22.57
18.58
14.52
10.90
8.08
6.16
4.95
4.04
2.93
1.19
-1.49
-5.11
-9.51
-14.32
-19.17
-23.84
-28.31
-32.79
-37.68
-43.35
-50.01
-57.54
-65.34
-72.39
-77.38
-79.10
-76.76
-70.33
-60.57
-48.83
-36.61
-25.18
-15.21
-6.82
0.32
6.66
12.53
18.04
23.10
27.62
31.57
35.08
38.27
41.28
44.05
46.45
48.35
49.70
50.67
51.51
52.36
53.20
53.73
53.57
52.40
50.15
47.02
43.47
39.89
36.64
33.87
31.62
29.85
28.47
27.43
26.62
25.88
24.92
23.39
20.93
17.26
12.32
6.33
-0.30
-7.05
-13.44
-19.20
-24.37
-29.20
-34.10
-39.52
-45.80
-52.99
-60.77
-68.25
-74.14
-77.05
-75.96
-70.59
-61.57
-50.21
-38.01
-26.25
-15.65
-6.45
1.42
8.10
13.73
18.44
22.34
25.67
28.65
31.43
34.07
36.55
38.80
40.80
42.54
44.06
45.41
46.56
47.41
47.77
47.47
46.37
44.41
41.79
38.78
35.78
33.05
30.69
28.55
26.36
23.81
20.74
17.15
13.32
9.59
6.26
3.46
1.05
-1.28
-3.91
-7.10
-10.96
-15.35
-20.01
-24.69
-29.20
-33.53
-37.82
-42.38
-47.66
-54.07
-61.82
-70.62
-79.48
-86.86
-90.98
-90.44
-84.73
-74.54
-61.47
-47.58
-34.69
-23.93
-15.55
-9.13
-3.89
0.84
5.46
10.15
14.83
19.39
23.74
27.82
31.61
35.00
37.93
40.29
42.16
43.68
45.09
46.52
47.89
48.94
49.25
48.48
46.55
43.68
40.33
37.08
34.44
32.73
31.99
32.03
32.40
32.51
31.77
29.74
26.33
21.76
16.52
11.05
5.52
-0.17
-6.45
-13.71
-22.11
-31.51
-41.44
-51.40
-61.00
-70.31
-79.77
-90.20
-102.37
-116.64
-132.51
-148.45
-162.03
-170.39
-170.86
-161.71
-142.60
-114.74
-80.80
-44.45
-9.67
19.97
42.11
56.02
62.71
64.45
64.13
64.37
66.81
72.01
79.44
88.03
96.53
104.00
109.85
113.75
115.52
115.08
112.56
108.41
103.50
98.70
94.56
90.97
87.08
81.70
73.93
63.63
51.50
38.78
26.57
15.46
5.35
-4.28
-13.89
-23.58
-32.98
-41.46
-48.50
-53.93
-58.08
-61.61
-65.25
-69.47
-74.41
-79.93
-85.80
-91.79
-97.76
-103.40
-108.12
-111.04
-111.07
-107.40
-99.71
-88.47
-74.74
-59.93
-45.41
-32.11
-20.40
-10.13
-0.88
7.68
15.70
22.96
29.08
33.76
36.97
39.01
40.30
41.29
42.17
42.90
43.34
43.35
42.91
42.15
41.14
39.93
38.40
36.44
34.09
31.49
28.91
26.47
24.07
21.36
17.88
13.42
8.14
2.71
-1.84
-4.41
-4.25
-1.33
3.39
8.05
10.27
7.89
-0.32
-14.24
-32.45
-52.73
-72.78
-90.83
-105.93
-118.14
-128.12
-136.70
-144.21
-149.99
-152.28
-148.67
-136.87
-115.76
-86.14
-50.76
-13.63
21.06
50.21
72.33
87.62
97.31
102.87
105.32
105.13
102.58
98.28
93.53
90.08
89.49
92.34
97.92
104.51
110.26
113.91
115.07
114.12
111.70
108.44
104.80
101.27
98.45
97.03
97.58
100.34
105.23
111.90
119.90
128.57
136.96
143.75
147.46
146.83
141.27
131.14
117.52
101.88
85.66
70.00
55.75
43.53
33.78
26.77
22.50
20.68
20.70
21.82
23.24
24.18
23.94
21.99
18.16
12.71
6.38
0.18
-4.94
-8.43
-10.33
-11.08
-11.33
-11.58
-11.96
-12.30
-12.23
-11.39
-9.62
-6.99
-3.80
-0.46
2.68
5.43
7.83
10.04
12.28
14.58
16.77
18.64
19.98
20.70
20.86
20.57
19.81
18.38
16.00
12.38
7.52
1.68
-4.66
-11.02
-17.11
-22.91
-28.58
-34.28
-40.04
-45.70
-51.07
-56.06
-60.75
-65.36
-70.12
-75.09
-80.05
-84.53
-87.96
-89.76
-89.59
-87.39
-83.41
-78.19
-72.38
-66.60
-61.28
-56.60
-52.51
-48.83
-45.32
-41.79
-38.18
-34.53
-30.98
-27.70
-24.86
-22.49
-20.55
-18.81
-17.03
-15.02
-12.78
-10.45
-8.32
-6.67
-5.65
-5.20
-5.17
-5.25
-5.17
-4.79
-4.08
-3.18
-2.33
-1.75
-1.55
-1.70
-2.09
-2.65
-3.39
-4.43
-6.01
-8.17
-10.86
-13.78
-16.64
-19.19
-21.36
-23.23
-24.92
-26.42
-27.63
-28.42
-28.63
-28.23
-27.30
-26.00
-24.57
-23.19
-22.04
-21.18
-20.59
-20.26
-20.17
-20.35
-20.81
-21.38
-21.78
-21.60
-20.55
-18.63
-16.17
-13.66
-11.60
-10.14
-9.20
-8.45
-7.62
-6.61
-5.49
-4.44
-3.62
-3.10
-2.85
-2.78
-2.82
-2.89
-2.97
-3.01
-2.94
-2.67
-2.19
-1.47
-0.57
0.39
1.29
2.04
2.58
2.95
3.20
3.38
3.53
3.63
3.62
3.45
3.10
2.59
2.02
1.57
1.43
1.69
2.38
3.31
4.18
4.61
4.30
3.08
1.06
-1.49
-4.20
-6.73
-8.85
-10.43
-11.46
-11.93
-11.88
-11.38
-10.56
-9.61
-8.69
-7.86
-7.12
-6.34
-5.41
-4.27
-3.03
-1.89
-0.99
-0.42
-0.11
0.14
0.51
1.07
1.76
2.34
2.56
2.30
1.54
0.41
-0.88
-2.14
-3.27
-4.28
-5.32
-6.58
-8.20
-10.14
-12.19
-14.01
-15.29
-15.91
-16.15
-16.50
-17.49
-19.34
-21.89
-24.63
-26.98
-28.55
-29.24
-29.26
-28.96
-28.73
-29.02
-30.50
-33.90
-39.95
-48.73
-59.64
-71.53
-83.27
-94.17
-104.32
-114.52
-125.59
-138.14
-151.94
-166.10
-179.94
-193.51
-207.70
-223.88
-243.19
-265.86
-291.18
-317.07
-340.54
-359.16
-371.46
-376.86
-375.51
-368.01
-355.28
-338.96
-320.33
-299.86
-277.98
-254.77
-229.80
-202.62
-173.00
-140.57
-104.69
-62.88
-11.33
51.51
123.20
197.14
264.32
316.78
355.02
381.15
396.23
406.74
418.29
431.33
442.66
447.91
443.50
427.23
397.31
353.49
298.02
235.08
171.21
114.16
70.28
41.94
26.49
17.09
6.55
-9.69
-33.26
-63.23
-97.18
-132.76
-168.13
-201.76
-232.14
-257.20
-274.75
-283.90
-285.46
-281.31
-273.89
-265.15
-256.03
-246.51
-235.77
-222.73
-207.04
-189.32
-170.90
-153.28
-137.42
-123.43
-110.61
-97.69
-83.53
-67.67
-50.61
-33.52
-17.74
-4.12
7.28
17.26
27.02
37.63
49.50
62.21
74.80
86.28
96.22
104.95
113.44
122.97
134.52
148.43
164.32
181.06
196.87
209.56
216.97
217.59
211.55
200.94
189.64
182.21
182.10
190.20
204.41
220.48
233.84
241.47
242.88
239.79
234.91
230.50
227.72
226.85
228.01
231.67
238.53
248.49
259.81
269.06
272.17
266.21
250.83
228.30
202.54
177.55
156.38
140.80
131.42
127.83
128.49
130.63
130.69
125.41
113.17
94.77
73.06
51.60
33.07
18.45
7.19
-1.83
-9.41
-15.72
-20.64
-24.24
-26.99
-29.63
-32.87
-37.02
-41.81
-46.55
-50.37
-52.62
-53.07
-51.98
-49.99
-47.77
-45.77
-44.06
-42.38
-40.38
-37.80
-34.71
-31.37
-28.22
-25.53
-23.36
-21.53
-19.74
-17.74
-15.47
-13.09
-10.84
-8.98
-7.68
-6.92
-6.57
-6.45
-6.37
-6.21
-5.95
-5.65
-5.45
-5.54
-6.01
-6.85
-7.87
-8.87
-9.65
-10.14
-10.39
-10.57
-10.93
-11.61
-12.68
-14.05
-15.62
-17.25
-18.86
-20.41
-21.88
-23.25
-24.50
-25.68
-26.90
-28.22
-29.72
-31.35
-32.92
-34.19
-34.88
-34.72
-33.58
-31.51
-28.64
-25.25
-21.64
-18.04
-14.62
-11.50
-8.73
-6.41
-4.64
-3.43
-2.72
-2.30
-1.89
-1.29
-0.44
0.53
1.42
2.06
2.42
2.52
2.46
2.26
1.88
1.26
0.40
-0.62
-1.64
-2.51
-3.23
-3.91
-4.72
-5.81
-7.18
-8.71
-10.20
-11.47
-12.39
-12.99
-13.36
-13.57
-13.74
-13.95
-14.28
-14.77
-15.41
-16.19
-17.05
-17.98
-18.92
-19.86
-20.69
-21.29
-21.47
-21.08
-20.07
-18.54
-16.71
-14.80
-12.89
-10.88
-8.52
-5.58
-2.06
1.69
5.06
7.38
8.18
7.36
5.12
1.93
-1.62
-4.80
-6.76
-6.75
-4.60
-1.01
2.49
3.96
2.06
-3.31
-10.86
-18.42
-24.02
-26.63
-26.59
-25.06
-23.42
-22.57
-22.81
-24.07
-26.12
-28.79
-31.79
-34.62
-36.38
-36.10
-32.96
-26.77
-18.05
-7.99
1.92
10.36
16.56
20.46
22.49
23.32
23.45
23.02
21.86
19.70
16.47
12.45
8.29
4.70
2.29
1.27
1.40
2.17
3.06
3.83
4.51
5.34
6.43
7.57
8.28
8.04
6.70
4.54
2.24
0.47
-0.46
-0.70
-0.74
-1.03
-1.77
-2.81
-3.80
-4.41
-4.49
-4.03
-3.12
-1.90
-0.54
0.68
1.54
1.82
1.52
0.82
0.02
-0.56
-0.78
-0.62
-0.24
0.18
0.50
0.69
0.75
0.63
0.24
-0.52
-1.63
-2.96
-4.25
-5.31
-6.08
-6.67
-7.32
-8.16
-9.18
-10.15
-10.79
-10.92
-10.50
-9.67
-8.63
-7.58
-6.64
-5.89
-5.33
-4.93
-4.59
-4.12
-3.42
-2.40
-1.21
-0.14
0.49
0.46
-0.25
-1.44
-2.78
-3.93
-4.60
-4.65
-4.08
-3.06
-1.82
-0.59
0.47
1.35
2.10
2.80
3.44
3.90
4.02
3.71
3.03
2.16
1.32
0.68
0.23
-0.17
-0.69
-1.49
-2.61
-3.96
-5.32
-6.41
-6.93
-6.66
-5.57
-3.84
-1.87
-0.12
1.05
1.53
1.45
1.10
0.79
0.69
0.84
1.13
1.39
1.45
1.17
0.54
-0.38
-1.40
-2.36
-3.12
-3.67
-4.10
-4.51
-4.95
-5.36
-5.58
-5.43
-4.85
-3.90
-2.76
-1.61
-0.51
0.50
1.49
2.58
4.02
6.23
9.79
15.30
23.11
33.08
44.35
55.59
65.37
72.70
77.46
80.41
82.84
85.91
90.20
95.41
100.58
104.54
106.29
105.19
100.87
93.06
81.78
67.66
52.34
38.16
27.31
20.57
16.71
12.88
6.15
-4.87
-19.17
-33.93
-46.27
-54.80
-60.23
-64.53
-69.37
-74.97
-79.99
-82.60
-81.84
-78.25
-73.66
-70.04
-68.53
-68.90
-69.83
-69.79
-67.78
-63.83
-58.77
-53.78
-49.69
-46.69
-44.38
-42.08
-39.28
-35.92
-32.34
-29.08
-26.50
-24.68
-23.39
-22.26
-20.95
-19.33
-17.46
-15.52
-13.81
-12.52
-11.72
-11.32
-11.05
-10.61
-9.81
-8.71
-7.58
-6.79
-6.56
-6.83
-7.27
-7.54
-7.45
-7.12
-6.86
-6.93
-7.35
-7.82
-7.89
-7.23
-5.86
-4.09
-2.40
-1.21
-0.65
-0.55
-0.59
-0.38
0.28
1.39
2.70
3.80
4.39
4.31
3.70
2.91
2.26
2.00
2.12
2.42
2.66
2.68
2.47
2.11
1.73
1.41
1.17
0.97
0.82
0.72
0.78
1.08
1.74
2.72
3.90
5.00
5.70
5.84
5.40
4.64
3.91
3.47
3.41
3.57
3.71
3.63
3.27
2.69
1.99
1.25
0.51
-0.27
-1.04
-1.76
-2.33
-2.68
-2.78
-2.66
-2.32
-1.82
-1.19
-0.44
0.39
1.20
1.96
2.63
3.20
3.60
3.74
3.55
2.98
2.12
1.25
0.69
0.72
1.45
2.70
4.12
5.34
6.14
6.56
6.74
6.87
6.95
6.86
6.46
5.72
4.79
3.92
3.28
2.95
2.75
2.42
1.82
0.97
0.09
-0.53
-0.71
-0.48
-0.02
0.39
0.53
0.34
-0.16
-0.92
-1.88
-3.07
-4.44
-5.92
-7.24
-8.15
-8.39
-7.89
-6.79
-5.41
-4.04
-2.98
-2.30
-1.88
-1.53
-1.07
-0.48
0.13
0.58
0.79
0.83
0.86
1.04
1.38
1.71
1.84
1.71
1.46
1.33
1.52
2.03
2.65
3.06
3.02
2.50
1.68
0.89
0.46
0.51
0.94
1.51
1.87
1.77
1.17
0.21
-0.80
-1.58
-1.98
-2.06
-2.00
-2.04
-2.29
-2.71
-3.17
-3.47
-3.56
-3.53
-3.57
-3.90
-4.65
-5.77
-7.13
-8.49
-9.68
-10.60
-11.23
-11.54
-11.61
-11.48
-11.30
-11.22
-11.35
-11.69
-12.06
-12.23
-11.96
-11.13
-9.80
-8.18
-6.47
-4.72
-2.80
-0.27
3.41
8.71
15.77
24.24
33.39
42.26
50.09
56.53
61.76
66.21
70.33
74.25
77.72
80.20
81.10
79.97
76.63
71.21
64.05
55.82
47.32
39.33
32.38
26.53
21.33
16.08
10.10
3.09
-4.80
-13.06
-21.08
-28.39
-34.71
-39.96
-44.13
-47.29
-49.59
-51.27
-52.66
-54.05
-55.49
-56.84
-57.79
-57.99
-57.16
-55.25
-52.40
-48.92
-45.16
-41.40
-37.81
-34.46
-31.35
-28.52
-25.98
-23.79
-21.93
-20.28
-18.62
-16.83
-14.90
-12.99
-11.32
-10.06
-9.18
-8.50
-7.76
-6.86
-5.87
-4.95
-4.27
-3.93
-3.90
-4.07
-4.28
-4.41
-4.33
-3.98
-3.36
-2.58
-1.91
-1.59
-1.77
-2.37
-3.17
-3.90
-4.38
-4.58
-4.63
-4.62
-4.64
-4.72
-4.89
-5.18
-5.58
-6.02
-6.29
-6.18
-5.62
-4.72
-3.73
-2.90
-2.33
-1.92
-1.51
-0.96
-0.24
0.56
1.29
1.87
2.28
2.57
2.80
3.07
3.43
3.95
4.58
5.22
5.69
5.81
5.44
4.64
3.56
2.40
1.39
0.68
0.35
0.44
0.88
1.52
2.21
2.72
2.92
2.73
2.16
1.29
0.24
-0.81
-1.69
-2.24
-2.40
-2.26
-2.03
-1.95
-2.15
-2.58
-2.99
-3.06
-2.60
-1.68
-0.57
0.35
0.84
0.87
0.61
0.27
-0.04
-0.30
-0.54
-0.77
-0.87
-0.69
-0.15
0.72
1.80
2.89
3.90
4.77
5.50
6.09
6.49
6.68
6.75
6.82
6.93
7.08
7.15
6.97
6.43
5.58
4.51
3.34
2.16
0.98
-0.21
-1.41
-2.63
-3.88
-5.15
-6.38
-7.43
-8.05
-8.07
-7.37
-6.11
-4.54
-2.98
-1.67
-0.70
-0.03
0.37
0.53
0.51
0.28
-0.10
-0.61
-1.23
-1.95
-2.75
-3.63
-4.51
-5.28
-5.82
-6.04
-5.87
-5.38
-4.66
-3.88
-3.19
-2.64
-2.22
-1.80
-1.22
-0.43
0.47
1.33
1.89
1.98
1.52
0.55
-0.76
-2.13
-3.32
-4.21
-4.77
-5.16
-5.64
-6.46
-7.69
-9.23
-10.81
-12.09
-12.83
-12.98
-12.67
-12.13
-11.63
-11.41
-11.68
-12.49
-13.65
-14.75
-15.21
-14.53
-12.56
-9.72
-6.83
-4.78
-3.99
-4.21
-4.57
-3.95
-1.57
2.78
8.74
15.68
23.06
30.69
38.71
47.42
56.99
67.23
77.56
87.05
94.68
99.57
101.04
98.77
92.77
83.63
72.50
61.14
51.48
44.87
41.55
40.21
38.65
34.64
27.04
16.22
3.81
-8.27
-18.77
-27.40
-34.60
-40.85
-46.11
-49.82
-51.32
-50.55
-48.15
-45.35
-43.30
-42.52
-42.68
-42.91
-42.37
-40.71
-38.24
-35.62
-33.57
-32.37
-31.75
-31.21
-30.15
-28.32
-25.80
-23.03
-20.45
-18.41
-16.99
-16.07
-15.38
-14.64
-13.62
-12.21
-10.43
-8.49
-6.73
-5.54
-5.22
-5.80
-6.94
-8.14
-8.83
-8.72
-7.78
-6.28
-4.55
-2.80
-1.15
0.39
1.78
2.92
3.72
4.15
4.33
4.37
4.42
4.46
4.40
4.16
3.77
3.33
2.97
2.67
2.31
1.74
0.85
-0.29
-1.45
-2.39
-2.94
-3.06
-2.73
-2.01
-0.98
0.22
1.39
2.35
2.93
3.12
2.96
2.53
1.86
0.99
0.04
-0.91
-1.67
-2.13
-2.28
-2.19
-1.95
-1.63
-1.30
-1.09
-1.12
-1.43
-1.93
-2.32
-2.32
-1.77
-0.81
0.25
1.09
1.51
1.67
1.82
2.19
2.78
3.36
3.65
3.53
3.07
2.48
2.05
1.85
1.84
1.85
1.76
1.58
1.47
1.62
2.10
2.88
3.70
4.32
4.52
4.27
3.69
2.94
2.16
1.44
0.76
0.14
-0.37
-0.65
-0.66
-0.42
-0.07
0.15
0.07
-0.35
-0.99
-1.60
-1.85
-1.58
-0.77
0.33
1.38
2.03
2.10
1.66
0.96
0.32
-0.03
-0.10
-0.07
-0.22
-0.75
-1.71
-2.97
-4.30
-5.46
-6.23
-6.46
-6.03
-4.92
-3.20
-1.13
0.96
2.66
3.72
4.07
3.92
3.60
3.43
3.53
3.83
4.07
4.00
3.52
2.75
1.92
1.27
0.86
0.58
0.23
-0.30
-0.93
-1.39
-1.40
-0.82
0.22
1.40
2.36
2.89
2.97
2.81
2.61
2.55
2.72
3.12
3.71
4.48
5.32
6.08
6.53
6.46
5.75
4.44
2.78
1.02
-0.55
-1.89
-3.03
-4.07
-5.01
-5.76
-6.15
-6.07
-5.53
-4.71
-3.84
-3.10
-2.48
-1.92
-1.34
-0.78
-0.42
-0.45
-0.93
-1.71
-2.45
-2.81
-2.61
-1.93
-0.98
-0.05
0.73
1.35
1.85
2.25
2.48
2.42
2.02
1.39
0.71
0.11
-0.33
-0.72
-1.24
-1.93
-2.75
-3.46
-3.76
-3.45
-2.52
-1.14
0.35
1.58
2.35
2.64
2.62
2.61
2.77
3.19
3.71
4.04
3.97
3.40
2.42
1.22
-0.01
-1.19
-2.24
-3.11
-3.67
-3.79
-3.32
-2.30
-0.92
0.54
1.75
2.56
3.00
3.22
3.39
3.62
3.90
4.13
4.19
3.98
3.50
2.84
2.11
1.47
1.02
0.77
0.67
0.65
0.67
0.72
0.78
0.83
0.80
0.62
0.31
-0.04
-0.28
-0.32
-0.25
-0.25
-0.50
-1.07
-1.81
-2.48
-2.86
-2.83
-2.55
-2.16
-1.87
-1.76
-1.84
-2.02
-2.26
-2.58
-3.04
-3.71
-4.58
-5.53
-6.38
-6.91
-6.98
-6.59
-5.87
-5.04
-4.33
-3.90
-3.79
-3.90
-3.99
-3.80
-3.17
-2.14
-0.91
0.25
1.17
1.85
2.49
3.31
4.36
5.53
6.51
7.04
6.99
6.48
5.77
5.13
4.71
4.49
4.39
4.29
4.11
3.84
3.48
3.02
2.41
1.63
0.63
-0.45
-1.43
-2.05
-2.14
-1.69
-0.90
-0.13
0.25
0.01
-0.74
-1.68
-2.34
-2.40
-1.77
-0.69
0.41
1.16
1.37
1.16
0.77
0.47
0.44
0.63
0.96
1.26
1.45
1.44
1.15
0.52
-0.43
-1.61
-2.85
-3.92
-4.65
-4.97
-4.95
-4.70
-4.31
-3.79
-3.15
-2.33
-1.35
-0.34
0.56
1.19
1.52
1.70
2.02
2.76
4.04
5.71
7.37
8.57
9.03
8.75
8.00
7.17
6.57
6.33
6.37
6.55
6.78
7.03
7.29
7.51
7.55
7.20
6.36
5.02
3.31
1.42
-0.50
-2.44
-4.44
-6.54
-8.66
-10.54
-11.88
-12.54
-12.56
-12.19
-11.71
-11.14
-10.31
-8.90
-6.82
-4.37
-2.13
-0.79
-0.68
-1.64
-3.07
-4.35
-5.23
-5.95
-7.08
-9.12
-12.17
-15.85
-19.50
-22.40
-24.14
-24.66
-24.28
-23.41
-22.45
-21.53
-20.58
-19.32
-17.52
-15.15
-12.52
-10.10
-8.37
-7.53
-7.34
-7.34
-7.14
-6.56
-5.81
-5.32
-5.35
-5.94
-6.89
-7.87
-8.74
-9.56
-10.59
-12.02
-13.89
-15.97
-18.10
-20.17
-22.34
-24.93
-28.23
-32.33
-37.01
-41.81
-46.24
-49.98
-52.99
-55.56
-58.21
-61.38
-65.22
-69.49
-73.48
-76.34
-77.38
-76.46
-74.13
-71.46
-69.45
-68.62
-68.71
-68.77
-67.70
-64.79
-60.10
-54.33
-48.47
-43.40
-39.70
-37.73
-37.62
-39.03
-40.62
-39.98
-34.35
-21.96
-3.42
17.96
37.25
50.05
54.46
51.68
45.11
38.31
33.34
30.35
28.30
26.27
24.32
23.27
24.00
26.69
30.66
34.72
37.87
39.65
40.34
40.65
41.38
42.92
45.07
47.10
47.99
46.81
43.13
37.17
29.70
21.79
14.43
8.41
4.27
2.28
2.56
4.97
9.15
14.54
20.47
26.42
32.00
36.93
40.98
43.83
45.23
45.13
43.81
41.92
40.36
39.88
40.72
42.45
43.95
43.76
40.58
33.73
23.28
10.03
-4.82
-19.79
-33.39
-44.18
-50.98
-53.23
-51.20
-46.04
-39.50
-33.32
-28.68
-25.93
-24.78
-24.71
-25.42
-26.94
-29.39
-32.76
-36.69
-40.66
-44.09
-46.76
-48.79
-50.61
-52.77
-55.70
-59.61
-64.41
-69.75
-74.93
-79.09
-81.31
-80.91
-77.61
-71.70
-63.94
-55.17
-46.08
-36.98
-27.86
-18.58
-9.17
0.08
8.71
16.38
22.95
28.60
33.69
38.59
43.51
48.53
53.60
58.73
63.98
69.41
74.93
80.22
84.66
87.52
88.14
86.22
81.89
75.68
68.36
60.71
53.33
46.62
40.75
35.75
31.52
27.84
24.33
20.60
16.34
11.45
6.08
0.50
-4.97
-10.22
-15.35
-20.71
-26.70
-33.73
-41.93
-51.06
-60.35
-68.53
-74.13
-75.81
-72.93
-65.73
-55.38
-43.46
-31.39
-19.98
-9.17
1.64
13.14
25.58
38.57
51.08
61.94
70.26
75.90
79.52
82.33
85.67
90.48
96.99
104.69
112.62
119.82
125.73
130.46
134.73
139.61
146.18
155.35
167.50
182.27
198.40
213.64
225.02
229.57
225.17
211.25
189.05
160.99
129.78
97.40
64.84
32.37
0.27
-30.58
-58.63
-82.05
-99.47
-110.57
-116.19
-118.10
-118.38
-118.63
-119.51
-120.42
-119.90
-116.36
-108.87
-97.79
-84.68
-71.65
-60.34
-51.30
-43.73
-35.92
-26.05
-12.76
4.27
24.11
44.53
62.29
73.82
76.14
67.97
50.33
26.51
1.26
-20.59
-35.36
-41.27
-38.64
-29.37
-16.35
-2.77
8.53
15.55
17.53
15.05
9.81
4.00
-0.41
-2.21
-1.25
1.68
5.21
7.86
8.50
6.66
2.60
-2.79
-8.29
-12.75
-15.52
-16.70
-17.08
-17.87
-20.14
-24.34
-29.88
-35.21
-38.26
-37.03
-30.23
-17.49
0.65
22.99
47.87
73.20
96.43
114.74
125.52
127.06
119.20
103.34
82.04
58.12
34.02
11.40
-8.69
-25.58
-38.77
-48.07
-53.86
-57.04
-58.86
-60.40
-62.24
-64.34
-66.24
-67.51
-67.96
-67.73
-67.11
-66.38
-65.54
-64.47
-62.95
-60.79
-57.92
-54.37
-50.37
-46.27
-42.58
-39.70
-37.80
-36.61
-35.42
-33.42
-30.01
-25.11
-19.27
-13.43
-8.45
-4.75
-2.01
0.75
4.70
10.83
19.52
30.48
43.01
56.34
69.85
83.16
95.79
106.85
114.97
118.54
116.22
107.44
92.53
72.56
49.01
23.48
-2.41
-26.90
-48.13
-64.45
-74.86
-79.45
-79.54
-77.28
-75.01
-74.49
-76.43
-80.51
-85.69
-90.75
-94.60
-96.47
-95.92
-92.82
-87.45
-80.54
-73.14
-66.30
-60.59
-55.79
-50.96
-44.93
-37.01
-27.48
-17.56
-9.02
-3.48
-1.90
-4.36
-9.96
-16.83
-22.17
-22.53
-14.62
3.52
31.45
66.00
102.10
134.48
159.48
176.04
185.56
190.79
194.37
197.90
201.74
205.41
208.28
210.07
210.88
211.09
211.06
210.90
210.45
209.26
206.89
202.91
196.94
188.42
176.41
159.55
136.66
107.79
74.97
42.26
14.46
-4.93
-15.41
-20.04
-24.26
-33.54
-50.94
-76.12
-105.80
-135.59
-161.81
-182.42
-196.93
-205.64
-209.02
-207.59
-202.20
-194.27
-185.61
-177.81
-171.68
-166.89
-162.22
-156.15
-147.62
-136.48
-123.45
-109.82
-96.99
-86.07
-77.72
-72.04
-68.66
-66.97
-66.35
-66.40
-66.97
-68.15
-70.02
-72.54
-75.50
-78.65
-81.90
-85.45
-89.76
-95.34
-102.46
-110.80
-119.52
-127.46
-133.39
-136.38
-135.74
-131.05
-121.98
-108.20
-89.50
-65.98
-38.23
-7.53
24.36
55.43
83.86
108.21
127.59
141.57
150.10
153.38
151.85
146.08
136.73
124.53
110.21
94.59
78.67
63.60
50.64
40.87
34.83
32.30
32.34
33.52
34.50
34.37
32.90
30.52
27.94
25.75
24.08
22.48
20.12
16.20
10.38
3.08
-4.56
-11.01
-14.92
-15.57
-13.04
-8.17
-2.04
4.34
10.22
15.06
18.21
18.96
16.65
11.16
3.30
-5.12
-11.84
-14.84
-13.10
-7.01
1.93
11.61
20.03
25.87
28.67
28.69
26.73
23.73
20.63
18.15
16.75
16.56
17.43
19.06
21.17
23.68
26.66
30.24
34.28
38.24
41.30
42.73
42.49
41.52
41.49
43.99
49.48
56.72
63.03
65.35
61.64
51.92
38.34
24.27
12.92
6.22
4.37
6.25
10.32
15.28
20.53
25.87
31.12
35.65
38.42
38.21
34.15
26.18
15.20
2.93
-8.74
-18.23
-24.78
-28.48
-30.07
-30.32
-29.70
-28.24
-25.71
-22.10
-17.85
-13.98
-11.64
-11.74
-14.47
-19.26
-24.99
-30.41
-34.49
-36.70
-36.91
-35.37
-32.49
-28.70
-24.37
-19.87
-15.60
-12.13
-10.07
-9.86
-11.43
-14.08
-16.50
-17.21
-15.10
-9.89
-2.35
5.92
12.96
17.12
17.47
14.07
7.97
0.68
-6.14
-11.25
-14.11
-14.77
-13.72
-11.57
-8.90
-6.32
-4.36
-3.53
-4.11
-5.97
-8.52
-10.83
-11.98
-11.49
-9.52
-6.90
-4.82
-4.36
-6.01
-9.39
-13.30
-16.11
-16.39
-13.37
-7.21
1.18
10.46
19.29
26.64
31.92
35.02
36.17
35.88
34.81
33.60
32.83
32.93
34.08
36.11
38.36
39.72
38.82
34.64
26.97
16.68
5.47
-4.76
-12.64
-17.82
-20.99
-23.53
-26.87
-32.06
-39.43
-48.66
-58.92
-69.16
-78.33
-85.43
-89.65
-90.22
-86.54
-78.29
-65.68
-49.68
-31.94
-14.49
0.83
12.86
21.34
26.84
30.31
32.71
34.74
36.75
38.87
41.15
43.59
46.15
48.67
50.90
52.49
53.21
52.97
51.89
50.15
47.79
44.62
40.43
35.23
29.64
24.90
22.56
23.78
28.78
36.48
44.76
51.29
54.43
54.03
51.69
50.39
53.47
63.45
80.99
104.40
130.04
153.47
170.84
179.95
180.69
174.75
164.77
153.41
142.44
132.14
121.04
106.47
85.90
58.69
27.29
-2.95
-25.67
-36.48
-35.17
-26.24
-17.21
-15.69
-26.44
-49.80
-82.01
-117.10
-149.14
-173.76
-188.73
-193.37
-187.95
-173.49
-151.77
-125.70
-99.21
-76.39
-60.22
-51.57
-48.96
-49.66
-51.17
-52.43
-53.77
-55.86
-58.45
-60.08
-58.74
-53.03
-42.96
-29.90
-15.81
-2.42
9.13
18.25
24.57
27.78
28.03
26.15
23.57
21.79
21.45
22.03
22.17
20.62
17.10
12.52
8.40
5.90
5.28
5.87
6.70
7.11
6.97
6.31
5.02
2.67
-1.26
-6.92
-13.81
-20.97
-27.45
-32.82
-37.22
-41.12
-44.88
-48.47
-51.49
-53.42
-53.84
-52.60
-49.80
-45.72
-40.66
-35.01
-29.21
-23.76
-19.05
-15.27
-12.33
-9.87
-7.43
-4.63
-1.43
1.94
5.14
7.96
10.42
12.67
14.72
16.37
17.26
17.16
16.28
15.26
14.72
14.67
14.15
11.35
4.44
-7.18
-22.12
-37.10
-48.32
-53.16
-51.02
-43.23
-31.58
-16.74
2.16
26.29
54.83
83.34
104.64
111.89
102.34
79.17
49.96
22.47
0.52
-17.56
-36.68
-60.59
-88.71
-116.18
-136.69
-146.06
-143.98
-133.02
-116.46
-96.76
-75.75
-55.64
-39.23
-28.40
-22.36
-17.08
-6.96
11.77
38.41
67.50
91.14
102.65
99.40
83.27
59.35
33.90
12.48
-1.31
-6.35
-4.22
1.67
7.61
11.41
13.57
16.71
23.48
34.46
47.16
57.17
60.71
56.87
47.99
38.13
30.51
25.55
20.88
13.21
0.88
-14.62
-29.03
-37.49
-37.07
-28.19
-14.35
-0.18
10.57
15.95
15.69
10.04
-0.91
-16.93
-36.52
-56.22
-71.01
-76.12
-69.07
-50.95
-26.01
0.02
21.95
36.57
43.07
42.79
38.51
33.64
31.27
33.27
39.62
48.33
56.24
60.30
58.66
51.12
38.84
23.58
7.23
-8.36
-21.35
-30.18
-34.05
-33.48
-30.40
-27.56
-27.57
-31.84
-40.18
-51.17
-62.83
-73.50
-82.24
-88.77
-93.07
-94.95
-94.03
-89.93
-82.69
-73.03
-62.28
-51.98
-43.43
-37.28
-33.45
-31.30
-29.97
-28.69
-26.91
-24.34
-20.96
-16.91
-12.56
-8.51
-5.46
-4.10
-4.77
-7.16
-10.05
-11.37
-8.60
0.27
15.79
36.39
58.48
77.64
90.07
94.04
90.27
81.48
71.00
61.50
54.17
48.84
44.58
40.44
35.96
31.21
26.65
22.91
20.64
20.52
23.09
28.72
37.43
48.85
62.28
76.74
91.33
105.40
118.74
131.61
144.49
157.52
170.07
180.29
185.42
182.58
169.99
147.95
119.06
87.59
58.11
34.00
16.58
5.10
-2.52
-8.72
-15.55
-24.39
-35.96
-50.43
-67.32
-85.49
-103.15
-118.27
-129.18
-135.19
-136.66
-134.91
-131.59
-128.04
-125.08
-122.87
-121.24
-119.81
-118.11
-115.59
-111.62
-105.64
-97.42
-87.19
-75.72
-64.18
-53.75
-45.30
-39.07
-34.62
-30.97
-26.95
-21.58
-14.43
-5.77
3.51
12.27
19.44
24.39
27.01
27.55
26.44
24.15
21.14
17.95
15.20
13.51
13.25
14.40
16.51
18.77
20.42
20.96
20.31
18.71
16.64
14.51
12.62
11.07
9.81
8.73
7.57
5.96
3.26
-1.21
-8.03
-17.31
-28.41
-40.02
-50.36
-57.77
-61.20
-60.45
-56.14
-49.36
-41.29
-32.94
-25.14
-18.48
-13.43
-10.20
-8.67
-8.35
-8.53
-8.49
-7.69
-5.95
-3.35
-0.16
3.29
6.56
9.19
10.74
10.95
9.90
8.05
6.11
4.76
4.37
4.86
5.78
6.53
6.67
5.99
4.56
2.57
0.18
-2.48
-5.39
-8.60
-12.15
-16.13
-20.65
-25.83
-31.71
-38.11
-44.54
-50.13
-53.94
-55.28
-53.99
-50.72
-46.71
-43.22
-40.76
-38.65
-35.01
-27.48
-14.15
5.56
30.50
57.92
84.17
105.71
120.12
126.80
127.14
124.08
121.07
120.97
124.93
131.92
139.03
142.62
139.55
128.36
109.57
85.62
60.30
38.01
22.92
18.01
24.33
40.63
63.48
88.23
110.24
126.12
134.42
135.65
131.61
124.42
115.69
106.10
95.26
82.02
64.93
42.88
15.74
-15.29
-47.81
-78.84
-105.83
-127.50
-144.06
-156.86
-167.49
-176.84
-184.75
-190.26
-192.51
-191.60
-188.88
-186.47
-186.25
-188.88
-193.56
-198.40
-201.13
-199.61
-192.08
-177.19
-154.15
-122.99
-84.87
-41.70
4.22
50.93
96.91
140.73
180.26
212.29
232.90
238.78
229.14
206.99
179.14
154.44
140.74
141.77
155.47
174.39
188.52
189.11
172.00
138.82
95.80
50.99
11.35
-18.93
-38.56
-48.22
-49.62
-45.07
-37.33
-29.67
-25.23
-26.14
-32.59
-42.68
-53.07
-60.15
-61.31
-55.46
-43.06
-25.84
-6.43
11.78
24.98
29.53
22.90
4.56
-23.52
-57.26
-91.53
-121.56
-143.94
-157.07
-160.89
-156.30
-144.72
-127.78
-107.32
-85.53
-64.85
-47.95
-37.27
-34.62
-40.61
-54.38
-73.15
-92.24
-105.56
-106.82
-91.57
-59.20
-13.92
35.80
79.44
107.71
115.37
102.65
74.83
40.23
7.72
-15.63
-26.01
-23.39
-10.96
6.07
22.19
33.16
36.94
33.75
25.25
13.60
0.85
-11.23
-20.89
-26.44
-26.46
-20.60
-9.96
2.77
14.03
20.55
20.49
14.03
3.16
-9.30
-20.74
-29.50
-34.73
-35.85
-31.95
-21.93
-5.19
17.49
43.56
69.30
91.05
106.53
115.47
119.29
120.03
119.41
118.28
116.75
114.64
111.86
108.45
104.58
100.27
95.16
88.46
79.02
65.67
47.72
25.39
-0.03
-26.60
-52.25
-75.63
-96.38
-114.88
-131.61
-146.35
-157.97
-164.79
-165.36
-159.39
-147.95
-133.34
-118.24
-104.89
-94.44
-86.80
-81.04
-75.84
-70.24
-63.95
-57.42
-51.65
-47.68
-46.08
-46.45
-47.33
-46.62
-42.33
-33.43
-20.27
-4.33
12.35
28.19
42.39
54.96
66.21
76.19
84.51
90.50
93.65
93.96
91.94
88.42
84.08
79.25
73.78
67.36
59.75
51.01
41.64
32.40
23.98
16.70
10.31
4.11
-2.68
-10.49
-19.12
-27.79
-35.61
-41.91
-46.55
-49.68
-51.55
-52.09
-50.96
-47.77
-42.51
-35.84
-28.96
-23.24
-19.64
-18.21
-18.12
-17.99
-16.46
-12.80
-7.19
-0.58
5.72
10.63
13.71
15.26
16.07
16.97
18.38
20.16
21.73
22.45
21.90
20.13
17.57
14.78
12.23
10.11
8.35
6.74
5.11
3.44
1.78
0.26
-1.03
-2.07
-2.97
-3.96
-5.29
-7.22
-9.90
-13.35
-17.46
-21.99
-26.63
-30.99
-34.59
-36.94
-37.58
-36.29
-33.13
-28.52
-23.09
-17.48
-12.15
-7.30
-2.96
0.91
4.36
7.39
10.05
12.42
14.67
16.91
19.16
21.30
23.20
24.73
25.88
26.76
27.58
28.54
29.76
31.20
32.73
34.08
35.00
35.27
34.77
33.45
31.34
28.55
25.33
22.10
19.31
17.32
16.17
15.62
15.17
14.35
12.87
10.71
8.01
4.90
1.41
-2.54
-7.00
-11.94
-17.21
-22.57
-27.82
-32.72
-36.97
-40.12
-41.63
-41.05
-38.22
-33.47
-27.63
-21.80
-16.97
-13.66
-11.75
-10.53
-9.09
-6.64
-2.88
1.93
7.16
12.05
16.03
18.85
20.57
21.37
21.46
20.97
20.01
18.80
17.67
16.98
17.01
17.75
18.86
19.74
19.79
18.63
16.33
13.30
10.13
7.26
4.83
2.62
0.33
-2.24
-5.02
-7.65
-9.71
-10.94
-11.36
-11.29
-11.19
-11.49
-12.48
-14.32
-17.09
-20.81
-25.43
-30.67
-35.99
-40.60
-43.67
-44.59
-43.20
-39.82
-35.10
-29.77
-24.44
-19.41
-14.78
-10.47
-6.37
-2.39
1.48
5.20
8.64
11.62
13.98
15.64
16.61
17.05
17.18
17.23
17.47
18.09
19.24
20.87
22.79
24.69
26.21
27.04
27.10
26.45
25.28
23.79
22.16
20.50
18.85
17.18
15.42
13.44
11.18
8.63
5.86
2.99
0.08
-2.86
-5.88
-9.00
-12.12
-15.08
-17.78
-20.21
-22.57
-25.18
-28.34
-32.25
-36.94
-42.21
-47.70
-52.87
-57.08
-59.71
-60.32
-58.76
-55.31
-50.49
-44.92
-39.10
-33.40
-28.06
-23.30
-19.43
-16.69
-15.19
-14.65
-14.41
-13.52
-11.00
-6.10
1.30
10.61
20.63
29.90
37.13
41.66
43.61
43.75
43.06
42.38
42.02
41.84
41.38
40.23
38.23
35.50
32.40
29.34
26.64
24.43
22.67
21.24
19.97
18.73
17.40
15.90
14.06
11.68
8.57
4.65
0.00
-5.07
-10.15
-14.83
-18.92
-22.49
-25.90
-29.62
-33.98
-38.96
-44.16
-48.78
-51.91
-52.76
-50.94
-46.55
-40.16
-32.65
-24.92
-17.62
-11.12
-5.42
-0.38
4.22
8.56
12.66
16.50
19.96
22.87
25.12
26.63
27.43
27.61
27.44
27.21
27.23
27.66
28.49
29.50
30.36
30.71
30.37
29.38
27.94
26.35
24.87
23.59
22.49
21.51
20.63
19.82
19.02
18.16
17.11
15.78
14.12
12.14
9.77
7.02
3.80
0.18
-3.69
-7.57
-11.21
-14.53
-17.64
-20.78
-24.21
-28.07
-32.38
-37.02
-41.84
-46.59
-50.82
-53.92
-55.18
-54.00
-50.12
-43.83
-35.92
-27.46
-19.46
-12.55
-6.93
-2.35
1.57
5.16
8.57
11.81
14.81
17.55
20.04
22.33
24.39
26.14
27.49
28.38
28.87
29.15
29.41
29.84
30.51
31.37
32.19
32.62
32.32
31.08
28.97
26.38
23.91
22.08
21.18
21.04
21.20
21.08
20.21
18.39
15.70
12.38
8.66
4.75
0.79
-3.10
-6.76
-10.07
-12.99
-15.60
-18.14
-20.89
-24.08
-27.83
-32.00
-36.23
-39.96
-42.46
-43.04
-41.26
-37.07
-30.91
-23.64
-16.31
-9.85
-4.75
-1.02
1.71
3.99
6.18
8.44
10.66
12.68
14.44
15.98
17.48
19.07
20.75
22.38
23.75
24.70
25.22
25.44
25.54
25.64
25.72
25.67
25.33
24.56
23.36
21.81
20.06
18.26
16.44
14.56
12.51
10.21
7.66
4.97
2.26
-0.34
-2.87
-5.44
-8.20
-11.26
-14.60
-18.10
-21.64
-25.27
-29.10
-33.37
-38.25
-43.68
-49.30
-54.50
-58.52
-60.63
-60.32
-57.41
-52.09
-44.93
-36.81
-28.62
-21.13
-14.70
-9.32
-4.66
-0.29
4.13
8.71
13.36
17.83
21.89
25.34
28.06
30.02
31.23
31.76
31.80
31.64
31.55
31.72
32.11
32.47
32.38
31.53
29.78
27.30
24.47
21.72
19.34
17.35
15.57
13.70
11.44
8.59
5.05
0.86
-3.78
-8.48
-12.67
-15.67
-16.91
-16.11
-13.63
-10.36
-7.59
-6.52
-7.82
-11.38
-16.46
-22.05
-27.39
-32.24
-36.88
-41.80
-47.39
-53.55
-59.77
-65.21
-69.04
-70.71
-70.08
-67.41
-63.25
-58.18
-52.66
-46.91
-40.91
-34.48
-27.35
-19.31
-10.34
-0.69
9.18
18.57
26.77
33.21
37.65
40.20
41.36
41.73
41.94
42.39
43.21
44.33
45.51
46.53
47.23
47.56
47.58
47.40
47.13
46.81
46.44
45.93
45.14
43.90
42.03
39.42
36.10
32.28
28.35
24.82
22.14
20.57
20.08
20.32
20.65
20.36
18.89
15.96
11.71
6.58
1.21
-3.82
-8.21
-12.05
-15.77
-19.94
-25.08
-31.43
-38.84
-46.73
-54.17
-60.03
-63.33
-63.39
-60.14
-54.10
-46.21
-37.51
-28.81
-20.57
-12.91
-5.74
1.07
7.60
13.85
19.76
25.15
29.77
33.37
35.79
37.06
37.45
37.35
37.13
36.98
36.99
37.19
37.64
38.47
39.72
41.27
42.76
43.70
43.68
42.54
40.47
37.90
35.30
33.03
31.17
29.58
27.95
25.93
23.36
20.28
16.90
13.55
10.53
7.97
5.87
4.06
2.29
0.29
-2.18
-5.27
-8.97
-13.06
-17.17
-20.96
-24.24
-27.11
-29.97
-33.38
-37.83
-43.52
-50.25
-57.36
-63.78
-68.31
-69.86
-67.77
-62.07
-53.57
-43.55
-33.46
-24.33
-16.68
-10.39
-4.96
0.11
5.13
10.10
14.84
19.13
22.86
26.07
28.88
31.39
33.64
35.61
37.23
38.49
39.45
40.23
40.91
41.48
41.75
41.46
40.38
38.46
35.94
33.19
30.70
28.84
27.71
27.20
26.98
26.66
25.85
24.25
21.78
18.55
14.92
11.32
8.17
5.66
3.67
1.82
-0.38
-3.23
-6.79
-10.78
-14.79
-18.47
-21.69
-24.62
-27.62
-31.12
-35.43
-40.58
-46.30
-52.04
-56.99
-60.29
-61.15
-59.07
-54.04
-46.58
-37.71
-28.65
-20.46
-13.76
-8.57
-4.46
-0.81
2.78
6.42
9.92
12.93
15.21
16.68
17.44
17.68
17.58
17.33
17.10
17.11
17.54
18.42
19.57
20.59
20.99
20.40
18.71
16.21
13.46
11.13
9.77
9.66
10.87
13.23
16.45
20.20
24.08
27.57
30.06
31.03
30.12
27.30
22.86
17.39
11.52
5.75
0.27
-4.98
-10.25
-15.84
-21.95
-28.57
-35.48
-42.21
-48.12
-52.48
-54.60
-54.03
-50.71
-45.00
-37.62
-29.48
-21.38
-13.90
-7.28
-1.57
3.28
7.30
10.46
12.78
14.31
15.25
15.84
16.35
16.97
17.83
18.92
20.09
21.20
22.04
22.53
22.64
22.42
21.91
21.12
19.94
18.31
16.29
14.09
12.11
10.65
9.85
9.50
9.13
8.19
6.30
3.36
-0.44
-4.72
-9.10
-13.34
-17.34
-21.12
-24.81
-28.59
-32.69
-37.38
-42.80
-48.89
-55.20
-60.93
-65.11
-66.91
-65.90
-62.18
-56.36
-49.25
-41.58
-33.91
-26.51
-19.55
-13.15
-7.42
-2.41
1.89
5.56
8.68
11.25
13.20
14.42
14.90
14.75
14.20
13.56
13.13
13.14
13.74
14.94
16.59
18.30
19.61
19.99
19.14
17.02
13.96
10.51
7.32
4.91
3.48
2.84
2.45
1.63
-0.20
-3.24
-7.29
-11.74
-15.93
-19.31
-21.70
-23.36
-24.76
-26.56
-29.34
-33.45
-38.94
-45.41
-52.03
-57.61
-60.94
-61.07
-57.63
-50.94
-41.94
-31.83
-21.77
-12.58
-4.61
2.13
7.86
12.81
17.18
20.97
24.12
26.55
28.23
29.26
29.83
30.20
30.56
30.99
31.42
31.76
31.98
32.14
32.38
32.81
33.38
33.89
34.06
33.61
32.38
30.38
27.70
24.53
21.04
17.35
13.61
9.92
6.35
2.91
-0.46
-3.83
-7.20
-10.52
-13.66
-16.48
-18.99
-21.36
-23.93
-27.12
-31.29
-36.54
-42.55
-48.53
-53.36
-55.91
-55.34
-51.44
-44.63
-35.83
-26.14
-16.49
-7.49
0.62
7.86
14.35
20.25
25.70
30.78
35.52
39.81
43.47
46.33
48.33
49.57
50.25
50.60
50.75
50.75
50.66
50.59
50.75
51.29
52.22
53.28
53.98
53.75
52.22
49.32
45.36
40.95
36.80
33.46
31.16
29.74
28.71
27.52
25.75
23.25
20.15
16.69
13.08
9.40
5.64
1.82
-1.90
-5.31
-8.19
-10.52
-12.57
-14.81
-17.74
-21.67
-26.56
-32.07
-37.65
-42.76
-47.01
-50.36
-53.07
-55.66
-58.79
-63.08
-68.88
-76.02
-83.71
-90.66
-95.32
-96.38
-93.13
-85.76
-75.35
-63.39
-51.33
-40.13
-30.06
-20.87
-12.03
-3.13
5.92
14.92
23.50
31.30
38.05
43.61
47.90
50.91
52.70
53.40
53.30
52.73
52.07
51.58
51.38
51.41
51.48
51.30
50.63
49.30
47.35
44.92
42.28
39.79
37.65
35.97
34.62
33.34
31.83
29.91
27.64
25.23
22.95
20.93
19.04
16.97
14.34
11.03
7.19
3.29
-0.10
-2.59
-4.16
-5.16
-6.22
-7.96
-10.77
-14.70
-19.46
-24.50
-29.23
-33.24
-36.37
-38.88
-41.35
-44.40
-48.52
-53.84
-59.96
-66.00
-70.74
-73.02
-71.96
-67.26
-59.27
-48.93
-37.43
-26.00
-15.60
-6.77
0.36
5.94
10.29
13.80
16.88
19.95
23.32
27.12
31.23
35.26
38.72
41.18
42.51
42.83
42.58
42.23
42.14
42.43
42.99
43.51
43.69
43.34
42.45
41.18
39.78
38.52
37.50
36.65
35.78
34.65
33.13
31.21
29.00
26.68
24.32
21.94
19.50
16.94
14.29
11.65
9.14
6.90
4.99
3.37
1.82
0.05
-2.23
-5.23
-8.90
-12.98
-17.04
-20.70
-23.77
-26.37
-28.85
-31.65
-35.12
-39.42
-44.45
-49.85
-55.01
-59.15
-61.43
-61.14
-57.97
-52.12
-44.29
-35.52
-26.81
-18.95
-12.27
-6.75
-2.13
1.83
5.30
8.28
10.73
12.65
14.12
15.33
16.51
17.80
19.27
20.86
22.50
24.13
25.79
27.57
29.56
31.79
34.17
36.48
38.40
39.55
39.69
38.72
36.74
34.06
31.04
28.04
25.32
22.97
20.98
19.29
17.81
16.51
15.27
13.97
12.42
10.50
8.20
5.68
3.17
0.87
-1.19
-3.14
-5.22
-7.63
-10.44
-13.56
-16.73
-19.68
-22.27
-24.54
-26.72
-29.23
-32.44
-36.58
-41.50
-46.67
-51.23
-54.20
-54.80
-52.64
-47.89
-41.23
-33.59
-25.95
-19.08
-13.39
-8.89
-5.32
-2.30
0.50
3.28
6.13
9.00
11.83
14.52
16.98
19.08
20.69
21.74
22.31
22.64
23.10
23.98
25.34
26.97
28.39
29.09
28.80
27.50
25.44
23.04
20.64
18.48
16.58
14.87
13.24
11.64
10.03
8.42
6.87
5.46
4.22
3.21
2.42
1.77
1.15
0.44
-0.41
-1.37
-2.37
-3.38
-4.46
-5.77
-7.46
-9.58
-12.00
-14.52
-16.91
-19.04
-21.00
-23.01
-25.30
-28.14
-31.61
-35.67
-40.01
-44.11
-47.29
-48.86
-48.33
-45.57
-40.83
-34.69
-27.86
-21.08
-14.90
-9.71
-5.63
-2.57
-0.28
1.63
3.52
5.63
8.01
10.59
13.17
15.52
17.41
18.62
19.03
18.72
18.02
17.38
17.23
17.72
18.64
19.45
19.52
18.50
16.44
13.87
11.52
9.95
9.34
9.45
9.70
9.56
8.71
7.18
5.24
3.20
1.28
-0.52
-2.29
-4.14
-6.12
-8.18
-10.24
-12.28
-14.33
-16.43
-18.57
-20.63
-22.43
-23.74
-24.43
-24.51
-24.21
-23.85
-23.81
-24.42
-25.85
-28.10
-31.00
-34.27
-37.50
-40.15
-41.68
-41.59
-39.67
-36.04
-31.19
-25.85
-20.72
-16.32
-12.83
-10.16
-8.03
-6.09
-4.10
-1.95
0.37
2.73
4.97
6.94
8.59
9.93
11.05
11.98
12.74
13.30
13.64
13.77
13.79
13.82
13.90
14.02
14.04
13.74
12.95
11.59
9.80
7.91
6.32
5.41
5.38
6.20
7.61
9.25
10.76
11.88
12.48
12.52
11.98
10.92
9.35
7.30
4.85
2.07
-0.83
-3.61
-5.99
-7.73
-8.76
-9.27
-9.67
-10.48
-12.17
-15.01
-18.88
-23.33
-27.61
-30.87
-32.44
-31.94
-29.47
-25.46
-20.56
-15.40
-10.46
-5.94
-1.92
1.62
4.63
7.06
8.91
10.29
11.40
12.47
13.68
15.13
16.80
18.59
20.35
21.90
23.06
23.69
23.74
23.22
22.21
20.87
19.32
17.63
15.88
14.10
12.38
10.73
9.20
7.79
6.49
5.22
3.89
2.41
0.76
-1.06
-2.94
-4.86
-6.78
-8.75
-10.80
-12.88
-14.84
-16.47
-17.69
-18.65
-19.80
-21.69
-24.78
-29.16
-34.50
-40.15
-45.29
-49.10
-50.99
-50.63
-48.06
-43.60
-37.91
-31.76
-25.89
-20.83
-16.77
-13.59
-11.01
-8.72
-6.57
-4.50
-2.54
-0.70
1.05
2.74
4.33
5.77
6.93
7.78
8.37
8.91
9.64
10.70
12.09
13.66
15.18
16.42
17.27
17.71
17.82
17.65
17.25
16.60
15.64
14.27
12.44
10.21
7.71
5.17
2.81
0.76
-0.97
-2.49
-3.92
-5.39
-6.99
-8.73
-10.59
-12.63
-14.94
-17.63
-20.91
-24.94
-29.77
-35.24
-40.89
-45.97
-49.60
-50.98
-49.70
-45.92
-40.29
-33.76
-27.25
-21.38
-16.34
-11.92
-7.83
-3.81
0.17
3.96
7.30
10.05
12.18
13.77
15.00
16.03
17.00
18.00
19.15
20.51
22.07
23.64
24.90
25.57
25.49
24.72
23.56
22.45
21.80
21.83
22.53
23.64
24.76
25.48
25.46
24.53
22.69
20.14
17.22
14.31
11.70
9.56
7.81
6.24
4.52
2.36
-0.34
-3.45
-6.72
-9.88
-12.86
-15.89
-19.40
-23.76
-29.16
-35.27
-41.37
-46.51
-49.79
-50.58
-48.74
-44.52
-38.52
-31.52
-24.25
-17.30
-10.98
-5.42
-0.57
3.67
7.38
10.67
13.59
16.25
18.74
21.11
23.36
25.43
27.19
28.54
29.48
30.03
30.31
30.43
30.50
30.53
30.51
30.37
30.10
29.72
29.31
28.97
28.73
28.55
28.23
27.49
26.03
23.66
20.44
16.66
12.87
9.56
7.11
5.49
4.48
3.65
2.61
1.19
-0.67
-2.85
-5.26
-7.80
-10.39
-12.93
-15.31
-17.59
-19.93
-22.66
-26.08
-30.27
-34.99
-39.66
-43.49
-45.82
-46.33
-45.09
-42.55
-39.30
-35.76
-32.12
-28.33
-24.29
-19.94
-15.38
-10.74
-6.14
-1.58
2.98
7.53
11.94
15.95
19.31
21.91
23.82
25.23
26.34
27.27
28.06
28.74
29.34
29.90
30.40
30.73
30.78
30.47
29.86
29.07
28.20
27.25
26.13
24.74
23.09
21.27
19.40
17.56
15.73
13.90
12.14
10.59
9.35
8.33
7.15
5.36
2.56
-1.31
-5.98
-10.96
-15.76
-20.11
-23.99
-27.52
-30.89
-34.31
-38.01
-42.21
-47.06
-52.37
-57.56
-61.64
-63.50
-62.33
-57.97
-50.95
-42.38
-33.44
-25.05
-17.67
-11.35
-5.89
-1.08
3.24
7.17
10.78
14.13
17.26
20.16
22.75
24.94
26.65
27.94
28.98
30.04
31.37
33.15
35.30
37.59
39.52
40.61
40.46
39.00
36.47
33.40
30.37
27.81
25.90
24.48
23.17
21.58
19.43
16.74
13.74
10.79
8.17
5.94
3.89
1.65
-1.16
-4.69
-8.78
-13.06
-17.13
-20.75
-23.96
-27.03
-30.33
-34.27
-39.06
-44.74
-51.03
-57.34
-62.81
-66.45
-67.42
-65.22
-59.90
-52.05
-42.63
-32.69
-23.16
-14.65
-7.45
-1.58
3.17
7.09
10.55
13.89
17.33
20.99
24.74
28.34
31.49
33.89
35.45
36.32
36.79
37.29
38.13
39.32
40.57
41.42
41.41
40.42
38.58
36.35
34.20
32.43
30.99
29.56
27.72
25.20
22.02
18.48
14.95
11.72
8.80
5.98
3.00
-0.32
-4.02
-7.95
-11.91
-15.76
-19.42
-22.91
-26.29
-29.67
-33.24
-37.32
-42.25
-48.21
-55.06
-62.16
-68.46
-72.69
-73.75
-71.06
-64.75
-55.55
-44.69
-33.42
-22.78
-13.40
-5.42
1.36
7.29
12.80
18.12
23.42
28.72
33.92
38.83
43.15
46.58
48.88
50.05
50.39
50.52
51.13
52.73
55.37
58.48
61.02
61.81
59.92
55.09
47.84
39.32
30.89
23.74
18.48
15.13
13.20
12.01
10.96
9.61
7.76
5.30
2.18
-1.60
-6.02
-10.96
-16.20
-21.43
-26.33
-30.67
-34.45
-37.96
-41.79
-46.54
-52.62
-59.95
-67.85
-75.11
-80.31
-82.17
-79.96
-73.73
-64.19
-52.65
-40.53
-29.04
-19.00
-10.76
-4.24
0.85
4.96
8.62
12.35
16.66
21.86
27.92
34.47
40.88
46.51
50.92
54.05
56.15
57.63
58.79
59.68
60.09
59.64
58.06
55.30
51.58
47.27
42.84
38.64
34.87
31.56
28.58
25.77
22.98
20.12
17.20
14.31
11.58
9.03
6.59
4.05
1.22
-1.99
-5.50
-9.13
-12.72
-16.26
-19.90
-23.92
-28.68
-34.41
-41.22
-48.97
-57.23
-65.23
-71.90
-76.09
-76.87
-73.85
-67.39
-58.52
-48.57
-38.70
-29.58
-21.30
-13.56
-6.09
1.07
7.51
12.76
16.58
19.25
21.49
24.11
27.60
32.00
36.95
41.97
46.72
51.09
55.07
58.53
61.10
62.27
61.57
58.90
54.59
49.36
44.09
39.48
35.89
33.22
31.07
28.91
26.41
23.49
20.45
17.72
15.71
14.57
14.06
13.66
12.63
10.40
6.70
1.79
-3.78
-9.29
-14.28
-18.76
-23.14
-28.01
-33.88
-40.91
-48.83
-56.93
-64.21
-69.46
-71.57
-69.74
-63.84
-54.43
-42.77
-30.43
-18.86
-9.02
-1.22
4.76
9.51
13.61
17.47
21.28
24.96
28.35
31.28
33.68
35.64
37.32
38.78
40.00
40.92
41.49
41.80
42.04
42.39
42.81
43.03
42.60
41.13
38.51
35.01
31.15
27.45
24.22
21.40
18.65
15.57
11.95
7.82
3.53
-0.52
-3.98
-6.69
-8.71
-10.25
-11.60
-13.03
-14.81
-17.12
-20.06
-23.57
-27.56
-31.92
-36.68
-41.99
-48.00
-54.66
-61.51
-67.63
-71.85
-73.05
-70.58
-64.37
-55.03
-43.56
-31.14
-18.91
-7.76
1.65
8.96
14.13
17.39
19.22
20.30
21.26
22.56
24.28
26.20
27.92
29.11
29.73
29.99
30.25
30.77
31.56
32.33
32.66
32.20
30.85
28.77
26.27
23.71
21.36
19.34
17.65
16.23
14.97
13.84
12.82
11.89
10.94
9.72
7.92
5.24
1.60
-2.86
-7.76
-12.68
-17.32
-21.56
-25.59
-29.66
-34.08
-39.06
-44.66
-50.70
-56.69
-61.78
-64.82
-64.71
-60.74
-53.01
-42.46
-30.64
-19.22
-9.44
-1.83
3.76
7.93
11.34
14.41
17.30
19.99
22.44
24.64
26.63
28.45
30.02
31.26
32.04
32.30
32.09
31.53
30.78
29.91
28.91
27.60
25.81
23.43
20.57
17.56
14.82
12.71
11.36
10.63
10.16
9.50
8.30
6.45
4.12
1.58
-0.87
-3.11
-5.18
-7.31
-9.77
-12.78
-16.37
-20.34
-24.31
-27.88
-30.80
-33.16
-35.37
-38.08
-41.88
-46.98
-52.99
-58.89
-63.33
-64.99
-63.02
-57.33
-48.60
-38.06
-27.13
-17.07
-8.63
-2.07
2.88
6.80
10.37
14.12
18.31
22.94
27.72
32.25
36.11
39.02
40.80
41.52
41.38
40.67
39.72
38.76
37.97
37.39
36.93
36.43
35.69
34.53
32.88
30.78
28.36
25.86
23.47
21.34
19.52
17.96
16.55
15.15
13.67
12.02
10.14
7.94
5.35
2.30
-1.21
-5.15
-9.35
-13.63
-17.82
-21.81
-25.65
-29.56
-33.87
-38.96
-45.00
-51.78
-58.65
-64.49
-68.03
-68.19
-64.51
-57.30
-47.56
-36.66
-25.95
-16.39
-8.45
-2.08
3.08
7.51
11.63
15.71
19.82
23.89
27.75
31.19
34.03
36.17
37.63
38.51
38.99
39.28
39.54
39.86
40.17
40.27
39.93
38.96
37.29
35.01
32.37
29.70
27.28
25.29
23.66
22.17
20.49
18.32
15.58
12.43
9.16
6.04
3.19
0.45
-2.41
-5.59
-9.16
-12.91
-16.60
-20.04
-23.22
-26.29
-29.54
-33.20
-37.44
-42.34
-47.87
-53.86
-59.93
-65.37
-69.22
-70.49
-68.49
-63.12
-54.98
-45.21
-35.10
-25.70
-17.53
-10.60
-4.61
0.86
6.06
11.06
15.74
19.99
23.66
26.78
29.41
31.63
33.50
35.04
36.19
36.96
37.41
37.65
37.80
37.88
37.76
37.16
35.85
33.68
30.87
27.83
25.06
22.94
21.55
20.66
19.86
18.73
17.04
14.83
12.27
9.62
6.99
4.34
1.53
-1.56
-4.97
-8.59
-12.27
-15.85
-19.23
-22.39
-25.38
-28.38
-31.62
-35.46
-40.17
-45.80
-51.96
-57.74
-61.88
-63.14
-60.72
-54.57
-45.51
-34.91
-24.30
-14.91
-7.47
-2.12
1.47
3.86
5.65
7.36
9.35
11.71
14.35
16.96
19.21
20.85
21.90
22.59
23.24
24.13
25.32
26.64
27.84
28.66
28.94
28.62
27.65
25.98
23.55
20.42
16.84
13.21
9.89
7.07
4.67
2.41
0.02
-2.63
-5.45
-8.24
-10.84
-13.18
-15.38
-17.58
-19.90
-22.42
-25.10
-28.02
-31.32
-35.20
-39.84
-45.20
-50.92
-56.26
-60.19
-61.66
-59.91
-54.75
-46.68
-36.78
-26.40
-16.75
-8.54
-1.95
3.28
7.58
11.25
14.40
16.99
19.01
20.55
21.89
23.31
24.97
26.80
28.63
30.26
31.57
32.58
33.33
33.78
33.81
33.24
31.97
30.03
27.60
24.89
22.04
19.09
16.02
12.88
9.85
7.17
5.06
3.48
2.19
0.72
-1.33
-4.23
-7.94
-12.20
-16.69
-21.11
-25.33
-29.32
-33.09
-36.72
-40.40
-44.43
-49.19
-54.91
-61.36
-67.73
-72.68
-74.78
-73.04
-67.29
-58.28
-47.39
-36.17
-25.78
-16.84
-9.38
-3.08
2.45
7.57
12.49
17.31
22.02
26.52
30.63
34.17
36.98
39.04
40.42
41.27
41.75
42.01
42.09
41.98
41.59
40.78
39.45
37.55
35.18
32.57
30.05
27.92
26.35
25.29
24.46
23.44
21.86
19.53
16.53
13.19
9.92
7.07
4.74
2.71
0.55
-2.26
-6.06
-10.86
-16.37
-22.08
-27.48
-32.22
-36.22
-39.73
-43.21
-47.25
-52.37
-58.76
-66.02
-73.11
-78.49
-80.56
-78.19
-71.17
-60.36
-47.44
-34.33
-22.61
-13.08
-5.67
0.29
5.66
11.08
16.79
22.67
28.40
33.68
38.36
42.36
45.68
48.25
49.97
50.87
51.11
51.07
51.11
51.49
52.15
52.85
53.15
52.66
51.22
48.90
46.01
42.99
40.25
38.04
36.38
35.05
33.70
32.01
29.77
26.97
23.74
20.23
16.60
12.91
9.21
5.43
1.49
-2.74
-7.33
-12.27
-17.34
-22.20
-26.52
-30.16
-33.24
-36.16
-39.46
-43.57
-48.74
-55.00
-62.06
-69.34
-75.99
-80.86
-82.78
-80.88
-74.90
-65.42
-53.73
-41.42
-29.88
-19.92
-11.61
-4.59
1.69
7.55
13.04
18.04
22.45
26.35
29.89
33.25
36.42
39.19
41.28
42.51
42.92
42.82
42.63
42.68
43.08
43.61
43.92
43.67
42.70
41.11
39.18
37.20
35.31
33.52
31.71
29.76
27.61
25.30
22.80
20.07
17.04
13.67
10.03
6.31
2.64
-0.94
-4.53
-8.33
-12.47
-16.96
-21.65
-26.31
-30.81
-35.15
-39.47
-43.89
-48.41
-52.88
-57.02
-60.50
-63.09
-64.56
-64.74
-63.32
-59.94
-54.36
-46.67
-37.45
-27.70
-18.56
-10.92
-5.09
-0.81
2.50
5.41
8.18
10.72
12.86
14.56
16.08
17.88
20.40
23.80
27.81
31.93
35.61
38.52
40.58
41.95
42.76
43.04
42.67
41.55
39.68
37.27
34.67
32.26
30.29
28.73
27.32
25.65
23.31
20.11
16.16
11.87
7.72
4.06
0.97
-1.80
-4.67
-7.97
-11.77
-15.82
-19.70
-23.05
-25.87
-28.53
-31.69
-36.01
-41.77
-48.64
-55.65
-61.41
-64.53
-64.04
-59.76
-52.28
-42.78
-32.52
-22.59
-13.53
-5.48
1.74
8.33
14.45
20.10
25.22
29.75
33.70
37.13
40.08
42.59
44.66
46.26
47.42
48.22
48.79
49.27
49.80
50.40
50.99
51.34
51.26
50.62
49.42
47.76
45.72
43.31
40.40
36.76
32.28
26.94
21.02
14.95
9.28
4.47
0.76
-1.91
-3.84
-5.53
-7.53
-10.31
-14.05
-18.62
-23.58
-28.42
-32.73
-36.44
-39.85
-43.49
-47.96
-53.60
-60.36
-67.63
-74.38
-79.33
-81.30
-79.52
-73.93
-65.19
-54.49
-43.22
-32.59
-23.28
-15.41
-8.72
-2.73
2.93
8.43
13.78
18.80
23.33
27.22
30.44
32.96
34.82
36.06
36.75
37.02
37.08
37.15
37.43
37.98
38.64
39.10
39.00
38.02
36.08
33.36
30.26
27.30
24.92
23.29
22.31
21.61
20.70
19.19
16.92
14.00
10.72
7.45
4.40
1.54
-1.33
-4.47
-8.03
-11.91
-15.87
-19.58
-22.81
-25.56
-28.01
-30.44
-33.20
-36.56
-40.72
-45.79
-51.61
-57.66
-63.06
-66.70
-67.52
-64.91
-58.97
-50.46
-40.58
-30.66
-21.71
-14.28
-8.36
-3.59
0.53
4.45
8.38
12.30
16.04
19.38
22.17
24.37
26.05
27.31
28.26
29.01
29.64
30.28
31.05
32.01
33.07
33.96
34.29
33.71
32.05
29.41
26.20
22.98
20.20
18.08
16.50
15.11
13.53
11.50
9.06
6.45
4.04
2.16
0.88
0.04
-0.78
-1.96
-3.79
-6.35
-9.41
-12.69
-15.90
-18.88
-21.69
-24.50
-27.56
-31.08
-35.26
-40.15
-45.63
-51.26
-56.24
-59.53
-60.09
-57.33
-51.26
-42.70
-32.92
-23.34
-15.02
-8.41
-3.38
0.59
4.02
7.23
10.20
12.77
14.74
16.06
16.92
17.52
18.10
18.83
19.74
20.88
22.29
23.99
25.93
27.88
29.44
30.12
29.54
27.62
24.71
21.53
18.84
17.18
16.63
16.68
16.59
15.70
13.70
10.73
7.24
3.75
0.56
-2.32
-5.10
-8.04
-11.33
-15.09
-19.21
-23.55
-27.90
-32.09
-36.03
-39.75
-43.44
-47.37
-51.83
-57.08
-63.10
-69.54
-75.59
-80.13
-81.94
-80.18
-74.67
-66.06
-55.60
-44.69
-34.42
-25.33
-17.45
-10.49
-4.20
1.57
6.85
11.62
15.88
19.68
23.01
25.83
27.96
29.31
29.82
29.55
28.71
27.55
26.36
25.36
24.56
23.77
22.60
20.62
17.60
13.69
9.44
5.56
2.58
0.54
-1.08
-3.13
-6.36
-11.01
-16.63
-22.22
-26.42
-27.83
-25.26
-18.10
-6.62
7.80
22.80
35.69
44.26
47.49
45.83
40.75
33.89
26.32
18.23
9.25
-1.05
-12.74
-25.35
-38.14
-50.41
-61.57
-71.12
-78.56
-83.39
-85.20
-83.88
-79.78
-73.62
-66.45
-59.40
-53.46
-49.26
-47.04
-46.54
-46.94
-46.86
-44.45
-37.83
-25.77
-8.23
13.28
36.02
56.82
73.14
83.86
89.41
91.27
91.18
90.39
89.44
88.30
86.85
85.17
83.50
82.12
81.10
80.22
79.13
77.52
75.32
72.71
69.89
66.90
63.50
59.30
54.03
47.75
40.86
33.93
27.40
21.37
15.67
9.98
4.16
-1.75
-7.52
-12.93
-17.98
-22.83
-27.81
-33.29
-39.62
-47.03
-55.51
-64.65
-73.50
-80.68
-84.72
-84.55
-79.88
-71.42
-60.60
-49.06
-38.14
-28.56
-20.45
-13.47
-7.20
-1.36
4.12
9.10
13.36
16.69
19.05
20.54
21.44
22.06
22.61
23.16
23.65
23.96
23.97
23.63
22.90
21.76
20.14
17.91
14.94
11.16
6.53
1.14
-4.77
-10.85
-16.61
-21.61
-25.59
-28.60
-30.99
-33.33
-36.13
-39.74
-44.18
-49.27
-54.61
-59.71
-64.00
-66.85
-67.86
-67.13
-65.46
-64.23
-64.83
-67.90
-72.78
-77.62
-79.97
-77.90
-70.69
-59.10
-44.78
-29.48
-14.41
-0.04
13.59
26.45
38.24
48.50
56.92
63.59
69.11
74.21
79.43
84.77
89.67
93.20
94.49
93.17
89.55
84.58
79.52
75.40
72.74
71.32
70.34
68.77
65.77
60.95
54.48
46.95
39.11
31.70
25.19
19.84
15.62
12.37
9.83
7.81
6.23
5.08
4.33
3.76
2.99
1.54
-0.89
-4.19
-7.89
-11.30
-13.93
-15.77
-17.38
-19.73
-23.88
-30.62
-40.31
-52.67
-66.69
-80.66
-92.32
-99.37
-100.16
-94.26
-82.81
-68.14
-53.06
-39.92
-29.92
-22.97
-18.08
-13.90
-9.27
-3.52
3.49
11.50
19.93
28.02
34.90
39.80
42.20
42.08
40.02
37.08
34.56
33.58
34.86
38.45
43.88
50.25
56.53
61.72
65.06
66.13
64.87
61.60
56.93
51.65
46.48
41.98
38.45
35.95
34.39
33.57
33.19
32.88
32.19
30.74
28.27
24.77
20.44
15.67
10.90
6.50
2.65
-0.72
-3.90
-7.24
-11.00
-15.26
-19.95
-24.95
-30.28
-36.14
-42.77
-50.22
-57.97
-64.95
-69.77
-71.24
-68.84
-62.90
-54.40
-44.56
-34.37
-24.45
-15.11
-6.53
1.13
7.81
13.66
19.06
24.46
30.12
35.88
41.25
45.57
48.40
49.70
49.84
49.43
49.14
49.45
50.65
52.77
55.53
58.43
60.84
62.16
62.01
60.36
57.57
54.27
51.18
48.82
47.33
46.43
45.52
43.95
41.30
37.55
33.12
28.64
24.62
21.26
18.36
15.43
12.02
7.87
3.05
-2.14
-7.32
-12.30
-17.16
-22.24
-28.01
-34.86
-42.88
-51.75
-60.68
-68.58
-74.20
-76.52
-74.93
-69.48
-60.83
-50.13
-38.70
-27.76
-18.13
-10.25
-4.08
0.71
4.59
8.02
11.31
14.54
17.53
19.99
21.63
22.29
22.11
21.37
20.51
19.87
19.64
19.78
20.11
20.38
20.40
20.09
19.49
18.70
17.87
17.03
16.15
15.14
13.87
12.21
10.07
7.37
4.11
0.37
-3.63
-7.57
-11.16
-14.19
-16.67
-18.79
-20.83
-23.12
-25.86
-29.18
-33.04
-37.32
-41.89
-46.58
-51.32
-56.14
-61.12
-66.20
-71.04
-74.84
-76.55
-75.28
-70.64
-63.09
-53.70
-43.85
-34.68
-26.75
-20.07
-14.26
-8.84
-3.48
1.94
7.38
12.65
17.52
21.77
25.26
28.01
30.22
32.07
33.75
35.25
36.51
37.42
38.00
38.38
38.67
38.84
38.66
37.84
36.12
33.57
30.50
27.45
24.90
23.09
21.88
20.88
19.63
17.81
15.38
12.56
9.69
7.03
4.64
2.36
-0.16
-3.21
-6.90
-11.10
-15.51
-19.72
-23.41
-26.42
-28.85
-31.01
-33.41
-36.67
-41.30
-47.46
-54.74
-62.17
-68.37
-71.91
-71.83
-67.86
-60.56
-51.02
-40.50
-30.14
-20.68
-12.48
-5.56
0.28
5.36
10.09
14.83
19.73
24.73
29.51
33.65
36.78
38.73
39.61
39.68
39.29
38.74
38.26
37.97
37.91
38.03
38.16
38.10
37.59
36.47
34.73
32.56
30.29
28.20
26.45
24.91
23.30
21.26
18.58
15.31
11.72
8.22
5.10
2.50
0.22
-2.07
-4.78
-8.18
-12.34
-17.00
-21.76
-26.19
-29.94
-32.99
-35.60
-38.27
-41.52
-45.78
-51.18
-57.44
-63.85
-69.32
-72.66
-72.84
-69.37
-62.43
-52.95
-42.25
-31.65
-22.11
-14.02
-7.30
-1.59
3.51
8.28
12.78
16.96
20.69
23.84
26.41
28.44
30.07
31.41
32.48
33.26
33.68
33.77
33.62
33.36
33.07
32.63
31.76
30.19
27.76
24.61
21.16
17.96
15.47
13.86
12.92
12.17
11.14
9.55
7.45
5.12
2.85
0.81
-1.13
-3.23
-5.69
-8.59
-11.78
-15.00
-18.00
-20.65
-22.99
-25.09
-27.14
-29.33
-31.97
-35.34
-39.63
-44.68
-49.96
-54.52
-57.31
-57.40
-54.38
-48.47
-40.42
-31.32
-22.22
-13.98
-7.04
-1.47
2.92
6.45
9.49
12.27
14.95
17.48
19.73
21.54
22.78
23.39
23.49
23.29
23.12
23.29
24.03
25.39
27.13
28.86
30.05
30.26
29.22
26.99
23.91
20.44
17.01
13.91
11.25
9.01
7.12
5.45
3.86
2.12
0.03
-2.52
-5.50
-8.79
-12.19
-15.56
-18.90
-22.31
-25.93
-29.85
-34.17
-39.07
-44.73
-51.21
-58.16
-64.72
-69.55
-71.32
-69.20
-63.21
-54.25
-43.81
-33.35
-23.93
-15.99
-9.44
-3.92
1.00
5.67
10.31
14.99
19.62
23.99
27.84
30.96
33.27
34.82
35.82
36.50
37.07
37.67
38.34
39.00
39.48
39.53
38.96
37.64
35.63
33.12
30.41
27.78
25.38
23.27
21.34
19.40
17.33
15.09
12.77
10.51
8.36
6.28
4.08
1.54
-1.57
-5.33
-9.65
-14.35
-19.12
-23.69
-27.81
-31.40
-34.57
-37.67
-41.17
-45.62
-51.36
-58.32
-65.91
-73.04
-78.36
-80.61
-79.04
-73.61
-65.08
-54.76
-44.02
-33.94
-25.03
-17.19
-10.05
-3.22
3.52
10.08
16.25
21.84
26.73
30.88
34.31
37.02
38.99
40.27
40.99
41.36
41.68
42.18
43.02
44.17
45.43
46.46
46.87
46.35
44.77
42.28
39.25
36.20
33.58
31.54
29.93
28.31
26.21
23.32
19.73
15.83
12.13
9.06
6.70
4.81
2.95
0.63
-2.37
-6.01
-10.07
-14.18
-18.04
-21.49
-24.49
-27.21
-29.96
-33.12
-37.09
-42.05
-47.81
-53.78
-58.98
-62.20
-62.41
-58.96
-51.85
-41.78
-29.92
-17.59
-5.84
4.84
14.55
23.69
32.43
40.40
46.56
49.63
48.71
43.83
36.00
26.93
18.37
11.52
6.87
4.34
3.70
4.80
7.61
11.94
17.28
22.67
26.94
29.06
28.52
25.54
20.95
15.98
11.72
8.78
7.15
6.32
5.62
4.57
3.03
1.13
-0.83
-2.75
-4.67
-6.81
-9.34
-12.34
-15.69
-19.18
-22.62
-25.89
-28.98
-32.03
-35.22
-38.74
-42.72
-47.17
-52.07
-57.26
-62.50
-67.40
-71.32
-73.42
-72.92
-69.27
-62.48
-53.20
-42.51
-31.64
-21.59
-12.90
-5.62
0.58
6.11
11.33
16.36
21.08
25.26
28.67
31.23
33.05
34.35
35.35
36.17
36.86
37.41
37.90
38.44
39.13
39.94
40.66
40.97
40.63
39.58
37.99
36.18
34.40
32.69
30.94
28.93
26.49
23.68
20.70
17.82
15.24
12.92
10.62
8.05
4.97
1.38
-2.50
-6.29
-9.64
-12.42
-14.73
-16.91
-19.34
-22.37
-26.18
-30.79
-36.01
-41.47
-46.56
-50.49
-52.36
-51.38
-47.11
-39.69
-29.90
-18.99
-8.39
0.71
7.70
12.55
15.77
18.03
19.89
21.57
23.09
24.35
25.35
26.26
27.31
28.72
30.49
32.45
34.30
35.72
36.54
36.75
36.43
35.71
34.69
33.36
31.67
29.60
27.20
24.61
21.98
19.41
16.88
14.26
11.40
8.27
5.02
1.85
-1.09
-3.87
-6.71
-9.90
-13.56
-17.58
-21.60
-25.28
-28.47
-31.36
-34.41
-38.17
-42.96
-48.82
-55.40
-62.06
-67.93
-72.13
-73.76
-72.17
-67.11
-58.91
-48.47
-37.04
-25.93
-16.16
-8.24
-2.10
2.72
6.86
10.90
15.14
19.61
24.08
28.20
31.64
34.23
35.95
36.99
37.62
38.10
38.59
39.17
39.80
40.42
40.89
41.04
40.65
39.55
37.68
35.15
32.29
29.47
27.02
25.00
23.19
21.24
18.80
15.73
12.13
8.23
4.20
0.08
-4.20
-8.72
-13.41
-18.03
-22.30
-26.03
-29.24
-32.25
-35.48
-39.38
-44.27
-50.19
-56.75
-63.15
-68.22
-70.72
-69.74
-64.94
-56.82
-46.50
-35.40
-24.80
-15.56
-7.97
-1.89
3.05
7.23
10.92
14.18
16.96
19.14
20.73
21.83
22.67
23.51
24.46
25.53
26.54
27.22
27.19
26.04
23.46
19.51
14.80
10.62
8.55
9.87
14.93
22.73
31.25
38.10
41.43
40.48
35.58
27.78
18.33
8.36
-1.20
-9.59
-16.09
-20.16
-21.70
-21.10
-19.21
-17.07
-15.62
-15.38
-16.42
-18.42
-20.82
-23.12
-24.98
-26.47
-27.93
-29.82
-32.43
-35.65
-38.84
-41.04
-41.17
-38.52
-32.93
-24.89
-15.36
-5.48
3.82
11.94
18.71
24.23
28.75
32.48
35.52
37.93
39.77
41.13
42.12
42.79
43.04
42.57
41.03
38.10
33.75
28.32
22.64
17.83
15.12
15.35
18.72
24.50
31.21
37.01
40.34
40.44
37.52
32.54
26.76
21.17
16.17
11.72
7.48
3.16
-1.27
-5.59
-9.51
-12.83
-15.54
-17.82
-19.95
-22.16
-24.57
-27.19
-29.96
-32.81
-35.56
-37.95
-39.46
-39.47
-37.42
-33.00
-26.40
-18.30
-9.68
-1.48
5.59
11.26
15.64
18.99
21.58
23.51
24.72
25.05
24.44
23.03
21.15
19.29
17.82
16.87
16.27
15.67
14.78
13.55
12.18
11.04
10.39
10.30
10.57
10.88
10.87
10.29
8.99
6.85
3.81
-0.17
-4.95
-10.15
-15.10
-19.06
-21.43
-22.02
-21.21
-19.83
-18.83
-18.94
-20.43
-23.13
-26.65
-30.64
-35.03
-39.98
-45.70
-52.15
-58.83
-64.80
-68.88
-69.97
-67.45
-61.41
-52.70
-42.65
-32.67
-23.72
-16.16
-9.66
-3.63
2.46
8.78
15.07
20.85
25.67
29.31
31.84
33.52
34.64
35.43
36.08
36.74
37.56
38.68
40.10
41.62
42.92
43.57
43.22
41.74
39.29
36.27
33.20
30.53
28.41
26.70
25.03
23.03
20.46
17.39
14.11
10.88
7.82
4.81
1.69
-1.72
-5.39
-9.13
-12.70
-15.90
-18.73
-21.31
-23.94
-27.04
-31.09
-36.35
-42.76
-49.74
-56.22
-60.93
-62.77
-61.14
-56.13
-48.42
-39.04
-29.07
-19.51
-11.04
-4.05
1.50
5.97
9.90
13.81
18.01
22.46
26.89
30.91
34.15
36.40
37.62
37.91
37.52
36.84
36.23
36.00
36.25
36.76
37.07
36.65
35.13
32.54
29.29
26.07
23.56
22.09
21.54
21.37
20.94
19.82
17.97
15.69
13.36
11.19
9.10
6.75
3.86
0.32
-3.65
-7.70
-11.46
-14.79
-17.77
-20.64
-23.72
-27.21
-31.24
-35.84
-40.98
-46.50
-52.02
-56.84
-60.03
-60.66
-58.14
-52.48
-44.34
-34.86
-25.22
-16.33
-8.65
-2.20
3.22
7.86
11.91
15.50
18.66
21.42
23.77
25.71
27.29
28.65
29.97
31.37
32.83
34.19
35.24
35.80
35.78
35.17
34.03
32.38
30.28
27.83
25.22
22.67
20.33
18.24
16.29
14.32
12.18
9.86
7.42
4.98
2.64
0.41
-1.78
-4.07
-6.61
-9.51
-12.78
-16.27
-19.72
-22.89
-25.68
-28.26
-31.01
-34.37
-38.56
-43.37
-48.08
-51.74
-53.37
-52.35
-48.57
-42.42
-34.62
-26.02
-17.39
-9.31
-2.15
3.93
8.95
13.04
16.33
18.99
21.18
23.02
24.69
26.33
27.99
29.63
31.07
32.06
32.46
32.29
31.79
31.25
30.92
30.82
30.74
30.32
29.23
27.36
24.89
22.22
19.81
17.92
16.54
15.39
14.10
12.37
10.12
7.48
4.65
1.84
-0.86
-3.46
-6.01
-8.56
-11.10
-13.62
-16.13
-18.66
-21.31
-24.20
-27.41
-31.03
-35.09
-39.60
-44.54
-49.70
-54.62
-58.54
-60.54
-59.82
-56.03
-49.47
-41.01
-31.81
-22.95
-15.14
-8.59
-3.17
1.48
5.75
9.94
14.19
18.49
22.68
26.48
29.62
31.87
33.12
33.47
33.10
32.41
31.77
31.53
31.87
32.70
33.68
34.34
34.22
33.14
31.19
28.75
26.27
24.08
22.33
20.95
19.77
18.57
17.15
15.34
13.04
10.23
7.08
3.89
0.97
-1.45
-3.36
-4.98
-6.61
-8.56
-11.05
-14.13
-17.76
-21.76
-25.80
-29.49
-32.52
-34.84
-36.80
-39.10
-42.43
-47.08
-52.63
-57.92
-61.49
-62.11
-59.26
-53.29
-45.19
-36.23
-27.53
-19.75
-13.16
-7.64
-2.94
1.21
5.03
8.64
12.06
15.26
18.12
20.55
22.46
23.89
24.94
25.78
26.62
27.64
28.87
30.25
31.52
32.39
32.61
32.03
30.71
28.87
26.86
24.95
23.33
21.96
20.58
18.84
16.47
13.46
10.07
6.79
4.05
2.06
0.59
-0.81
-2.68
-5.33
-8.66
-12.29
-15.73
-18.68
-21.13
-23.37
-25.88
-29.07
-33.17
-38.16
-43.74
-49.37
-54.29
-57.66
-58.74
-57.07
-52.68
-46.09
-38.24
-30.19
-22.78
-16.47
-11.28
-6.98
-3.33
-0.27
2.09
3.59
4.26
4.50
5.00
6.49
9.41
13.70
18.84
24.06
28.68
32.31
34.90
36.59
37.57
37.98
37.83
37.17
36.06
34.66
33.16
31.73
30.45
29.34
28.29
27.10
25.58
23.50
20.71
17.22
13.09
8.54
3.83
-0.73
-4.89
-8.50
-11.57
-14.27
-16.91
-19.86
-23.41
-27.77
-32.95
-38.71
-44.52
-49.59
-53.03
-54.04
-52.29
-47.95
-41.71
-34.47
-27.08
-20.09
-13.71
-7.97
-2.79
1.79
5.74
9.05
11.74
13.89
15.58
16.86
17.85
18.71
19.68
21.00
22.81
25.09
27.64
30.16
32.31
33.82
34.51
34.28
33.16
31.31
29.00
26.64
24.66
23.36
22.81
22.72
22.47
21.28
18.44
13.69
7.34
0.18
-6.76
-12.61
-17.02
-20.15
-22.49
-24.54
-26.57
-28.60
-30.61
-32.69
-35.25
-38.82
-43.75
-50.01
-56.97
-63.54
-68.40
-70.41
-68.97
-64.14
-56.55
-47.22
-37.28
-27.68
-19.06
-11.70
-5.56
-0.34
4.31
8.72
13.00
17.06
20.64
23.53
25.60
26.96
27.87
28.64
29.52
30.62
31.94
33.38
34.83
36.07
36.90
37.07
36.40
34.86
32.65
30.11
27.64
25.52
23.78
22.27
20.67
18.73
16.40
13.83
11.29
8.95
6.78
4.50
1.76
-1.65
-5.71
-10.12
-14.49
-18.52
-22.17
-25.65
-29.35
-33.62
-38.72
-44.62
-51.08
-57.54
-63.19
-67.08
-68.29
-66.27
-61.02
-53.18
-43.88
-34.38
-25.71
-18.33
-12.16
-6.74
-1.50
3.90
9.45
14.89
19.82
23.93
27.12
29.50
31.32
32.79
34.04
35.11
36.03
36.90
37.80
38.76
39.64
40.22
40.22
39.53
38.19
36.37
34.30
32.09
29.74
27.23
24.56
21.85
19.27
17.04
15.22
13.71
12.15
10.19
7.50
4.00
-0.07
-4.33
-8.31
-11.73
-14.55
-16.96
-19.32
-22.02
-25.48
-29.99
-35.69
-42.24
-48.88
-54.35
-57.26
-56.56
-51.97
-44.13
-34.37
-24.30
-15.22
-7.84
-2.14
2.34
6.17
9.78
13.21
16.31
18.84
20.80
22.49
24.41
27.04
30.45
34.25
37.72
40.16
41.14
40.69
39.27
37.43
35.61
33.92
32.20
30.11
27.44
24.12
20.36
16.51
12.92
9.79
7.10
4.67
2.19
-0.56
-3.73
-7.30
-11.10
-14.95
-18.62
-22.03
-25.18
-28.24
-31.47
-35.12
-39.46
-44.68
-50.82
-57.63
-64.48
-70.30
-73.82
-73.94
-70.14
-62.75
-52.78
-41.64
-30.58
-20.41
-11.40
-3.46
3.61
9.99
15.72
20.82
25.26
29.09
32.34
35.05
37.18
38.64
39.35
39.33
38.74
37.91
37.23
36.97
37.16
37.52
37.55
36.83
35.11
32.58
29.64
26.83
24.46
22.57
20.90
19.13
17.06
14.71
12.29
9.96
7.70
5.32
2.57
-0.69
-4.41
-8.33
-12.19
-15.84
-19.29
-22.72
-26.34
-30.37
-34.95
-40.20
-46.15
-52.60
-59.07
-64.69
-68.44
-69.33
-66.76
-60.75
-51.95
-41.46
-30.51
-20.12
-10.89
-2.98
3.73
9.51
14.61
19.22
23.42
27.22
30.59
33.48
35.87
37.77
39.19
40.18
40.79
41.14
41.40
41.73
42.26
42.95
43.54
43.70
43.09
41.55
39.18
36.23
33.06
29.96
27.17
24.78
22.76
20.93
19.02
16.79
14.15
11.22
8.28
5.60
3.28
1.18
-1.07
-3.86
-7.43
-11.76
-16.59
-21.49
-26.07
-30.10
-33.58
-36.74
-40.00
-43.76
-48.31
-53.66
-59.37
-64.66
-68.46
-69.78
-67.95
-62.86
-55.05
-45.58
-35.71
-26.50
-18.57
-11.97
-6.29
-1.01
4.31
9.77
15.16
20.13
24.28
27.32
29.17
29.97
30.00
29.63
29.27
29.25
29.74
30.76
32.06
33.26
33.93
33.69
32.32
29.86
26.54
22.77
19.03
15.78
13.33
11.77
10.95
10.52
10.07
9.18
7.56
5.07
1.81
-1.99
-5.96
-9.73
-13.04
-15.80
-18.22
-20.68
-23.65
-27.48
-32.32
-37.97
-43.89
-49.18
-52.83
-53.83
-51.58
-46.04
-37.92
-28.37
-18.74
-9.99
-2.58
3.64
9.09
14.15
18.92
23.27
26.95
29.75
31.67
32.86
33.59
34.11
34.66
35.36
36.19
36.99
37.52
37.52
36.81
35.44
33.61
31.66
29.91
28.51
27.37
26.18
24.52
22.04
18.63
14.47
9.93
5.53
1.68
-1.36
-3.63
-5.36
-6.93
-8.59
-10.31
-11.71
-12.06
-10.57
-6.76
-0.89
5.84
11.30
12.93
8.59
-2.47
-18.93
-37.39
-53.24
-62.07
-61.16
-50.46
-32.44
-11.09
9.52
26.48
38.51
45.80
49.29
50.06
48.94
46.58
43.52
40.38
37.84
36.37
35.95
36.04
35.62
33.69
29.78
24.27
18.29
13.28
10.23
9.21
9.42
9.52
8.40
5.63
1.68
-2.53
-6.06
-8.43
-9.79
-10.67
-11.61
-12.95
-14.64
-16.40
-17.90
-18.99
-19.67
-20.12
-20.44
-20.72
-21.02
-21.49
-22.53
-24.64
-28.30
-33.67
-40.58
-48.44
-56.58
-64.30
-71.02
-76.22
-79.34
-79.84
-77.30
-71.74
-63.70
-54.15
-44.24
-34.82
-26.35
-18.74
-11.67
-4.77
2.09
8.78
15.05
20.58
25.19
28.85
31.71
33.94
35.78
37.38
38.88
40.39
41.99
43.74
45.59
47.32
48.56
48.92
48.06
45.94
42.81
39.08
35.22
31.57
28.25
25.14
22.06
18.86
15.51
12.08
8.68
5.31
1.86
-1.84
-5.89
-10.16
-14.31
-17.89
-20.49
-22.08
-23.05
-24.14
-26.24
-30.04
-35.76
-42.97
-50.61
-57.12
-60.96
-61.02
-57.02
-49.67
-40.39
-30.79
-22.16
-15.11
-9.55
-4.95
-0.71
3.57
7.95
12.28
16.38
20.08
23.34
26.10
28.29
29.80
30.64
30.89
30.77
30.60
30.64
31.01
31.61
32.10
32.08
31.15
29.09
25.99
22.17
18.19
14.62
11.88
10.10
9.05
8.24
7.12
5.24
2.41
-1.25
-5.44
-9.72
-13.74
-17.32
-20.51
-23.55
-26.80
-30.53
-34.97
-40.15
-46.00
-52.16
-57.98
-62.53
-64.73
-63.75
-59.30
-51.88
-42.58
-32.77
-23.54
-15.44
-8.39
-1.94
4.37
10.73
16.98
22.71
27.47
31.08
33.58
35.30
36.60
37.71
38.67
39.41
39.94
40.36
40.92
41.76
42.76
43.47
43.33
41.95
39.31
35.81
32.07
28.65
25.86
23.64
21.67
19.57
17.01
13.89
10.31
6.60
3.10
0.06
-2.49
-4.76
-7.07
-9.77
-13.05
-16.95
-21.26
-25.70
-29.93
-33.68
-36.80
-39.44
-41.99
-45.01
-49.03
-54.22
-60.23
-66.12
-70.59
-72.37
-70.62
-65.24
-56.85
-46.67
-36.03
-26.10
-17.52
-10.36
-4.29
1.25
6.75
12.46
18.32
24.07
29.34
33.79
37.20
39.46
40.67
41.08
41.03
40.89
40.91
41.22
41.74
42.26
42.50
42.21
41.20
39.42
36.98
34.11
31.15
28.44
26.16
24.38
22.93
21.56
19.97
17.91
15.31
12.32
9.16
6.09
3.21
0.43
-2.51
-5.89
-9.85
-14.28
-18.83
-23.07
-26.69
-29.67
-32.35
-35.34
-39.26
-44.55
-51.16
-58.54
-65.63
-71.12
-73.86
-73.15
-69.00
-62.03
-53.30
-43.87
-34.66
-26.12
-18.37
-11.19
-4.23
2.75
9.79
16.67
23.01
28.36
32.47
35.29
36.97
37.75
37.88
37.53
36.91
36.30
35.96
36.08
36.61
37.23
37.52
37.08
35.77
33.76
31.46
29.27
27.50
26.24
25.31
24.43
23.30
21.76
19.76
17.44
14.95
12.51
10.20
7.98
5.69
3.10
-0.02
-3.74
-7.97
-12.45
-16.82
-20.80
-24.30
-27.45
-30.58
-34.10
-38.35
-43.54
-49.60
-56.06
-62.05
-66.38
-67.88
-65.75
-59.90
-51.03
-40.49
-29.80
-20.14
-12.09
-5.54
0.04
5.23
10.40
15.61
20.60
25.02
28.61
31.26
33.07
34.24
34.97
35.40
35.65
35.74
35.76
35.75
35.71
35.58
35.21
34.41
33.02
30.99
28.41
25.48
22.51
19.73
17.26
15.07
13.04
11.03
8.90
6.60
4.06
1.22
-2.00
-5.66
-9.68
-13.88
-18.01
-21.88
-25.52
-29.13
-33.03
-37.55
-42.82
-48.77
-55.09
-61.25
-66.63
-70.47
-72.11
-71.07
-67.19
-60.72
-52.26
-42.63
-32.55
-22.59
-13.06
-4.13
4.09
11.39
17.56
22.43
25.99
28.50
30.37
32.10
34.09
36.51
39.24
41.97
44.35
46.12
47.26
47.89
48.17
48.15
47.68
46.48
44.29
41.15
37.41
33.71
30.69
28.67
27.49
26.56
25.15
22.72
19.23
15.10
11.03
7.58
4.92
2.79
0.68
-1.95
-5.38
-9.61
-14.36
-19.27
-23.99
-28.28
-31.98
-35.17
-38.12
-41.28
-45.15
-50.05
-55.88
-62.06
-67.53
-71.07
-71.71
-69.02
-63.30
-55.39
-46.42
-37.44
-29.10
-21.65
-15.04
-9.13
-3.83
0.87
4.93
8.54
12.08
16.11
21.11
27.20
34.04
40.88
46.82
51.13
53.53
54.27
53.96
53.27
52.63
52.10
51.42
50.27
48.46
46.15
43.62
41.31
39.47
38.10
37.04
36.01
34.70
32.92
30.65
27.94
24.93
21.76
18.53
15.31
12.07
8.77
5.33
1.77
-1.90
-5.70
-9.65
-13.86
-18.36
-23.10
-27.93
-32.68
-37.22
-41.62
-46.16
-51.16
-56.86
-63.05
-69.09
-73.86
-76.10
-74.82
-69.68
-61.16
-50.45
-39.09
-28.42
-19.28
-11.83
-5.73
-0.47
4.35
8.90
13.19
17.12
20.70
23.90
26.71
29.04
30.77
31.85
32.44
32.87
33.52
34.66
36.28
38.03
39.37
39.72
38.73
36.29
32.57
27.92
22.80
17.68
13.03
9.16
6.27
4.31
3.10
2.32
1.63
0.69
-0.79
-2.94
-5.73
-8.98
-12.32
-15.40
-17.91
-19.75
-21.03
-22.10
-23.31
-25.01
-27.46
-30.79
-34.94
-39.57
-44.05
-47.51
-48.99
-47.78
-43.69
-37.15
-29.09
-20.66
-12.77
-5.95
-0.24
4.63
8.92
12.78
16.17
18.99
21.16
22.78
24.10
25.33
26.58
27.78
28.72
29.24
29.30
29.04
28.71
28.55
28.61
28.75
28.66
28.00
26.56
24.31
21.48
18.41
15.42
12.71
10.27
7.90
5.40
2.61
-0.51
-3.92
-7.48
-11.07
-14.55
-17.74
-20.56
-22.90
-24.84
-26.54
-28.26
-30.33
-33.06
-36.73
-41.50
-47.20
-53.23
-58.54
-61.83
-61.96
-58.40
-51.49
-42.34
-32.53
-23.50
-16.19
-10.78
-6.87
-3.61
-0.21
3.92
8.96
14.69
20.62
26.14
30.69
33.90
35.66
36.11
35.55
34.44
33.27
32.48
32.36
32.88
33.78
34.62
34.97
34.58
33.48
31.92
30.18
28.44
26.70
24.81
22.67
20.29
17.86
15.63
13.72
12.02
10.21
7.92
4.85
0.98
-3.46
-8.14
-12.71
-16.99
-20.95
-24.64
-28.17
-31.56
-34.81
-38.00
-41.36
-45.21
-49.81
-55.08
-60.42
-64.79
-67.00
-66.11
-61.86
-54.72
-45.76
-36.18
-26.97
-18.58
-11.04
-4.03
2.81
9.71
16.61
23.22
29.06
33.70
36.94
38.87
39.83
40.22
40.33
40.28
40.10
39.74
39.23
38.62
37.92
37.00
35.69
33.83
31.38
28.47
25.33
22.11
18.84
15.48
11.95
8.42
5.13
2.41
0.38
-1.11
-2.45
-4.14
-6.50
-9.57
-13.11
-16.77
-20.28
-23.61
-26.91
-30.47
-34.52
-39.20
-44.47
-50.03
-55.33
-59.56
-61.78
-61.23
-57.58
-51.07
-42.60
-33.38
-24.59
-16.98
-10.73
-5.52
-0.76
4.06
9.21
14.61
19.92
24.70
28.57
31.34
33.04
33.88
34.19
34.29
34.43
34.73
35.16
35.58
35.79
35.59
34.80
33.31
31.05
28.06
24.49
20.64
16.86
13.46
10.59
8.21
6.06
3.81
1.21
-1.78
-5.00
-8.19
-11.12
-13.68
-15.98
-18.22
-20.70
-23.68
-27.40
-32.01
-37.44
-43.40
-49.19
-53.86
-56.36
-55.88
-52.19
-45.66
-37.23
-28.02
-18.99
-10.67
-3.22
3.51
9.71
15.43
20.57
24.87
28.14
30.23
31.15
31.04
30.17
28.89
27.67
26.92
26.94
27.77
29.23
30.96
32.59
33.89
34.76
35.18
35.16
34.63
33.49
31.75
29.49
26.90
24.22
21.57
19.03
16.56
14.17
11.84
9.58
7.30
4.76
1.70
-2.05
-6.48
-11.31
-16.11
-20.52
-24.38
-27.87
-31.41
-35.52
-40.55
-46.53
-53.04
-59.25
-64.12
-66.61
-66.02
-62.18
-55.50
-46.91
-37.52
-28.30
-19.83
-12.30
-5.54
0.72
6.75
12.63
18.33
23.67
28.49
32.62
36.00
38.58
40.37
41.41
41.76
41.56
40.97
40.20
39.40
38.66
37.94
37.10
35.94
34.25
32.00
29.27
26.32
23.43
20.90
18.82
17.17
15.69
14.11
12.18
9.85
7.25
4.70
2.53
0.89
-0.34
-1.55
-3.24
-5.83
-9.36
-13.52
-17.78
-21.70
-25.13
-28.30
-31.71
-35.81
-40.84
-46.69
-52.82
-58.41
-62.52
-64.28
-63.11
-58.89
-52.08
-43.61
-34.54
-25.80
-17.87
-10.82
-4.35
1.90
8.17
14.53
20.79
26.63
31.68
35.66
38.38
39.93
40.51
40.47
40.15
39.82
39.64
39.63
39.73
39.77
39.56
38.87
37.56
35.58
33.06
30.28
27.61
25.36
23.74
22.67
21.83
20.73
18.99
16.44
13.27
9.91
6.79
4.17
2.00
-0.01
-2.26
-5.02
-8.38
-12.17
-16.11
-19.90
-23.35
-26.39
-29.10
-31.62
-34.13
-36.83
-39.93
-43.65
-48.17
-53.47
-59.09
-64.14
-67.37
-67.66
-64.39
-57.74
-48.72
-38.74
-29.08
-20.51
-13.16
-6.71
-0.68
5.23
11.06
16.65
21.72
26.03
29.43
31.87
33.38
34.07
34.14
33.87
33.58
33.55
34.00
34.96
36.24
37.49
38.28
38.25
37.23
35.33
32.89
30.38
28.21
26.56
25.40
24.45
23.37
21.80
19.61
16.89
13.94
11.11
8.73
6.91
5.51
4.13
2.35
-0.17
-3.50
-7.45
-11.62
-15.60
-19.08
-22.05
-24.76
-27.63
-31.13
-35.61
-41.09
-47.13
-52.89
-57.23
-59.02
-57.54
-52.68
-45.09
-35.94
-26.55
-17.95
-10.71
-4.87
-0.13
3.85
7.32
10.37
13.02
15.27
17.22
18.97
20.63
22.28
23.90
25.39
26.69
27.73
28.56
29.28
30.00
30.77
31.44
31.69
31.13
29.48
26.74
23.31
19.74
16.60
14.16
12.36
10.88
9.36
7.57
5.51
3.33
1.28
-0.51
-2.05
-3.47
-4.98
-6.78
-8.97
-11.53
-14.31
-17.10
-19.74
-22.19
-24.53
-26.96
-29.74
-33.11
-37.20
-41.94
-47.05
-51.91
-55.71
-57.60
-56.91
-53.40
-47.39
-39.63
-31.08
-22.67
-15.04
-8.49
-3.01
1.66
5.83
9.82
13.81
17.77
21.50
24.71
27.17
28.83
29.79
30.35
30.78
31.25
31.81
32.44
33.04
33.49
33.67
33.43
32.63
31.20
29.22
26.85
24.33
21.95
19.92
18.29
17.03
16.02
15.05
13.93
12.51
10.67
8.41
5.83
3.06
0.33
-2.20
-4.45
-6.47
-8.43
-10.58
-13.08
-15.96
-19.12
-22.40
-25.63
-28.73
-31.68
-34.53
-37.33
-40.19
-43.29
-46.75
-50.54
-54.35
-57.55
-59.34
-59.00
-56.17
-50.99
-44.06
-36.20
-28.24
-20.80
-14.22
-8.52
-3.49
1.18
5.78
10.45
15.18
19.75
23.85
27.22
29.74
31.51
32.72
33.59
34.31
35.01
35.76
36.59
37.44
38.14
38.43
38.08
36.94
35.07
32.68
30.08
27.53
25.22
23.20
21.45
19.89
18.41
16.92
15.34
13.62
11.73
9.69
7.50
5.16
2.73
0.26
-2.20
-4.63
-7.10
-9.72
-12.55
-15.58
-18.67
-21.63
-24.29
-26.58
-28.58
-30.51
-32.67
-35.41
-38.98
-43.45
-48.57
-53.74
-58.05
-60.52
-60.36
-57.19
-51.28
-43.37
-34.55
-25.86
-18.09
-11.53
-6.06
-1.30
3.18
7.62
12.03
16.19
19.86
22.79
24.91
26.29
27.12
27.63
28.02
28.44
28.93
29.48
30.00
30.41
30.68
30.76
30.59
30.04
28.98
27.36
25.26
22.97
20.86
19.22
18.14
17.44
16.75
15.72
14.19
12.24
10.10
8.03
6.13
4.37
2.59
0.71
-1.33
-3.53
-5.92
-8.56
-11.51
-14.69
-17.88
-20.71
-22.96
-24.64
-26.10
-27.91
-30.59
-34.36
-39.01
-43.90
-48.13
-50.77
-51.08
-48.67
-43.65
-36.54
-28.25
-19.78
-12.04
-5.64
-0.75
2.74
5.23
7.10
8.68
10.19
11.70
13.23
14.79
16.34
17.84
19.24
20.50
21.61
22.62
23.54
24.35
24.95
25.23
25.08
24.51
23.64
22.63
21.61
20.60
19.53
18.27
16.81
15.17
13.46
11.79
10.20
8.68
7.16
5.58
3.88
2.00
-0.13
-2.59
-5.44
-8.67
-12.16
-15.74
-19.24
-22.56
-25.76
-28.98
-32.48
-36.43
-40.90
-45.77
-50.68
-55.04
-58.09
-59.06
-57.28
-52.50
-45.04
-35.77
-25.93
-16.76
-9.12
-3.23
1.21
4.80
8.05
11.16
14.06
16.58
18.65
20.37
21.99
23.73
25.64
27.55
29.17
30.24
30.69
30.64
30.32
29.94
29.58
29.15
28.47
27.39
25.98
24.40
22.97
21.91
21.24
20.74
20.10
19.02
17.39
15.26
12.83
10.29
7.85
5.60
3.56
1.68
-0.21
-2.37
-5.05
-8.43
-12.45
-16.86
-21.22
-25.22
-28.71
-31.80
-34.82
-38.14
-42.09
-46.71
-51.75
-56.56
-60.25
-61.87
-60.74
-56.71
-50.20
-42.16
-33.64
-25.57
-18.49
-12.56
-7.59
-3.22
0.92
5.14
9.54
14.06
18.48
22.47
25.79
28.36
30.28
31.71
32.83
33.77
34.56
35.25
35.90
36.54
37.16
37.61
37.65
37.10
35.86
34.03
31.81
29.46
27.16
24.98
22.89
20.81
18.64
16.29
13.67
10.78
7.73
4.74
2.02
-0.31
-2.37
-4.38
-6.56
-9.07
-11.85
-14.72
-17.58
-20.46
-23.54
-27.07
-31.21
-35.98
-41.27
-46.87
-52.48
-57.55
-61.35
-63.01
-61.80
-57.41
-50.23
-41.21
-31.54
-22.26
-13.97
-6.72
-0.27
5.68
11.26
16.37
20.80
24.40
27.17
29.27
30.88
32.17
33.19
33.98
34.61
35.19
35.91
36.94
38.34
39.99
41.56
42.63
42.83
41.96
40.08
37.49
34.59
31.76
29.20
26.83
24.42
21.70
18.59
15.20
11.81
8.66
5.80
3.10
0.29
-2.80
-6.19
-9.69
-13.04
-16.03
-18.62
-20.98
-23.30
-25.86
-28.91
-32.65
-37.18
-42.36
-47.69
-52.29
-55.08
-55.08
-51.81
-45.42
-36.75
-27.03
-17.46
-8.93
-1.79
4.06
8.94
13.14
16.78
19.72
21.76
22.78
22.93
22.62
22.37
22.62
23.54
24.96
26.57
28.04
29.19
29.97
30.41
30.47
30.13
29.34
28.09
26.50
24.65
22.62
20.34
17.75
14.85
11.80
8.84
6.15
3.77
1.55
-0.79
-3.40
-6.30
-9.33
-12.27
-15.02
-17.63
-20.25
-23.09
-26.27
-29.83
-33.79
-38.17
-43.04
-48.33
-53.70
-58.41
-61.48
-61.95
-59.23
-53.34
-44.98
-35.26
-25.42
-16.39
-8.66
-2.27
3.02
7.57
11.64
15.35
18.72
21.70
24.22
26.25
27.81
28.95
29.78
30.36
30.81
31.15
31.45
31.68
31.80
31.71
31.30
30.46
29.15
27.39
25.26
22.91
20.48
18.18
16.06
14.07
12.02
9.61
6.64
3.11
-0.68
-4.34
-7.48
-10.01
-12.17
-14.41
-17.18
-20.78
-25.20
-30.25
-35.57
-40.78
-45.55
-49.53
-52.51
-54.33
-54.97
-54.38
-52.52
-49.20
-44.24
-37.51
-29.16
-19.62
-9.54
0.41
9.76
18.26
25.92
32.87
39.18
44.78
49.47
53.02
55.21
55.95
55.25
53.31
50.44
47.05
43.66
40.76
38.66
37.43
36.79
36.26
35.32
33.67
31.35
28.65
25.92
23.46
21.27
19.22
17.14
14.94
12.64
10.28
7.88
5.37
2.65
-0.26
-3.19
-5.96
-8.46
-10.83
-13.37
-16.46
-20.25
-24.65
-29.22
-33.51
-37.26
-40.54
-43.85
-47.85
-53.05
-59.47
-66.48
-72.80
-76.91
-77.52
-74.00
-66.65
-56.57
-45.24
-34.04
-23.85
-14.95
-7.13
-0.05
6.57
12.79
18.47
23.48
27.76
31.36
34.34
36.69
38.31
39.09
39.04
38.40
37.58
37.05
37.06
37.56
38.21
38.50
37.99
36.49
34.05
30.95
27.51
24.03
20.75
17.79
15.21
12.96
10.93
8.93
6.81
4.45
1.80
-1.09
-4.12
-7.21
-10.25
-13.15
-15.86
-18.36
-20.77
-23.35
-26.54
-30.79
-36.29
-42.92
-50.01
-56.50
-61.14
-62.87
-61.06
-55.76
-47.60
-37.71
-27.35
-17.64
-9.33
-2.64
2.62
6.94
10.83
14.60
18.32
21.81
24.82
27.19
28.84
29.90
30.58
31.13
31.80
32.71
33.87
35.15
36.30
37.03
37.10
36.38
34.88
32.74
30.20
27.50
24.86
22.33
19.84
17.29
14.57
11.69
8.78
6.01
3.46
1.03
-1.55
-4.55
-8.11
-12.15
-16.37
-20.43
-24.13
-27.49
-30.77
-34.35
-38.60
-43.74
-49.77
-56.34
-62.68
-67.72
-70.27
-69.41
-64.78
-56.80
-46.49
-35.22
-24.19
-14.26
-5.78
1.34
7.35
12.56
17.22
21.50
25.49
29.18
32.49
35.32
37.59
39.31
40.58
41.58
42.49
43.43
44.39
45.21
45.62
45.34
44.18
42.12
39.37
36.27
33.21
30.50
28.24
26.36
24.65
22.81
20.61
17.89
14.61
10.88
6.96
3.16
-0.31
-3.38
-6.24
-9.15
-12.39
-16.04
-19.97
-23.96
-27.78
-31.37
-34.82
-38.36
-42.26
-46.76
-51.96
-57.74
-63.71
-69.04
-72.64
-73.38
-70.53
-64.03
-54.60
-43.56
-32.37
-22.19
-13.55
-6.36
-0.06
5.93
12.01
18.20
24.23
29.75
34.47
38.26
41.10
43.06
44.17
44.46
44.11
43.44
42.85
42.69
43.07
43.78
44.39
44.44
43.62
41.91
39.49
36.65
33.71
30.90
28.35
26.12
24.10
22.11
19.83
17.03
13.60
9.73
5.77
2.09
-1.12
-3.99
-6.90
-10.27
-14.37
-19.10
-24.14
-29.00
-33.34
-37.05
-40.34
-43.62
-47.42
-52.17
-58.00
-64.61
-71.13
-76.29
-78.70
-77.27
-71.68
-62.47
-50.93
-38.72
-27.34
-17.70
-10.04
-4.02
0.98
5.56
10.06
14.55
18.85
22.73
26.04
28.72
30.78
32.28
33.27
33.85
34.18
34.58
35.35
36.66
38.36
39.97
40.83
40.29
38.08
34.39
29.95
25.81
23.01
22.17
23.38
26.16
29.64
32.78
34.70
34.80
32.86
29.00
23.59
17.15
10.29
3.55
-2.68
-8.24
-13.17
-17.63
-21.85
-26.03
-30.41
-35.22
-40.60
-46.48
-52.45
-57.67
-61.00
-61.35
-58.04
-51.19
-41.72
-31.06
-20.66
-11.59
-4.22
1.66
6.57
11.00
15.15
18.93
22.15
24.71
26.67
28.23
29.63
30.96
32.19
33.21
33.99
34.59
35.18
35.87
36.55
36.92
36.56
35.14
32.66
29.44
25.99
22.83
20.22
18.10
16.17
14.03
11.44
8.32
4.82
1.25
-2.09
-5.00
-7.46
-9.62
-11.83
-14.40
-17.59
-21.45
-25.83
-30.45
-34.98
-39.18
-42.92
-46.28
-49.56
-53.21
-57.67
-63.08
-69.02
-74.46
-77.90
-77.92
-73.68
-65.34
-53.96
-41.18
-28.64
-17.51
-8.27
-0.74
5.59
11.27
16.66
21.88
26.80
31.22
34.89
37.66
39.48
40.39
40.57
40.25
39.80
39.59
39.91
40.87
42.24
43.64
44.50
44.38
43.11
40.78
37.76
34.52
31.45
28.82
26.60
24.55
22.29
19.51
16.11
12.25
8.28
4.57
1.32
-1.48
-4.06
-6.68
-9.57
-12.84
-16.46
-20.38
-24.51
-28.69
-32.78
-36.62
-40.16
-43.61
-47.36
-51.89
-57.45
-63.77
-69.95
-74.59
-76.26
-73.96
-67.56
-57.82
-46.18
-34.20
-23.14
-13.63
-5.66
1.14
7.25
12.92
18.15
22.69
26.26
28.73
30.21
31.05
31.80
32.93
34.73
37.19
40.05
42.90
45.27
46.76
47.06
45.99
43.58
40.00
35.61
30.87
26.32
22.44
19.56
17.72
16.66
15.89
14.81
12.93
10.07
6.41
2.43
-1.30
-4.26
-6.25
-7.40
-8.09
-8.79
-9.96
-11.89
-14.61
-17.96
-21.68
-25.49
-29.29
-33.23
-37.61
-42.78
-48.85
-55.43
-61.57
-65.89
-66.99
-63.94
-56.63
-45.95
-33.45
-20.89
-9.65
-0.46
6.65
12.10
16.43
20.03
23.04
25.44
27.14
28.12
28.49
28.46
28.31
28.23
28.36
28.70
29.26
30.00
30.88
31.81
32.63
33.06
32.78
31.58
29.42
26.51
23.22
19.88
16.73
13.80
11.03
8.36
5.77
3.27
0.84
-1.67
-4.45
-7.65
-11.26
-15.09
-18.81
-22.12
-24.90
-27.23
-29.45
-32.01
-35.32
-39.77
-45.46
-52.17
-59.26
-65.65
-70.00
-71.16
-68.43
-61.88
-52.35
-41.13
-29.62
-18.87
-9.48
-1.52
5.21
11.02
16.20
20.81
24.84
28.19
30.77
32.62
33.88
34.77
35.49
36.20
36.96
37.78
38.66
39.50
40.17
40.44
40.11
39.09
37.38
35.14
32.60
29.95
27.30
24.65
21.97
19.21
16.29
13.24
10.04
6.75
3.46
0.21
-2.95
-6.07
-9.27
-12.65
-16.29
-20.18
-24.20
-28.23
-32.17
-35.98
-39.77
-43.77
-48.27
-53.52
-59.49
-65.70
-71.18
-74.63
-74.85
-71.19
-63.82
-53.76
-42.48
-31.42
-21.47
-12.85
-5.28
1.71
8.40
14.84
20.87
26.32
31.12
35.38
39.29
43.07
46.88
50.72
54.43
57.69
60.03
61.05
60.50
58.38
55.01
50.87
46.45
42.15
38.25
34.89
32.18
30.17
28.85
28.09
27.64
27.05
25.90
23.85
20.83
17.09
13.18
9.69
7.09
5.40
4.14
2.48
-0.41
-5.00
-11.17
-18.21
-25.17
-31.26
-36.13
-39.95
-43.28
-46.79
-51.02
-56.25
-62.40
-69.01
-75.23
-79.98
-82.07
-80.62
-75.29
-66.50
-55.32
-43.15
-31.34
-20.77
-11.77
-4.15
2.56
8.77
14.75
20.47
25.75
30.31
34.01
36.81
38.81
40.18
41.05
41.55
41.77
41.81
41.81
41.87
42.00
42.07
41.83
41.00
39.40
37.07
34.25
31.29
28.47
25.87
23.36
20.70
17.75
14.58
11.41
8.51
5.98
3.66
1.23
-1.65
-5.08
-8.91
-12.73
-16.22
-19.25
-22.00
-24.85
-28.21
-32.37
-37.47
-43.42
-49.90
-56.27
-61.57
-64.67
-64.55
-60.66
-53.18
-43.03
-31.60
-20.28
-10.11
-1.53
5.47
11.23
16.10
20.35
24.05
27.15
29.52
31.16
32.17
32.81
33.45
34.38
35.74
37.43
39.17
40.57
41.33
41.30
40.44
38.81
36.47
33.54
30.17
26.63
23.22
20.19
17.62
15.41
13.28
10.98
8.38
5.56
2.73
0.04
-2.43
-4.82
-7.33
-10.14
-13.36
-16.96
-20.83
-24.81
-28.74
-32.54
-36.24
-40.08
-44.39
-49.46
-55.21
-61.09
-65.95
-68.42
-67.34
-62.20
-53.42
-42.20
-30.09
-18.48
-8.28
0.29
7.43
13.52
18.90
23.73
28.01
31.70
34.76
37.23
39.16
40.60
41.57
42.08
42.24
42.21
42.22
42.47
43.04
43.81
44.49
44.74
44.31
43.04
40.94
38.12
34.79
31.17
27.55
24.19
21.19
18.53
15.99
13.39
10.63
7.81
5.16
2.88
1.00
-0.69
-2.58
-5.02
-8.23
-12.19
-16.68
-21.37
-25.95
-30.20
-34.08
-37.71
-41.39
-45.52
-50.53
-56.63
-63.60
-70.68
-76.57
-79.81
-79.17
-74.15
-65.22
-53.66
-41.17
-29.32
-19.05
-10.64
-3.77
2.14
7.55
12.77
17.87
22.79
27.37
31.45
34.81
37.24
38.67
39.21
39.24
39.22
39.55
40.49
41.99
43.84
45.67
47.09
47.74
47.38
45.96
43.61
40.62
37.39
34.29
31.52
29.11
26.84
24.44
21.64
18.26
14.34
10.09
5.85
1.94
-1.36
-4.06
-6.32
-8.52
-11.05
-14.21
-18.06
-22.40
-26.84
-30.98
-34.54
-37.42
-39.80
-42.05
-44.63
-48.05
-52.62
-58.30
-64.53
-70.22
-73.92
-74.33
-70.72
-63.28
-53.09
-41.71
-30.62
-20.81
-12.60
-5.75
0.20
5.66
10.81
15.63
19.98
23.74
26.82
29.20
30.89
31.92
32.44
32.62
32.71
32.95
33.48
34.30
35.26
36.07
36.41
36.03
34.85
32.97
30.66
28.22
25.88
23.70
21.57
19.24
16.52
13.39
10.06
6.87
4.15
2.03
0.35
-1.25
-3.19
-5.76
-8.95
-12.51
-16.08
-19.33
-22.09
-24.48
-26.83
-29.64
-33.40
-38.40
-44.54
-51.21
-57.26
-61.21
-61.70
-57.97
-50.17
-39.43
-27.47
-15.99
-6.21
1.42
7.13
11.43
14.81
17.52
19.59
21.05
22.01
22.77
23.60
24.63
25.86
27.12
28.27
29.26
30.22
31.29
32.51
33.76
34.74
35.10
34.55
32.98
30.50
27.37
23.93
20.46
17.14
14.07
11.25
8.64
6.24
4.04
2.03
0.07
-2.03
-4.53
-7.61
-11.29
-15.37
-19.50
-23.32
-26.61
-29.41
-31.95
-34.70
-38.18
-42.84
-48.88
-56.00
-63.39
-69.73
-73.55
-73.66
-69.61
-61.89
-51.73
-40.69
-30.14
-20.94
-13.31
-7.08
-1.85
2.76
7.13
11.57
16.29
21.35
26.59
31.67
36.15
39.64
41.90
42.91
42.87
42.10
40.96
39.76
38.71
37.86
37.09
36.19
34.96
33.26
31.04
28.40
25.51
22.56
19.78
17.29
15.10
13.08
11.05
8.81
6.27
3.41
0.27
-3.12
-6.79
-10.75
-14.97
-19.32
-23.59
-27.59
-31.23
-34.61
-38.00
-41.81
-46.48
-52.33
-59.31
-66.93
-74.13
-79.54
-81.76
-79.88
-73.79
-64.30
-52.85
-41.09
-30.36
-21.33
-14.04
-8.06
-2.83
2.09
6.88
11.52
15.88
19.83
23.27
26.13
28.34
29.86
30.74
31.15
31.40
31.84
32.71
34.06
35.69
37.18
38.10
38.04
36.82
34.40
30.93
26.69
22.07
17.54
13.71
11.23
10.59
12.03
15.27
19.55
23.76
26.69
27.40
25.41
20.79
14.13
6.33
-1.62
-8.89
-15.06
-20.15
-24.53
-28.83
-33.64
-39.36
-46.08
-53.44
-60.67
-66.57
-69.84
-69.37
-64.75
-56.50
-45.99
-34.99
-25.05
-17.03
-10.86
-5.85
-1.09
4.01
9.55
15.17
20.30
24.44
27.28
28.87
29.43
29.35
29.09
29.13
29.87
31.51
34.02
36.97
39.74
41.59
41.96
40.65
37.86
34.08
29.89
25.77
21.99
18.73
16.12
14.19
12.87
11.92
10.87
9.25
6.71
3.17
-1.13
-5.80
-10.47
-14.91
-19.09
-23.10
-27.14
-31.42
-36.22
-41.77
-48.14
-54.94
-61.35
-66.09
-67.86
-65.77
-59.67
-50.25
-38.81
-26.85
-15.61
-5.76
2.52
9.44
15.29
20.34
24.67
28.28
31.12
33.22
34.69
35.70
36.47
37.16
37.85
38.52
39.14
39.63
39.98
40.17
40.20
40.04
39.53
38.50
36.74
34.13
30.69
26.60
22.18
17.81
13.89
10.67
8.33
6.82
5.98
5.53
5.05
4.16
2.49
-0.14
-3.76
-8.18
-13.13
-18.28
-23.35
-28.17
-32.81
-37.49
-42.60
-48.52
-55.39
-63.04
-70.77
-77.52
-82.07
-83.35
-80.78
-74.39
-64.88
-53.39
-41.22
-29.51
-18.99
-9.92
-2.12
4.84
11.37
17.73
23.94
29.79
34.99
39.26
42.49
44.69
46.01
46.69
46.99
47.18
47.46
47.95
48.65
49.37
49.86
49.79
48.92
47.19
44.72
41.81
38.79
35.97
33.49
31.27
29.11
26.72
23.84
20.37
16.40
12.13
7.86
3.79
-0.00
-3.58
-7.18
-11.04
-15.27
-19.83
-24.51
-29.03
-33.19
-37.00
-40.71
-44.80
-49.84
-56.28
-64.17
-73.04
-81.80
-88.85
-92.50
-91.46
-85.21
-74.34
-60.27
-44.94
-30.15
-17.19
-6.56
1.85
8.61
14.36
19.64
24.71
29.57
34.04
37.85
40.78
42.75
43.82
44.20
44.21
44.20
44.53
45.42
46.94
48.90
50.89
52.35
52.76
51.82
49.50
46.07
41.92
37.50
33.14
28.98
24.96
20.94
16.78
12.43
8.00
3.67
-0.35
-3.98
-7.25
-10.30
-13.19
-15.93
-18.43
-20.65
-22.65
-24.69
-27.20
-30.67
-35.49
-41.73
-49.00
-56.41
-62.62
-66.12
-65.62
-60.47
-50.92
-38.09
-23.78
-9.82
2.30
11.93
19.16
24.61
29.01
32.81
36.04
38.42
39.68
39.73
38.83
37.49
36.26
35.56
35.53
36.16
37.23
38.52
39.72
40.48
40.40
39.20
36.78
33.35
29.33
25.26
21.57
18.41
15.72
13.27
10.87
8.39
5.85
3.23
0.43
-2.74
-6.49
-10.90
-15.85
-21.00
-25.98
-30.51
-34.54
-38.24
-41.99
-46.20
-51.18
-57.04
-63.65
-70.52
-76.82
-81.41
-83.10
-80.98
-74.79
-65.10
-53.17
-40.59
-28.68
-18.21
-9.23
-1.38
5.79
12.52
18.76
24.34
29.08
32.92
35.90
38.07
39.49
40.25
40.52
40.58
40.76
41.35
42.46
43.94
45.47
46.66
47.17
46.81
45.59
43.67
41.30
38.74
36.25
33.91
31.73
29.63
27.51
25.23
22.70
19.85
16.64
13.12
9.46
5.93
2.75
0.02
-2.46
-5.12
-8.41
-12.63
-17.74
-23.36
-29.00
-34.22
-38.85
-42.98
-46.92
-51.07
-55.82
-61.42
-67.85
-74.70
-81.05
-85.68
-87.30
-85.03
-78.72
-69.00
-57.18
-44.72
-32.92
-22.54
-13.77
-6.32
0.31
6.65
12.99
19.34
25.42
30.85
35.25
38.44
40.45
41.52
41.92
41.97
41.89
41.89
42.15
42.77
43.74
44.80
45.56
45.58
44.57
42.49
39.64
36.50
33.61
31.36
29.88
28.94
28.09
26.82
24.75
21.82
18.29
14.62
11.28
8.51
6.20
3.96
1.30
-2.20
-6.68
-12.02
-17.82
-23.58
-28.92
-33.63
-37.85
-41.96
-46.55
-52.08
-58.73
-66.12
-73.31
-78.93
-81.61
-80.35
-74.96
-66.10
-55.10
-43.53
-32.72
-23.40
-15.60
-8.84
-2.46
3.97
10.51
16.81
22.32
26.58
29.52
31.42
32.80
34.13
35.54
36.87
37.74
37.90
37.42
36.70
36.24
36.29
36.71
36.97
36.37
34.39
30.73
25.40
18.71
11.36
4.58
0.05
-0.58
3.66
12.42
23.89
35.37
44.20
48.69
48.55
44.62
38.17
30.27
21.42
11.79
1.58
-8.68
-18.16
-25.97
-31.55
-34.89
-36.52
-37.32
-38.14
-39.55
-41.62
-44.01
-46.04
-47.03
-46.40
-43.93
-39.75
-34.31
-28.28
-22.29
-16.75
-11.68
-6.77
-1.63
3.96
9.88
15.63
20.58
24.22
26.34
27.11
26.91
26.25
25.48
24.80
24.27
23.95
23.96
24.48
25.70
27.54
29.68
31.58
32.67
32.63
31.53
29.77
27.86
26.15
24.70
23.30
21.68
19.66
17.27
14.66
11.99
9.31
6.55
3.61
0.36
-3.24
-7.18
-11.38
-15.74
-20.13
-24.43
-28.57
-32.59
-36.67
-41.08
-46.17
-52.15
-58.99
-66.20
-72.88
-77.82
-79.77
-77.78
-71.60
-61.80
-49.67
-36.88
-25.00
-15.03
-7.28
-1.40
3.36
7.76
12.32
17.20
22.23
27.08
31.46
35.19
38.22
40.59
42.38
43.65
44.54
45.18
45.73
46.30
46.86
47.22
47.04
45.97
43.81
40.63
36.73
32.60
28.73
25.44
22.81
20.65
18.67
16.53
14.07
11.26
8.25
5.25
2.41
-0.20
-2.66
-5.11
-7.78
-10.88
-14.53
-18.72
-23.32
-28.09
-32.76
-37.17
-41.29
-45.24
-49.26
-53.62
-58.60
-64.26
-70.44
-76.53
-81.55
-84.26
-83.52
-78.78
-70.29
-59.17
-46.99
-35.27
-24.98
-16.32
-8.94
-2.26
4.16
10.41
16.31
21.60
26.11
29.87
33.02
35.70
37.99
39.86
41.30
42.31
43.04
43.72
44.55
45.57
46.60
47.27
47.15
45.95
43.56
40.22
36.35
32.45
28.91
25.89
23.28
20.83
18.25
15.33
12.05
8.57
5.15
2.00
-0.79
-3.39
-6.11
-9.27
-13.06
-17.39
-21.95
-26.32
-30.16
-33.38
-36.20
-39.10
-42.65
-47.28
-53.12
-59.76
-66.27
-71.35
-73.63
-72.11
-66.45
-57.16
-45.43
-32.76
-20.63
-10.03
-1.34
5.58
11.20
16.00
20.19
23.72
26.37
27.97
28.66
28.86
29.12
29.89
31.30
33.10
34.89
36.33
37.32
37.95
38.37
38.60
38.44
37.56
35.71
32.88
29.33
25.53
21.87
18.56
15.53
12.60
9.52
6.23
2.87
-0.42
-3.54
-6.65
-10.02
-13.88
-18.23
-22.77
-27.07
-30.78
-33.85
-36.58
-39.51
-43.17
-47.92
-53.84
-60.64
-67.66
-73.89
-78.07
-78.96
-75.74
-68.32
-57.49
-44.67
-31.50
-19.33
-8.90
-0.32
6.83
13.07
18.79
24.10
28.91
33.06
36.43
39.05
41.06
42.61
43.80
44.67
45.21
45.53
45.78
46.15
46.72
47.31
47.55
47.03
45.52
43.12
40.18
37.12
34.30
31.85
29.69
27.69
25.69
23.57
21.25
18.66
15.73
12.53
9.21
5.89
2.62
-0.75
-4.54
-9.04
-14.35
-20.26
-26.32
-32.00
-36.98
-41.27
-45.18
-49.24
-54.05
-60.07
-67.47
-75.91
-84.44
-91.57
-95.57
-95.03
-89.39
-79.14
-65.79
-51.28
-37.36
-25.16
-14.95
-6.38
1.21
8.41
15.63
22.97
30.28
37.22
43.34
48.23
51.65
53.65
54.53
54.80
55.01
55.57
56.69
58.27
60.01
61.47
62.23
62.00
60.69
58.44
55.56
52.38
49.16
46.04
43.03
40.11
37.24
34.43
31.71
29.05
26.45
23.80
21.00
17.92
14.45
10.54
6.25
1.75
-2.75
-7.03
-10.98
-14.66
-18.27
-22.06
-26.24
-30.78
-35.50
-40.07
-44.20
-47.85
-51.30
-55.15
-60.12
-66.67
-74.67
-83.19
-90.65
-95.20
-95.35
-90.53
-81.20
-68.72
-54.82
-41.03
-28.31
-17.02
-6.99
2.06
10.45
18.26
25.47
31.92
37.48
42.01
45.52
48.09
49.87
51.01
51.66
51.90
51.82
51.59
51.36
51.25
51.31
51.40
51.25
50.52
48.98
46.56
43.44
39.93
36.41
33.21
30.47
28.13
25.98
23.69
20.99
17.78
14.20
10.47
6.89
3.60
0.61
-2.24
-5.20
-8.47
-12.12
-16.10
-20.19
-24.14
-27.74
-30.88
-33.71
-36.58
-39.95
-44.29
-49.80
-56.24
-62.84
-68.36
-71.41
-70.82
-66.03
-57.34
-45.79
-32.91
-20.23
-8.91
0.54
8.21
14.57
20.15
25.29
30.00
34.04
37.09
38.98
39.76
39.76
39.45
39.25
39.41
40.00
40.94
42.06
43.17
44.04
44.43
44.10
42.86
40.68
37.67
34.11
30.35
26.73
23.48
20.65
18.15
15.72
13.14
10.33
7.40
4.57
2.08
-0.06
-1.99
-4.07
-6.63
-9.90
-13.86
-18.32
-23.00
-27.59
-31.88
-35.75
-39.29
-42.85
-46.95
-52.15
-58.69
-66.16
-73.40
-78.66
-80.26
-77.13
-69.33
-57.98
-44.87
-31.81
-20.02
-9.90
-1.23
6.46
13.59
20.27
26.37
31.71
36.15
39.71
42.57
44.91
46.88
48.56
49.93
50.97
51.72
52.28
52.83
53.56
54.58
55.79
56.90
57.33
56.31
53.12
47.36
39.21
29.49
19.50
10.60
3.80
-0.59
-2.94
-4.03
-4.71
-5.56
-6.77
-8.23
-9.78
-11.36
-13.19
-15.60
-18.92
-23.23
-28.27
-33.45
-38.06
-41.62
-44.08
-45.93
-48.03
-51.27
-56.31
-63.27
-71.70
-80.66
-88.89
-95.01
-97.76
-96.32
-90.55
-81.17
-69.60
-57.41
-45.93
-35.75
-26.76
-18.48
-10.47
-2.68
4.48
10.50
15.01
18.12
20.33
22.27
24.43
26.94
29.60
31.96
33.47
33.68
32.37
29.74
26.49
23.63
22.18
22.84
25.58
29.64
33.78
36.70
37.49
35.85
31.97
26.36
19.65
12.53
5.77
0.28
-3.16
-3.97
-2.16
1.60
6.16
10.16
12.42
12.31
9.89
5.78
0.91
-3.80
-7.71
-10.58
-12.59
-14.23
-16.19
-19.16
-23.59
-29.53
-36.43
-43.22
-48.54
-51.06
-49.98
-45.25
-37.61
-28.29
-18.63
-9.70
-1.95
4.65
10.46
15.81
20.79
25.18
28.67
31.06
32.41
33.06
33.51
34.16
35.18
36.51
37.99
39.39
40.51
41.22
41.39
40.93
39.81
38.06
35.82
33.24
30.49
27.67
24.84
21.98
19.06
16.07
13.00
9.84
6.61
3.30
-0.08
-3.54
-7.06
-10.62
-14.14
-17.49
-20.57
-23.33
-25.86
-28.41
-31.39
-35.30
-40.51
-47.05
-54.44
-61.58
-67.07
-69.55
-68.16
-62.87
-54.44
-44.17
-33.42
-23.17
-13.93
-5.69
1.77
8.67
15.08
20.88
25.87
29.87
32.82
34.80
35.98
36.60
36.93
37.15
37.34
37.47
37.45
37.21
36.77
36.20
35.59
34.96
34.18
32.99
31.12
28.38
24.82
20.67
16.33
12.18
8.48
5.30
2.57
0.14
-2.18
-4.58
-7.23
-10.29
-13.85
-17.89
-22.25
-26.67
-30.84
-34.63
-38.19
-41.96
-46.53
-52.29
-59.13
-66.23
-72.21
-75.50
-74.89
-69.95
-61.16
-49.76
-37.27
-25.12
-14.16
-4.71
3.40
10.51
16.92
22.78
28.01
32.46
36.03
38.70
40.56
41.77
42.42
42.59
42.35
41.87
41.52
41.71
42.74
44.56
46.73
48.59
49.43
48.83
46.81
43.72
40.00
36.02
32.01
28.04
24.23
20.73
17.67
15.11
12.93
10.87
8.68
6.17
3.30
0.19
-3.00
-6.11
-9.05
-11.86
-14.68
-17.70
-21.13
-25.10
-29.57
-34.30
-38.89
-42.95
-46.29
-49.01
-51.55
-54.57
-58.70
-64.16
-70.55
-76.81
-81.44
-82.94
-80.30
-73.28
-62.50
-49.25
-35.10
-21.55
-9.68
0.01
7.60
13.56
18.64
23.48
28.52
33.78
39.04
43.90
47.99
51.10
53.09
53.96
53.73
52.54
50.59
48.22
45.78
43.61
41.92
40.69
39.76
38.81
37.54
35.75
33.40
30.66
27.80
25.17
22.99
21.35
20.17
19.20
18.18
16.81
14.94
12.54
9.72
6.67
3.64
0.83
-1.68
-3.85
-5.83
-7.85
-10.19
-13.13
-16.88
-21.52
-26.92
-32.79
-38.75
-44.45
-49.68
-54.49
-59.22
-64.35
-70.30
-77.13
-84.33
-90.76
-94.93
-95.50
-91.73
-83.86
-72.99
-60.74
-48.64
-37.74
-28.29
-19.99
-12.25
-4.61
3.04
10.44
17.05
22.38
26.14
28.51
30.02
31.37
33.21
35.78
38.91
42.01
44.35
45.33
44.60
42.21
38.52
34.07
29.43
25.08
21.36
18.35
15.87
13.50
10.72
7.08
2.39
-3.07
-8.64
-13.30
-16.04
-16.20
-13.69
-9.15
-3.81
1.00
4.18
5.22
4.30
2.06
-0.69
-3.42
-6.03
-8.86
-12.46
-17.29
-23.46
-30.70
-38.38
-45.85
-52.63
-58.56
-63.66
-67.86
-70.77
-71.69
-69.76
-64.42
-55.74
-44.50
-32.00
-19.63
-8.50
0.85
8.36
14.41
19.61
24.65
30.11
36.34
43.34
50.73
57.87
64.05
68.72
71.61
72.77
72.45
71.03
68.92
66.50
64.08
61.84
59.76
57.64
55.17
52.04
48.05
43.20
37.75
32.19
27.13
23.20
20.81
19.95
20.17
20.69
20.64
19.42
16.85
13.20
9.00
4.81
0.98
-2.44
-5.65
-8.93
-12.48
-16.31
-20.24
-24.05
-27.56
-30.78
-33.92
-37.39
-41.62
-46.93
-53.40
-60.71
-68.08
-74.38
-78.27
-78.57
-74.68
-66.76
-55.75
-43.08
-30.23
-18.38
-8.14
0.38
7.44
13.44
18.76
23.66
28.26
32.55
36.36
39.47
41.66
42.81
43.02
42.57
41.87
41.36
41.28
41.67
42.34
42.88
42.89
42.05
40.27
37.66
34.52
31.23
28.10
25.31
22.86
20.59
18.29
15.74
12.93
9.99
7.30
5.28
4.21
4.02
4.24
4.11
2.78
-0.26
-5.10
-11.35
-18.31
-25.29
-31.76
-37.47
-42.45
-46.89
-51.07
-55.34
-60.08
-65.46
-71.37
-77.15
-81.69
-83.61
-81.81
-75.84
-66.18
-54.03
-40.90
-28.09
-16.40
-6.06
3.03
11.02
17.91
23.63
28.09
31.41
33.90
35.95
37.87
39.71
41.25
42.21
42.36
41.75
40.74
39.83
39.44
39.72
40.49
41.30
41.70
41.37
40.24
38.44
36.22
33.88
31.57
29.35
27.11
24.67
21.87
18.64
15.09
11.48
8.08
5.03
2.23
-0.63
-3.88
-7.74
-12.14
-16.81
-21.39
-25.53
-29.01
-31.79
-33.98
-35.84
-37.81
-40.42
-44.13
-49.18
-55.25
-61.43
-66.36
-68.66
-67.37
-62.24
-53.85
-43.32
-32.02
-21.13
-11.44
-3.34
3.22
8.46
12.69
16.16
18.99
21.20
22.75
23.64
23.93
23.83
23.55
23.33
23.33
23.66
24.31
25.23
26.25
27.11
27.43
26.84
25.06
21.98
17.82
13.06
8.41
4.67
2.58
2.61
4.78
8.67
13.47
18.10
21.57
23.11
22.42
19.66
15.26
9.78
3.69
-2.67
-9.15
-15.59
-21.88
-27.91
-33.69
-39.32
-44.89
-50.27
-54.97
-58.11
-58.68
-56.01
-50.05
-41.48
-31.55
-21.61
-12.68
-5.28
0.70
5.70
10.24
14.65
19.04
23.23
27.01
30.26
32.99
35.39
37.72
40.14
42.69
45.27
47.71
49.82
51.47
52.48
52.66
51.74
49.52
45.94
41.20
35.67
29.88
24.28
19.19
14.72
10.77
7.21
3.88
0.71
-2.34
-5.32
-8.38
-11.75
-15.59
-19.96
-24.62
-29.22
-33.40
-36.99
-40.08
-43.03
-46.31
-50.39
-55.52
-61.61
-68.16
-74.26
-78.69
-80.30
-78.22
-72.23
-62.86
-51.25
-38.85
-26.99
-16.58
-7.96
-0.92
5.03
10.43
15.57
20.50
25.03
28.97
32.25
34.98
37.34
39.41
41.11
42.30
43.00
43.41
43.96
45.02
46.67
48.60
50.15
50.60
49.51
46.82
42.83
38.07
33.04
28.10
23.43
19.06
14.96
11.09
7.42
3.91
0.54
-2.74
-6.02
-9.37
-12.91
-16.64
-20.51
-24.40
-28.24
-31.99
-35.75
-39.71
-44.07
-49.04
-54.72
-61.10
-67.89
-74.50
-80.01
-83.30
-83.32
-79.45
-71.82
-61.36
-49.58
-38.08
-28.04
-19.91
-13.41
-7.81
-2.33
3.36
9.21
14.75
19.48
23.13
25.70
27.40
28.44
28.99
29.03
28.67
28.06
27.51
27.32
27.62
28.26
28.99
29.70
30.61
32.42
35.91
41.82
50.52
61.89
75.49
90.81
107.25
124.01
140.07
154.01
164.49
170.64
172.14
169.32
163.00
154.08
143.27
131.37
119.17
107.94
99.83
97.08
101.57
113.96
132.70
153.61
170.89
177.80
168.95
142.04
97.82
39.85
-26.39
-94.72
-159.34
-214.70
-257.26
-285.48
-296.72
-291.01
-271.48
-242.93
-209.56
-177.12
-145.89
-115.84
-88.97
-69.44
-61.10
-66.33
-83.30
-106.08
-126.85
-138.56
-138.27
-127.13
-108.85
-88.18
-69.43
-55.72
-49.28
-51.53
-62.28
-79.98
-101.21
-121.32
-136.00
-142.33
-139.62
-129.48
-115.46
-101.87
-93.21
-92.78
-101.57
-118.05
-138.65
-158.69
-173.85
-181.28
-179.89
-170.33
-154.29
-133.79
-110.84
-87.20
-64.04
-41.81
-20.26
1.39
23.90
47.74
72.88
98.87
124.91
149.96
172.74
191.85
205.99
214.39
217.23
215.76
211.91
207.74
204.68
203.09
202.26
200.83
197.29
190.67
180.89
168.76
155.68
143.00
131.52
121.27
111.79
102.60
93.75
85.74
79.16
74.05
69.69
64.93
59.02
52.22
45.53
39.85
34.92
29.03
19.92
6.18
-11.60
-30.76
-47.89
-60.58
-68.61
-73.91
-79.30
-86.66
-95.81
-104.48
-109.21
-106.90
-95.96
-76.82
-51.97
-25.30
-1.14
16.89
26.96
29.72
28.07
26.33
28.77
38.22
55.39
78.87
105.50
131.07
150.86
160.42
156.92
140.70
116.03
90.17
70.40
60.44
58.45
57.96
51.62
35.51
11.59
-13.42
-31.87
-39.32
-36.72
-29.28
-23.34
-23.26
-29.95
-41.63
-55.57
-69.47
-81.90
-91.83
-98.13
-99.69
-95.77
-86.63
-73.76
-59.64
-47.02
-38.16
-34.20
-35.01
-39.44
-45.68
-51.97
-57.01
-60.27
-62.00
-62.95
-64.03
-65.89
-68.86
-72.90
-77.81
-83.41
-89.47
-95.59
-101.05
-104.78
-105.54
-102.40
-94.97
-83.72
-69.79
-54.73
-40.12
-27.15
-16.52
-8.37
-2.42
1.93
5.38
8.62
12.14
16.16
20.61
25.19
29.51
33.24
36.21
38.43
40.06
41.37
42.58
43.75
44.77
45.39
45.34
44.40
42.59
40.08
37.18
34.25
31.55
29.24
27.37
25.83
24.44
22.96
21.19
19.05
16.56
13.87
11.09
8.20
5.05
1.40
-2.88
-7.71
-12.75
-17.59
-21.89
-25.58
-28.90
-32.30
-36.27
-41.18
-47.17
-54.04
-61.13
-67.34
-71.32
-71.77
-67.94
-59.91
-48.63
-35.70
-22.79
-11.23
-1.71
5.70
11.38
15.86
19.67
23.22
26.81
30.55
34.50
38.52
42.46
46.06
49.13
51.53
53.24
54.34
55.01
55.47
55.86
56.18
56.28
55.84
54.54
52.17
48.81
44.78
40.59
36.72
33.47
30.87
28.64
26.38
23.77
20.66
17.13
13.44
9.92
6.83
4.29
2.18
0.19
-2.10
-5.06
-8.82
-13.30
-18.19
-23.10
-27.68
-31.78
-35.49
-39.10
-43.12
-48.12
-54.53
-62.38
-71.06
-79.30
-85.40
-87.69
-85.16
-77.75
-66.47
-53.05
-39.35
-26.83
-16.27
-7.70
-0.69
5.34
10.87
16.17
21.33
26.29
30.96
35.15
38.67
41.30
42.89
43.45
43.22
42.61
42.08
42.01
42.44
43.14
43.63
43.42
42.20
39.96
36.94
33.56
30.21
27.16
24.51
22.20
20.11
18.16
16.29
14.56
12.95
11.41
9.69
7.49
4.48
0.53
-4.27
-9.63
-15.19
-20.64
-25.83
-30.74
-35.40
-39.90
-44.45
-49.30
-54.75
-60.82
-67.07
-72.48
-75.64
-75.22
-70.46
-61.62
-49.85
-36.87
-24.37
-13.51
-4.73
2.15
7.60
12.06
15.79
18.82
21.17
22.94
24.37
25.75
27.31
29.05
30.85
32.50
33.91
35.15
36.46
38.06
40.01
42.09
43.85
44.80
44.55
42.98
40.15
36.28
31.72
26.83
22.04
17.72
14.16
11.36
9.01
6.60
3.59
-0.33
-5.08
-10.27
-15.39
-20.01
-24.01
-27.53
-30.94
-34.68
-39.13
-44.56
-51.04
-58.23
-65.37
-71.29
-74.60
-74.12
-69.29
-60.45
-48.80
-35.98
-23.67
-13.06
-4.68
1.57
6.21
9.86
13.01
15.94
18.71
21.24
23.48
25.44
27.20
28.93
30.70
32.52
34.29
35.86
37.17
38.22
39.09
39.80
40.25
40.20
39.40
37.66
35.04
31.77
28.21
24.66
21.28
18.08
14.96
11.82
8.59
5.27
1.84
-1.70
-5.41
-9.34
-13.51
-17.86
-22.23
-26.47
-30.51
-34.51
-38.82
-43.95
-50.33
-58.04
-66.58
-74.84
-81.27
-84.32
-82.96
-77.06
-67.38
-55.37
-42.65
-30.58
-19.98
-11.03
-3.52
2.96
8.85
14.46
19.96
25.32
30.35
34.78
38.37
40.98
42.70
43.75
44.43
45.01
45.64
46.36
47.11
47.72
48.05
47.92
47.24
45.98
44.19
41.99
39.53
36.93
34.23
31.41
28.35
24.99
21.32
17.44
13.52
9.70
5.97
2.15
-2.09
-6.97
-12.53
-18.45
-24.24
-29.37
-33.55
-36.91
-39.94
-43.36
-47.87
-53.86
-61.19
-69.11
-76.27
-81.08
-82.12
-78.61
-70.66
-59.29
-46.09
-32.74
-20.55
-10.20
-1.75
5.17
11.16
16.70
22.14
27.55
32.80
37.63
41.74
44.95
47.23
48.75
49.76
50.50
51.12
51.68
52.16
52.49
52.57
52.22
51.28
49.56
47.11
44.15
41.07
38.22
35.77
33.61
31.40
28.78
25.55
21.79
17.80
13.90
10.27
6.86
3.42
-0.35
-4.61
-9.33
-14.29
-19.18
-23.78
-27.96
-31.76
-35.37
-39.08
-43.26
-48.34
-54.57
-61.89
-69.63
-76.49
-80.85
-81.23
-76.89
-68.08
-56.04
-42.57
-29.39
-17.72
-7.98
0.08
7.08
13.62
19.97
26.08
31.63
36.28
39.87
42.44
44.25
45.53
46.53
47.32
47.96
48.51
49.01
49.48
49.80
49.72
49.00
47.43
44.99
41.87
38.36
34.80
31.45
28.41
25.60
22.76
19.59
15.82
11.39
6.49
1.59
-2.83
-6.39
-8.99
-10.94
-12.76
-15.03
-18.09
-21.94
-26.23
-30.39
-33.94
-36.68
-38.76
-40.65
-42.97
-46.27
-50.82
-56.45
-62.45
-67.66
-70.65
-70.18
-65.56
-57.05
-45.78
-33.42
-21.62
-11.47
-3.26
3.39
9.11
14.41
19.46
24.03
27.75
30.37
31.88
32.59
33.00
33.59
34.68
36.27
38.19
40.14
41.90
43.35
44.40
44.91
44.61
43.28
40.85
37.54
33.85
30.34
27.40
25.06
23.08
21.12
18.93
16.52
14.00
11.52
9.07
6.52
3.71
0.53
-2.93
-6.53
-10.16
-13.83
-17.60
-21.59
-25.89
-30.61
-35.89
-41.88
-48.67
-56.03
-63.22
-69.01
-71.93
-70.74
-64.94
-55.00
-42.30
-28.67
-15.86
-5.05
3.33
9.56
14.23
17.96
21.16
23.98
26.40
28.38
29.95
31.18
32.13
32.82
33.25
33.38
33.29
33.13
33.13
33.45
34.09
34.86
35.40
35.33
34.33
32.32
29.48
26.19
22.95
20.23
18.25
16.96
16.00
14.88
13.15
10.58
7.24
3.42
-0.41
-3.90
-6.87
-9.43
-11.86
-14.51
-17.60
-21.11
-24.86
-28.55
-31.93
-34.96
-37.80
-40.75
-44.16
-48.31
-53.36
-59.23
-65.57
-71.62
-76.26
-78.29
-76.77
-71.44
-62.90
-52.46
-41.65
-31.70
-23.19
-15.99
-9.61
-3.48
2.68
8.81
14.63
19.78
24.03
27.34
29.83
31.76
33.38
34.87
36.30
37.69
39.03
40.31
41.57
42.76
43.78
44.41
44.44
43.72
42.33
40.52
38.57
36.70
34.92
33.09
31.01
28.56
25.74
22.69
19.53
16.37
13.23
10.07
6.86
3.59
0.25
-3.22
-6.90
-10.83
-15.02
-19.30
-23.49
-27.39
-30.92
-34.13
-37.23
-40.54
-44.40
-49.12
-54.84
-61.41
-68.23
-74.30
-78.39
-79.34
-76.45
-69.75
-60.02
-48.57
-36.86
-26.12
-17.04
-9.71
-3.74
1.45
6.40
11.41
16.44
21.24
25.49
28.96
31.61
33.50
34.76
35.46
35.65
35.40
34.88
34.39
34.20
34.46
35.05
35.64
35.78
35.15
33.67
31.57
29.23
27.04
25.25
23.86
22.75
21.70
20.51
19.00
17.05
14.59
11.58
8.22
4.78
1.67
-0.84
-2.70
-4.18
-5.75
-7.87
-10.79
-14.43
-18.48
-22.57
-26.46
-30.11
-33.66
-37.34
-41.37
-45.97
-51.21
-57.05
-63.13
-68.75
-72.88
-74.45
-72.62
-67.14
-58.50
-47.83
-36.52
-25.83
-16.52
-8.77
-2.28
3.41
8.68
13.67
18.34
22.51
26.05
28.94
31.27
33.14
34.67
35.90
36.84
37.54
38.10
38.63
39.29
40.09
40.87
41.32
41.06
39.76
37.31
33.98
30.27
26.84
24.17
22.43
21.40
20.63
19.65
18.15
16.09
13.65
11.08
8.56
6.12
3.69
1.12
-1.69
-4.79
-8.19
-11.83
-15.64
-19.49
-23.21
-26.71
-30.03
-33.36
-37.06
-41.51
-46.89
-52.97
-58.98
-63.77
-66.05
-64.87
-59.96
-51.83
-41.66
-30.90
-20.82
-12.25
-5.46
-0.25
3.83
7.24
10.28
13.16
15.93
18.61
21.18
23.61
25.83
27.77
29.31
30.39
31.01
31.27
31.35
31.51
31.91
32.59
33.41
34.07
34.18
33.49
31.91
29.60
26.90
24.22
21.88
19.93
18.26
16.58
14.59
12.08
9.12
5.89
2.71
-0.20
-2.83
-5.42
-8.35
-11.93
-16.25
-21.06
-25.93
-30.35
-34.07
-37.12
-39.88
-42.92
-46.83
-52.04
-58.60
-66.13
-73.69
-79.96
-83.47
-83.06
-78.33
-69.84
-59.02
-47.72
-37.63
-29.70
-24.07
-20.09
-16.78
-13.32
-9.31
-4.91
-0.66
2.81
5.12
6.27
6.63
6.82
7.38
8.55
10.19
11.83
12.93
13.19
12.75
12.36
13.39
17.48
26.13
40.23
59.76
83.76
110.39
137.25
161.77
181.72
195.63
203.13
204.81
201.67
194.59
183.96
169.85
152.65
133.76
115.83
102.20
95.59
96.78
103.83
112.57
117.94
115.79
104.25
84.08
58.02
29.47
1.24
-25.04
-48.75
-69.71
-87.56
-101.72
-111.67
-117.47
-120.08
-121.08
-122.23
-124.71
-128.88
-134.25
-139.70
-143.94
-145.70
-144.03
-138.32
-128.48
-115.01
-99.01
-82.07
-65.96
-52.14
-41.41
-33.73
-28.34
-24.23
-20.58
-17.14
-14.35
-13.02
-13.95
-17.46
-23.15
-30.05
-37.07
-43.40
-48.81
-53.49
-57.65
-61.18
-63.50
-63.77
-61.46
-56.81
-50.84
-45.05
-40.76
-38.50
-37.80
-37.48
-36.15
-32.93
-27.81
-21.67
-15.84
-11.57
-9.45
-9.33
-10.45
-11.91
-13.11
-13.97
-14.89
-16.39
-18.97
-22.87
-28.09
-34.38
-41.16
-47.42
-51.82
-52.96
-49.84
-42.28
-31.14
-18.07
-4.97
6.49
15.32
21.30
24.87
26.80
28.09
29.68
32.37
36.57
42.16
48.41
54.25
58.59
60.73
60.55
58.50
55.34
51.76
48.24
44.98
42.05
39.60
37.89
37.25
37.89
39.68
42.11
44.40
45.82
45.99
45.03
43.51
42.09
41.23
40.89
40.62
39.75
37.76
34.53
30.37
25.80
21.31
17.14
13.23
9.31
5.04
0.17
-5.49
-12.06
-19.70
-28.47
-38.17
-48.12
-57.07
-63.50
-66.01
-63.87
-57.33
-47.60
-36.49
-25.84
-16.94
-10.31
-5.71
-2.47
0.17
2.73
5.44
8.17
10.70
12.81
14.42
15.62
16.60
17.57
18.67
20.03
21.71
23.71
25.95
28.21
30.08
31.11
30.87
29.22
26.38
22.90
19.46
16.66
14.75
13.62
12.86
11.98
10.62
8.61
6.02
3.01
-0.23
-3.67
-7.39
-11.53
-16.16
-21.14
-26.02
-30.09
-32.67
-33.36
-32.25
-30.09
-28.09
-27.66
-30.11
-36.24
-46.13
-58.94
-72.93
-85.78
-95.11
-99.11
-97.12
-89.77
-78.62
-65.61
-52.34
-39.68
-27.80
-16.44
-5.28
5.77
16.46
26.34
34.87
41.57
46.17
48.67
49.37
48.82
47.74
46.82
46.55
47.20
48.76
51.06
53.70
56.18
57.96
58.53
57.61
55.22
51.72
47.75
43.96
40.85
38.58
36.94
35.51
33.85
31.66
28.88
25.66
22.28
18.96
15.79
12.73
9.63
6.25
2.45
-1.87
-6.71
-11.93
-17.31
-22.52
-27.27
-31.39
-34.98
-38.47
-42.51
-47.81
-54.83
-63.45
-72.85
-81.56
-87.78
-89.91
-87.01
-79.17
-67.46
-53.54
-39.24
-25.99
-14.57
-5.09
2.83
9.75
16.20
22.51
28.78
34.93
40.69
45.79
49.99
53.22
55.53
57.03
57.84
58.07
57.83
57.31
56.74
56.34
56.17
56.04
55.56
54.34
52.20
49.28
46.01
42.92
40.29
38.12
36.16
34.05
31.59
28.81
25.91
23.11
20.56
18.23
16.03
13.85
11.60
9.30
6.82
3.98
0.56
-3.60
-8.48
-13.87
-19.43
-24.83
-29.93
-34.86
-39.92
-45.52
-52.00
-59.53
-68.00
-76.87
-85.15
-91.45
-94.32
-92.71
-86.38
-76.09
-63.39
-50.11
-37.71
-27.01
-18.07
-10.53
-3.90
2.19
7.86
13.16
18.02
22.43
26.38
29.87
32.89
35.39
37.30
38.51
38.98
38.79
38.20
37.51
36.98
36.71
36.52
36.07
34.92
32.76
29.43
25.01
19.80
14.36
9.48
6.08
4.99
6.72
11.14
17.51
24.68
31.34
36.39
39.11
39.26
36.94
32.56
26.76
20.31
14.01
8.48
3.94
0.15
-3.49
-7.83
-13.57
-21.13
-30.39
-40.56
-50.24
-57.61
-60.98
-59.27
-52.57
-42.14
-30.02
-18.33
-8.55
-1.20
4.06
8.00
11.29
14.33
17.16
19.66
21.73
23.36
24.60
25.53
26.24
26.78
27.28
27.83
28.57
29.60
30.95
32.50
34.01
35.14
35.56
35.00
33.38
30.83
27.65
24.23
20.92
17.99
15.48
13.30
11.24
9.05
6.61
3.93
1.18
-1.44
-3.77
-5.83
-7.84
-10.10
-12.93
-16.50
-20.68
-25.14
-29.38
-32.92
-35.56
-37.45
-39.01
-40.92
-43.77
-47.95
-53.42
-59.63
-65.53
-69.77
-71.04
-68.42
-61.80
-51.92
-40.17
-28.18
-17.31
-8.29
-1.20
4.39
9.05
13.22
17.01
20.30
22.89
24.66
25.72
26.31
26.74
27.21
27.81
28.51
29.31
30.31
31.67
33.50
35.70
37.84
39.35
39.63
38.38
35.75
32.27
28.68
25.61
23.35
21.77
20.42
18.79
16.51
13.55
10.23
7.11
4.78
3.65
3.59
3.88
3.29
0.47
-5.58
-14.96
-26.73
-39.20
-50.42
-58.89
-63.99
-66.10
-66.31
-66.01
-66.42
-68.22
-71.42
-75.31
-78.71
-80.24
-78.76
-73.73
-65.40
-54.68
-42.87
-31.29
-20.92
-12.28
-5.41
0.03
4.61
8.91
13.34
18.04
22.82
27.31
31.11
33.93
35.71
36.59
36.81
36.68
36.45
36.37
36.66
37.36
38.40
39.50
40.32
40.54
39.95
38.53
36.41
33.87
31.27
28.90
26.92
25.28
23.73
21.91
19.53
16.47
12.89
9.15
5.65
2.65
0.18
-2.01
-4.31
-7.13
-10.70
-15.01
-19.85
-24.83
-29.62
-33.99
-37.85
-41.29
-44.57
-48.03
-52.08
-56.98
-62.70
-68.72
-74.05
-77.40
-77.63
-74.12
-67.04
-57.37
-46.55
-35.99
-26.73
-19.10
-12.89
-7.48
-2.28
3.09
8.66
14.21
19.44
24.15
28.18
31.52
34.09
35.87
36.87
37.26
37.37
37.60
38.26
39.47
41.01
42.44
43.24
43.01
41.58
39.08
35.84
32.31
28.94
25.99
23.54
21.46
19.58
17.69
15.68
13.49
11.12
8.56
5.75
2.66
-0.76
-4.42
-8.21
-11.92
-15.35
-18.36
-21.00
-23.44
-26.02
-29.09
-33.01
-37.98
-43.91
-50.40
-56.60
-61.39
-63.55
-62.17
-56.97
-48.50
-38.04
-27.16
-17.27
-9.22
-3.11
1.53
5.42
9.18
13.04
16.91
20.46
23.38
25.57
27.15
28.38
29.52
30.73
31.98
33.19
34.27
35.22
36.10
36.86
37.39
37.45
36.75
35.14
32.63
29.48
26.07
22.87
20.20
18.13
16.45
14.74
12.57
9.73
6.32
2.70
-0.71
-3.72
-6.43
-9.25
-12.58
-16.56
-21.05
-25.61
-29.80
-33.33
-36.16
-38.52
-40.79
-43.41
-46.82
-51.28
-56.75
-62.69
-68.01
-71.28
-71.10
-66.67
-58.11
-46.54
-33.70
-21.39
-10.94
-2.91
2.92
7.28
11.02
14.83
18.96
23.35
27.66
31.57
34.88
37.60
39.89
41.87
43.55
44.78
45.38
45.31
44.75
44.03
43.47
43.13
42.84
42.25
41.03
39.11
36.64
33.99
31.57
29.67
28.37
27.53
26.86
25.96
24.49
22.23
19.15
15.44
11.45
7.50
3.84
0.58
-2.38
-5.19
-8.06
-11.14
-14.51
-18.09
-21.71
-25.16
-28.31
-31.19
-34.10
-37.47
-41.71
-46.88
-52.47
-57.42
-60.35
-59.93
-55.27
-46.25
-33.40
-17.88
-1.22
14.79
28.36
37.95
42.65
42.45
38.25
31.65
24.38
17.89
13.10
10.46
10.20
12.29
16.49
22.11
28.05
33.08
36.22
37.15
36.29
34.49
32.55
30.98
29.78
28.69
27.41
25.78
23.86
21.76
19.59
17.36
15.03
12.53
9.83
6.97
4.07
1.28
-1.25
-3.45
-5.36
-7.10
-8.82
-10.62
-12.54
-14.57
-16.68
-18.89
-21.26
-23.85
-26.64
-29.55
-32.43
-35.21
-38.00
-41.15
-45.14
-50.38
-56.88
-64.05
-70.72
-75.36
-76.62
-73.78
-67.03
-57.45
-46.57
-35.88
-26.36
-18.35
-11.65
-5.78
-0.34
4.91
10.03
14.90
19.35
23.22
26.38
28.82
30.62
31.95
33.07
34.16
35.34
36.60
37.82
38.87
39.65
40.05
39.96
39.31
38.08
36.35
34.32
32.22
30.22
28.37
26.59
24.71
22.62
20.30
17.92
15.68
13.78
12.23
10.87
9.41
7.52
4.95
1.62
-2.39
-6.78
-11.11
-14.95
-17.97
-20.16
-21.78
-23.37
-25.60
-29.04
-33.97
-40.13
-46.75
-52.61
-56.36
-56.86
-53.56
-46.73
-37.41
-27.05
-17.05
-8.38
-1.44
3.91
7.97
11.10
13.44
15.04
15.93
16.26
16.26
16.23
16.40
16.86
17.62
18.61
19.74
20.90
22.00
22.91
23.51
23.70
23.42
22.68
21.54
20.14
18.58
17.04
15.68
14.57
13.73
12.98
12.11
10.88
9.18
7.02
4.50
1.79
-0.98
-3.76
-6.55
-9.42
-12.42
-15.59
-18.87
-22.11
-25.13
-27.81
-30.22
-32.69
-35.74
-39.85
-45.25
-51.67
-58.34
-64.10
-67.69
-68.11
-64.89
-58.25
-49.02
-38.44
-27.81
-18.22
-10.24
-3.94
1.08
5.45
9.68
14.08
18.65
23.13
27.22
30.64
33.23
34.98
35.99
36.44
36.59
36.73
37.14
38.03
39.42
41.15
42.82
43.94
44.04
42.80
40.22
36.62
32.57
28.69
25.46
23.06
21.37
20.03
18.66
16.97
14.87
12.41
9.78
7.15
4.61
2.12
-0.48
-3.40
-6.84
-10.89
-15.46
-20.26
-24.92
-29.13
-32.75
-35.98
-39.26
-43.17
-48.16
-54.28
-61.01
-67.31
-71.86
-73.43
-71.27
-65.44
-56.73
-46.43
-35.94
-26.34
-18.23
-11.67
-6.31
-1.67
2.71
7.11
11.66
16.27
20.75
24.84
28.27
30.83
32.42
33.10
33.07
32.69
32.33
32.35
32.94
34.12
35.73
37.48
39.02
40.04
40.34
39.83
38.63
36.95
35.09
33.29
31.64
30.09
28.42
26.43
24.01
21.19
18.14
15.04
12.06
9.21
6.45
3.63
0.61
-2.73
-6.46
-10.54
-14.87
-19.29
-23.62
-27.75
-31.71
-35.72
-40.10
-45.21
-51.18
-57.81
-64.39
-69.83
-72.89
-72.54
-68.40
-60.86
-51.05
-40.40
-30.29
-21.58
-14.51
-8.80
-3.93
0.58
4.93
9.08
12.80
15.93
18.48
20.60
22.48
24.24
25.86
27.26
28.44
29.54
30.86
32.59
34.71
36.86
38.52
39.18
38.64
37.01
34.67
32.03
29.41
26.94
24.62
22.41
20.25
18.17
16.19
14.33
12.59
10.84
8.89
6.52
3.53
-0.05
-4.02
-8.04
-11.83
-15.19
-18.18
-21.01
-23.94
-27.20
-30.99
-35.41
-40.46
-45.92
-51.23
-55.47
-57.54
-56.55
-52.15
-44.75
-35.43
-25.54
-16.24
-8.19
-1.50
4.01
8.59
12.35
15.30
17.51
19.14
20.47
21.80
23.33
25.13
27.24
29.60
32.13
34.78
37.35
39.60
41.25
41.98
41.60
40.02
37.34
33.80
29.79
25.72
21.96
18.79
16.30
14.40
12.86
11.32
9.43
6.97
3.85
0.21
-3.67
-7.51
-11.15
-14.58
-17.88
-21.20
-24.51
-27.79
-30.95
-34.00
-37.04
-40.30
-44.10
-48.72
-54.17
-60.10
-65.63
-69.56
-70.65
-68.08
-61.77
-52.52
-41.73
-30.92
-21.22
-13.17
-6.68
-1.32
3.37
7.69
11.80
15.76
19.56
23.15
26.39
29.07
31.00
32.08
32.48
32.59
32.86
33.62
34.95
36.62
38.18
39.15
39.20
38.22
36.37
33.99
31.46
29.10
27.09
25.39
23.83
22.22
20.38
18.28
15.99
13.59
11.15
8.61
5.88
2.90
-0.38
-3.85
-7.43
-11.03
-14.61
-18.18
-21.77
-25.43
-29.29
-33.55
-38.48
-44.24
-50.74
-57.46
-63.46
-67.52
-68.55
-65.91
-59.73
-50.86
-40.60
-30.36
-21.13
-13.35
-6.95
-1.53
3.40
8.12
12.74
17.20
21.35
25.10
28.37
31.10
33.19
34.58
35.20
35.13
34.64
34.12
33.96
34.40
35.35
36.46
37.19
37.08
35.94
33.91
31.34
28.71
26.35
24.43
22.94
21.72
20.51
19.04
17.14
14.75
11.95
9.00
6.12
3.42
0.86
-1.81
-4.81
-8.29
-12.24
-16.43
-20.65
-24.73
-28.68
-32.66
-36.88
-41.58
-46.87
-52.67
-58.60
-63.99
-67.91
-69.39
-67.73
-62.76
-54.91
-45.21
-34.92
-25.25
-16.93
-10.16
-4.59
0.33
5.07
9.82
14.47
18.72
22.29
25.08
27.17
28.75
29.95
30.85
31.47
31.93
32.46
33.40
34.95
37.08
39.38
41.21
42.00
41.40
39.53
36.80
33.79
30.94
28.41
26.10
23.75
21.21
18.47
15.66
12.90
10.21
7.45
4.44
1.06
-2.65
-6.51
-10.29
-13.82
-17.07
-20.11
-23.17
-26.49
-30.33
-34.90
-40.21
-46.04
-51.75
-56.34
-58.66
-57.74
-53.21
-45.44
-35.49
-24.80
-14.71
-6.09
0.74
5.99
10.13
13.56
16.53
19.03
20.95
22.21
22.84
23.02
23.06
23.24
23.80
24.87
26.44
28.40
30.56
32.67
34.42
35.49
35.63
34.73
32.86
30.28
27.34
24.37
21.59
19.06
16.73
14.45
12.09
9.54
6.80
3.93
0.97
-2.05
-5.16
-8.42
-11.86
-15.41
-18.98
-22.46
-25.83
-29.17
-32.72
-36.73
-41.44
-46.89
-52.76
-58.36
-62.66
-64.54
-63.16
-58.24
-50.24
-40.25
-29.67
-19.76
-11.39
-4.84
0.09
3.94
7.37
11.00
15.20
20.06
25.29
30.33
34.46
37.19
38.35
38.19
37.25
36.09
35.14
34.55
34.21
33.94
33.52
32.81
31.73
30.28
28.44
26.24
23.75
21.11
18.50
16.11
14.01
12.22
10.64
9.19
7.80
6.50
5.29
4.18
3.02
1.59
-0.36
-3.05
-6.57
-10.76
-15.39
-20.14
-24.80
-29.36
-33.96
-38.92
-44.58
-51.13
-58.41
-65.83
-72.38
-76.78
-77.93
-75.18
-68.64
-59.10
-47.86
-36.31
-25.52
-16.09
-8.05
-0.99
5.72
12.68
20.24
28.34
36.60
44.37
51.02
56.11
59.51
61.41
62.12
61.98
61.31
60.34
59.33
58.43
57.67
56.84
55.59
53.49
50.28
45.99
41.03
36.03
31.53
27.82
24.74
21.86
18.67
14.88
10.53
5.93
1.49
-2.50
-5.98
-9.13
-12.22
-15.47
-18.99
-22.79
-26.85
-31.05
-35.26
-39.33
-43.16
-46.83
-50.61
-54.85
-59.84
-65.46
-71.08
-75.59
-77.72
-76.48
-71.53
-63.35
-53.02
-41.96
-31.42
-22.25
-14.75
-8.77
-3.86
0.48
4.68
9.01
13.50
18.02
22.28
25.99
28.88
30.86
31.97
32.47
32.74
33.17
34.07
35.54
37.40
39.24
40.59
41.04
40.49
39.13
37.30
35.29
33.21
30.98
28.41
25.45
22.26
19.13
16.34
13.96
11.86
9.74
7.35
4.52
1.32
-2.17
-5.81
-9.57
-13.44
-17.39
-21.34
-25.22
-29.12
-33.23
-37.85
-43.08
-48.58
-53.50
-56.62
-56.81
-53.45
-46.75
-37.64
-27.53
-17.74
-9.16
-2.15
3.45
7.94
11.63
14.63
16.94
18.55
19.53
20.08
20.50
21.04
21.81
22.73
23.57
24.10
24.24
24.07
23.78
23.51
23.27
22.95
22.45
21.70
20.77
19.77
18.68
17.34
15.44
12.72
9.20
5.26
1.47
-1.64
-3.82
-5.24
-6.35
-7.72
-9.75
-12.57
-16.09
-20.16
-24.68
-29.69
-35.33
-41.66
-48.48
-55.24
-61.05
-64.83
-65.65
-63.05
-57.18
-48.86
-39.29
-29.73
-21.06
-13.64
-7.32
-1.68
3.59
8.54
12.99
16.63
19.29
21.09
22.37
23.59
25.09
26.92
28.93
30.78
32.14
32.91
33.15
33.06
32.82
32.43
31.72
30.40
28.23
25.23
21.63
17.84
14.30
11.26
8.76
6.63
4.54
2.14
-0.80
-4.32
-8.23
-12.18
-15.79
-18.80
-21.19
-23.17
-25.15
-27.55
-30.77
-35.07
-40.58
-47.09
-54.03
-60.40
-64.94
-66.44
-64.18
-58.19
-49.35
-39.02
-28.61
-19.11
-10.91
-3.84
2.57
8.70
14.70
20.42
25.59
29.98
33.51
36.25
38.37
40.03
41.35
42.39
43.17
43.76
44.26
44.78
45.41
46.22
47.17
48.19
49.09
49.63
49.51
48.46
46.34
43.24
39.54
35.84
32.80
30.90
30.14
29.95
29.28
26.82
21.48
12.68
0.66
-13.63
-28.74
-43.09
-55.35
-64.75
-71.19
-75.22
-77.85
-80.13
-82.73
-85.63
-88.02
-88.62
-86.20
-80.16
-70.79
-59.17
-46.76
-34.88
-24.24
-14.98
-6.86
0.46
7.11
13.10
18.39
23.00
27.03
30.54
33.49
35.71
36.98
37.27
36.75
35.90
35.26
35.24
35.96
37.19
38.45
39.18
39.00
37.75
35.58
32.80
29.78
26.83
24.10
21.61
19.31
17.17
15.19
13.41
11.80
10.25
8.53
6.38
3.58
0.03
-4.18
-8.86
-13.69
-18.40
-22.80
-26.84
-30.66
-34.52
-38.79
-43.73
-49.36
-55.23
-60.42
-63.69
-63.84
-60.16
-52.76
-42.61
-31.24
-20.28
-10.89
-3.54
2.04
6.46
10.37
14.15
17.82
21.21
24.14
26.51
28.39
29.89
31.10
32.09
32.96
33.85
34.92
36.32
37.97
39.59
40.75
41.04
40.19
38.20
35.31
31.79
27.95
24.05
20.28
16.82
13.76
11.10
8.70
6.32
3.67
0.56
-3.05
-7.04
-11.14
-15.11
-18.82
-22.27
-25.66
-29.25
-33.32
-38.00
-43.17
-48.35
-52.72
-55.28
-55.06
-51.50
-44.66
-35.23
-24.44
-13.57
-3.66
4.78
11.68
17.34
22.13
26.32
30.01
33.14
35.59
37.28
38.22
38.53
38.47
38.31
38.32
38.56
38.97
39.38
39.56
39.36
38.73
37.65
36.11
34.13
31.74
29.04
26.15
23.16
20.10
16.90
13.47
9.84
6.14
2.66
-0.38
-2.89
-4.98
-6.96
-9.17
-11.85
-15.07
-18.72
-22.59
-26.53
-30.45
-34.44
-38.65
-43.28
-48.47
-54.22
-60.30
-66.19
-71.09
-73.98
-73.91
-70.25
-63.00
-52.89
-41.19
-29.38
-18.64
-9.59
-2.21
3.94
9.47
14.80
20.09
25.24
29.99
34.10
37.37
39.82
41.55
42.78
43.75
44.62
45.47
46.26
46.90
47.25
47.22
46.71
45.72
44.37
42.86
41.48
40.49
40.06
40.13
40.50
40.80
40.64
39.70
37.80
34.93
31.21
26.83
22.02
17.02
11.93
6.86
1.73
-3.59
-9.27
-15.40
-21.91
-28.51
-34.71
-40.10
-44.43
-47.95
-51.19
-54.91
-59.65
-65.40
-71.52
-76.78
-79.83
-79.68
-76.07
-69.59
-61.54
-53.42
-46.42
-41.15
-37.46
-34.72
-32.08
-28.84
-24.64
-19.53
-13.87
-8.16
-2.85
1.75
5.57
8.71
11.37
13.86
16.37
19.05
21.84
24.57
26.98
28.82
29.91
30.11
29.42
27.86
25.58
22.77
19.72
16.79
14.26
12.29
10.77
9.43
7.95
6.11
3.85
1.29
-1.36
-3.84
-5.87
-7.27
-7.94
-7.95
-7.51
-7.06
-7.09
-8.14
-10.60
-14.59
-19.89
-25.78
-31.16
-34.75
-35.50
-32.96
-27.52
-20.22
-12.47
-5.48
0.07
4.17
7.32
10.10
12.91
15.80
18.55
20.94
22.82
24.21
25.28
26.19
27.09
28.02
28.93
29.70
30.27
30.65
30.94
31.26
31.64
32.00
32.06
31.50
30.05
27.65
24.53
21.08
17.76
14.84
12.45
10.49
8.74
6.92
4.83
2.36
-0.45
-3.48
-6.55
-9.49
-12.24
-14.82
-17.34
-20.03
-23.16
-27.02
-31.84
-37.61
-43.94
-50.03
-54.77
-56.99
-55.92
-51.40
-43.98
-34.78
-25.07
-15.99
-8.17
-1.74
3.55
8.11
12.30
16.29
20.06
23.47
26.30
28.42
29.76
30.44
30.62
30.56
30.46
30.49
30.72
31.13
31.64
32.10
32.32
32.09
31.22
29.61
27.33
24.60
21.78
19.24
17.19
15.63
14.34
13.02
11.43
9.49
7.32
5.02
2.62
0.02
-2.98
-6.46
-10.37
-14.47
-18.45
-22.06
-25.24
-28.18
-31.21
-34.78
-39.33
-45.09
-51.93
-59.21
-65.83
-70.40
-71.71
-69.19
-63.13
-54.58
-44.97
-35.56
-27.06
-19.59
-12.83
-6.35
0.14
6.71
13.26
19.58
25.41
30.45
34.45
37.20
38.70
39.13
38.86
38.33
37.89
37.77
37.96
38.33
38.59
38.45
37.66
36.10
33.81
31.03
28.06
25.20
22.65
20.49
18.67
17.07
15.53
13.89
12.05
9.93
7.59
5.13
2.65
0.22
-2.18
-4.70
-7.48
-10.64
-14.22
-18.13
-22.19
-26.23
-30.12
-33.89
-37.73
-41.89
-46.54
-51.61
-56.61
-60.69
-62.85
-62.26
-58.52
-51.91
-43.19
-33.48
-23.87
-15.13
-7.66
-1.42
3.91
8.78
13.47
18.09
22.49
26.34
29.38
31.44
32.62
33.11
33.15
32.94
32.66
32.54
32.79
33.62
35.03
36.73
38.18
38.81
38.22
36.40
33.67
30.46
27.18
23.99
20.88
17.77
14.63
11.52
8.56
5.86
3.39
1.08
-1.20
-3.57
-6.11
-8.81
-11.57
-14.22
-16.56
-18.49
-20.03
-21.49
-23.34
-26.10
-30.08
-35.16
-40.73
-45.70
-48.86
-49.23
-46.46
-40.94
-33.64
-25.82
-18.51
-12.26
-7.11
-2.72
1.37
5.49
9.70
13.87
17.69
20.84
23.08
24.35
24.79
24.73
24.60
24.71
25.24
26.07
27.00
27.74
28.17
28.28
28.16
27.92
27.54
26.91
25.82
24.07
21.59
18.49
15.13
12.08
10.00
9.40
10.50
13.03
16.21
18.92
19.97
18.52
14.33
7.82
-0.05
-8.10
-15.37
-21.24
-25.63
-28.83
-31.35
-33.68
-36.10
-38.59
-40.71
-41.83
-41.25
-38.55
-33.73
-27.23
-19.78
-12.14
-4.84
1.85
7.90
13.35
18.19
22.32
25.67
28.26
30.17
31.56
32.58
33.26
33.51
33.20
32.17
30.40
28.02
25.27
22.50
20.00
17.96
16.41
15.20
14.09
12.87
11.43
9.87
8.40
7.21
6.36
5.64
4.67
3.12
0.85
-1.97
-4.90
-7.48
-9.46
-10.95
-12.30
-13.93
-16.09
-18.75
-21.65
-24.51
-27.21
-29.80
-32.45
-35.35
-38.57
-42.15
-46.09
-50.44
-55.21
-60.15
-64.72
-68.04
-69.15
-67.38
-62.60
-55.37
-46.73
-37.87
-29.76
-22.91
-17.27
-12.49
-8.06
-3.59
1.07
5.82
10.43
14.55
17.81
19.98
20.97
20.96
20.44
20.02
20.31
21.68
24.06
27.01
29.87
32.06
33.29
33.72
33.77
33.99
34.77
36.26
38.32
40.58
42.55
43.79
44.10
43.66
43.13
43.53
45.82
50.36
56.18
60.88
61.12
53.75
37.21
12.41
-17.33
-47.32
-73.00
-91.32
-101.34
-104.00
-101.41
-95.97
-89.79
-84.42
-80.75
-78.92
-78.40
-78.07
-76.59
-72.86
-66.37
-57.32
-46.54
-35.17
-24.37
-15.02
-7.51
-1.80
2.55
6.23
9.84
13.72
17.90
22.06
25.73
28.49
30.12
30.68
30.47
29.98
29.62
29.69
30.19
30.86
31.31
31.19
30.27
28.57
26.29
23.67
20.96
18.22
15.49
12.79
10.20
7.85
5.86
4.21
2.75
1.21
-0.67
-2.97
-5.58
-8.25
-10.71
-12.84
-14.74
-16.63
-18.74
-21.22
-24.15
-27.52
-31.36
-35.67
-40.32
-45.06
-49.34
-52.45
-53.65
-52.41
-48.55
-42.43
-34.77
-26.55
-18.73
-11.98
-6.61
-2.52
0.63
3.29
5.81
8.38
11.04
13.70
16.25
18.64
20.78
22.63
24.13
25.24
25.99
26.45
26.79
27.13
27.52
27.89
28.13
28.12
27.79
27.11
26.04
24.52
22.49
19.96
17.07
14.10
11.33
9.01
7.14
5.57
3.99
2.14
-0.16
-2.95
-6.11
-9.44
-12.78
-15.99
-19.07
-22.06
-25.15
-28.54
-32.43
-36.92
-41.96
-47.19
-51.94
-55.28
-56.26
-54.21
-49.09
-41.52
-32.71
-23.93
-16.16
-9.73
-4.46
0.18
4.59
8.96
13.19
17.06
20.45
23.34
25.84
28.03
29.88
31.33
32.30
32.78
32.91
32.88
32.84
32.84
32.83
32.69
32.34
31.76
31.02
30.21
29.36
28.42
27.31
25.96
24.43
22.80
21.19
19.60
17.98
16.18
14.08
11.65
8.94
6.05
3.00
-0.26
-3.87
-7.88
-12.27
-16.83
-21.29
-25.45
-29.25
-32.87
-36.61
-40.81
-45.75
-51.46
-57.64
-63.62
-68.39
-70.77
-69.79
-65.02
-56.84
-46.42
-35.39
-25.29
-17.15
-11.17
-6.91
-3.49
-0.06
3.96
8.71
14.01
19.37
24.30
28.38
31.37
33.24
34.14
34.26
33.93
33.52
33.39
33.86
35.08
36.93
39.03
40.84
41.83
41.63
40.22
37.82
34.90
31.99
29.51
27.69
26.44
25.44
24.30
22.65
20.40
17.67
14.70
11.68
8.75
5.85
2.87
-0.23
-3.48
-6.80
-10.13
-13.41
-16.62
-19.73
-22.76
-25.77
-28.91
-32.49
-36.84
-42.23
-48.66
-55.71
-62.57
-68.17
-71.46
-71.69
-68.70
-62.89
-55.07
-46.19
-37.07
-28.27
-20.11
-12.70
-6.05
-0.10
5.29
10.29
15.02
19.50
23.62
27.11
29.76
31.45
32.30
32.60
32.78
33.13
33.86
34.92
36.10
37.10
37.61
37.41
36.41
34.68
32.38
29.76
27.06
24.49
22.22
20.31
18.74
17.37
16.05
14.61
12.97
11.11
9.04
6.81
4.40
1.76
-1.11
-4.14
-7.18
-10.05
-12.65
-15.08
-17.64
-20.79
-24.91
-30.09
-36.00
-41.83
-46.48
-48.86
-48.18
-44.33
-37.80
-29.60
-20.90
-12.66
-5.42
0.69
5.85
10.32
14.26
17.70
20.65
23.10
25.17
27.04
28.96
31.08
33.36
35.55
37.21
37.91
37.46
36.03
34.10
32.24
30.76
29.64
28.58
27.19
25.31
23.07
20.82
18.88
17.34
16.10
14.98
13.86
12.75
11.65
10.41
8.82
6.61
3.69
0.22
-3.48
-7.09
-10.47
-13.71
-17.02
-20.53
-24.25
-28.17
-32.37
-37.08
-42.50
-48.52
-54.48
-59.19
-61.34
-59.98
-54.97
-47.01
-37.39
-27.48
-18.31
-10.39
-3.69
2.04
7.15
11.88
16.32
20.41
23.97
26.78
28.68
29.71
30.04
30.04
30.09
30.45
31.24
32.42
33.81
35.21
36.37
37.11
37.30
36.93
36.09
35.02
34.00
33.26
32.78
32.27
31.15
28.78
24.68
18.75
11.30
2.99
-5.45
-13.39
-20.41
-26.27
-30.86
-34.18
-36.29
-37.38
-37.79
-37.94
-38.25
-39.14
-40.94
-43.87
-47.95
-52.90
-58.02
-62.27
-64.50
-63.82
-59.92
-53.14
-44.42
-34.94
-25.76
-17.58
-10.68
-4.95
-0.07
4.35
8.60
12.83
17.10
21.32
25.38
29.10
32.33
34.87
36.58
37.41
37.46
36.98
36.33
35.86
35.79
36.08
36.51
36.65
36.12
34.67
32.32
29.33
26.09
22.96
20.19
17.79
15.65
13.60
11.56
9.55
7.69
6.04
4.48
2.77
0.55
-2.39
-6.05
-10.10
-14.05
-17.43
-20.06
-22.09
-24.00
-26.36
-29.65
-34.07
-39.48
-45.42
-51.17
-55.81
-58.39
-58.14
-54.73
-48.41
-40.02
-30.74
-21.80
-14.06
-7.84
-2.89
1.39
5.59
10.02
14.62
19.06
22.98
26.19
28.73
30.77
32.47
33.86
34.85
35.35
35.37
35.07
34.72
34.53
34.51
34.51
34.28
33.63
32.49
30.90
28.93
26.67
24.19
21.58
18.96
16.43
14.05
11.77
9.44
6.87
3.93
0.58
-3.04
-6.70
-10.20
-13.45
-16.51
-19.55
-22.81
-26.52
-30.82
-35.77
-41.20
-46.68
-51.42
-54.45
-54.81
-51.93
-45.90
-37.49
-27.96
-18.60
-10.39
-3.72
1.56
5.98
10.07
14.16
18.26
22.11
25.33
27.69
29.20
30.07
30.59
31.00
31.43
31.87
32.34
32.90
33.65
34.58
35.58
36.35
36.59
36.05
34.64
32.47
29.72
26.68
23.64
20.87
18.55
16.73
15.25
13.84
12.21
10.22
7.90
5.48
3.17
1.05
-1.04
-3.39
-6.21
-9.55
-13.18
-16.80
-20.18
-23.30
-26.40
-29.86
-34.04
-39.11
-44.98
-51.17
-56.95
-61.35
-63.38
-62.37
-58.12
-51.14
-42.44
-33.23
-24.59
-17.11
-10.89
-5.64
-0.93
3.61
8.16
12.67
16.94
20.66
23.55
25.52
26.60
27.02
27.10
27.13
27.30
27.72
28.40
29.24
30.16
31.02
31.63
31.88
31.64
30.89
29.67
28.11
26.43
24.87
23.62
22.73
22.06
21.27
19.98
17.95
15.13
11.78
8.31
5.13
2.48
0.34
-1.55
-3.57
-6.06
-9.21
-12.95
-17.01
-21.01
-24.66
-27.81
-30.58
-33.25
-36.19
-39.74
-44.08
-49.06
-54.18
-58.63
-61.39
-61.56
-58.63
-52.72
-44.58
-35.34
-26.19
-18.03
-11.26
-5.82
-1.34
2.60
6.34
10.06
13.78
17.38
20.74
23.69
26.13
27.98
29.22
29.90
30.13
30.09
30.04
30.19
30.66
31.36
32.01
32.21
31.63
30.14
27.91
25.30
22.73
20.55
18.86
17.57
16.44
15.21
13.67
11.80
9.67
7.44
5.28
3.27
1.39
-0.45
-2.35
-4.38
-6.48
-8.54
-10.43
-12.08
-13.54
-15.01
-16.78
-19.17
-22.42
-26.64
-31.67
-37.10
-42.20
-46.09
-47.88
-46.95
-43.15
-36.94
-29.23
-21.20
-13.84
-7.66
-2.67
1.54
5.44
9.30
13.07
16.42
18.92
20.29
20.57
20.03
19.12
18.28
17.82
17.91
18.55
19.62
20.91
22.23
23.32
23.97
24.05
23.49
22.31
20.63
18.66
16.55
14.48
12.55
10.80
9.24
7.80
6.43
5.00
3.46
1.71
-0.30
-2.61
-5.22
-8.09
-11.20
-14.44
-17.75
-21.01
-24.20
-27.32
-30.55
-34.12
-38.23
-42.97
-48.08
-52.95
-56.71
-58.37
-57.24
-53.11
-46.41
-38.11
-29.37
-21.23
-14.29
-8.59
-3.83
0.45
4.62
8.80
12.91
16.73
20.09
22.86
25.07
26.78
28.06
28.97
29.57
29.94
30.24
30.64
31.23
31.98
32.68
32.97
32.54
31.21
