1705587388.00
64.000000
-0.00
-0.00
-0.00
-0.00
-0.00
-0.00
-0.00
-0.00
-0.00
-0.00
0.00
0.01
0.01
-0.00
-0.03
-0.05
-0.05
0.00
0.13
0.36
0.66
1.01
1.37
1.72
2.06
2.40
2.79
3.24
3.80
4.42
5.06
5.66
6.20
6.68
7.15
7.68
8.31
9.14
10.09
11.04
11.88
12.56
13.14
13.76
14.65
15.96
17.91
20.32
22.90
25.38
27.58
29.57
31.68
34.32
37.81
42.54
48.15
54.10
59.83
64.97
69.58
74.14
79.34
85.71
93.76
103.00
112.62
121.73
129.77
136.75
143.30
150.75
157.77
166.64
177.95
191.79
206.97
220.57
228.25
225.36
208.53
176.87
132.76
80.05
23.07
-34.94
-92.44
-149.16
-205.23
-260.37
-313.74
-363.87
-409.83
-450.91
-486.50
-515.74
-537.23
-549.22
-549.96
-538.37
-514.21
-478.67
-433.88
-382.45
-327.02
-269.84
-212.63
-156.66
-102.95
-52.37
-5.90
35.58
71.43
101.35
125.50
144.38
158.69
169.15
176.37
180.75
182.57
182.07
179.51
175.23
169.65
163.18
156.15
148.81
141.30
133.69
126.02
118.33
110.69
103.16
95.80
88.68
81.83
75.25
68.95
62.95
57.25
51.86
46.78
42.03
37.59
33.45
29.61
26.07
22.81
19.83
17.11
14.67
12.48
10.54
8.83
7.35
6.07
4.97
4.05
3.27
2.62
2.09
1.65
1.30
1.01
0.79
0.61
0.48
0.37
0.30
0.24
0.21
0.18
0.18
0.18
0.19
0.21
0.24
0.27
0.30
0.34
0.38
0.42
0.47
0.52
0.57
0.62
0.68
0.74
0.80
0.87
0.95
1.03
1.12
1.22
1.34
1.46
1.60
1.76
1.93
2.12
2.34
2.58
2.85
3.14
3.46
3.82
4.21
4.63
5.09
5.59
6.12
6.70
7.31
7.97
8.67
9.42
10.20
11.04
11.92
12.84
13.81
14.86
15.96
17.12
18.33
19.58
20.81
21.97
22.98
23.74
24.14
24.07
23.46
22.21
20.33
17.82
14.76
11.23
7.39
3.40
-0.56
-4.35
-7.82
-10.86
-13.41
-15.43
-16.90
-17.83
-18.27
-18.26
-17.84
-17.06
-15.92
-14.45
-12.65
-10.53
-8.13
-5.52
-2.82
-0.11
2.53
5.10
7.58
9.99
12.36
14.75
17.02
19.12
21.01
22.75
24.41
26.17
28.16
30.58
33.57
36.92
40.44
44.04
47.67
51.41
55.37
59.76
64.73
70.42
76.28
81.94
87.09
91.65
95.79
99.82
104.15
109.05
114.59
119.84
123.91
126.07
125.86
123.18
118.01
110.05
98.03
84.69
70.08
53.73
35.18
14.42
-7.95
-30.94
-53.42
-74.56
-94.00
-112.59
-131.31
-151.30
-173.69
-199.40
-228.46
-259.34
-288.51
-310.88
-321.85
-318.43
-300.75
-272.15
-237.91
-203.23
-171.49
-143.72
-119.23
-97.26
-77.49
-60.27
-46.05
-34.76
-25.54
-17.13
-8.50
0.72
10.01
18.46
25.26
30.17
33.47
35.86
38.05
40.45
43.06
45.38
46.82
46.86
45.24
41.98
37.28
31.40
24.66
17.53
10.72
5.25
2.15
2.16
5.36
11.04
17.94
24.75
30.45
34.58
37.16
38.37
38.33
37.04
34.49
30.88
26.71
22.64
19.25
16.77
15.06
13.71
12.29
10.60
8.71
6.86
5.27
4.01
2.88
1.61
-0.06
-2.20
-4.73
-7.41
-10.03
-12.48
-14.81
-17.26
-20.22
-24.18
-29.62
-36.79
-45.47
-54.81
-63.35
-69.33
-71.15
-67.87
-59.58
-47.30
-32.71
-17.64
-3.64
8.28
17.74
24.79
29.74
32.94
34.68
35.17
34.55
32.98
30.71
28.07
25.38
22.96
21.00
19.53
18.47
17.68
16.92
16.00
14.68
12.82
10.32
7.21
3.68
0.02
-3.47
-6.63
-9.54
-12.55
-16.17
-20.83
-26.58
-32.94
-38.92
-43.23
-44.68
-42.52
-36.67
-27.71
-16.74
-5.07
6.05
15.69
23.36
28.93
32.58
34.66
35.53
35.54
34.91
33.84
32.47
30.92
29.28
27.61
26.01
24.50
23.13
21.84
20.53
19.02
17.11
14.64
11.50
7.74
3.52
-0.94
-5.43
-9.77
-14.03
-18.44
-23.36
-29.10
-35.60
-42.29
-48.03
-51.40
-51.20
-46.85
-38.69
-27.82
-15.71
-3.74
7.18
16.68
24.69
31.23
36.23
39.62
41.38
41.69
40.92
39.48
37.72
35.83
33.87
31.83
29.72
27.63
25.70
24.04
22.61
21.26
19.73
17.71
15.01
11.58
7.55
3.17
-1.27
-5.57
-9.57
-13.33
-17.06
-21.12
-25.91
-31.64
-38.07
-44.44
-49.52
-51.95
-50.64
-45.26
-36.21
-24.61
-11.86
0.73
12.18
21.95
29.81
35.72
39.74
41.98
42.66
42.11
40.77
39.14
37.64
36.49
35.68
34.99
34.11
32.79
31.04
29.06
27.15
25.50
24.09
22.56
20.47
17.49
13.57
8.98
4.16
-0.46
-4.69
-8.57
-12.30
-16.12
-20.23
-24.76
-29.83
-35.50
-41.65
-47.86
-53.26
-56.72
-57.11
-53.70
-46.51
-36.27
-24.22
-11.73
0.07
10.43
19.02
25.76
30.66
33.83
35.43
35.69
34.94
33.56
31.91
30.29
28.88
27.73
26.77
25.90
24.99
23.98
22.81
21.40
19.63
17.33
14.36
10.63
6.27
1.51
-3.34
-7.98
-12.26
-16.19
-19.94
-23.82
-28.11
-32.92
-38.02
-42.77
-46.26
-47.44
-45.52
-40.20
-31.77
-21.11
-9.40
2.11
12.42
20.85
27.12
31.23
33.42
33.99
33.29
31.66
29.42
26.87
24.29
21.93
19.95
18.46
17.49
16.92
16.61
16.31
15.79
14.78
13.08
10.57
7.25
3.31
-0.94
-5.11
-8.99
-12.60
-16.30
-20.59
-25.86
-32.03
-38.41
-43.82
-46.89
-46.58
-42.54
-35.16
-25.47
-14.66
-3.87
6.14
14.82
21.89
27.12
30.39
31.72
31.40
29.94
27.91
25.87
24.15
22.85
21.89
21.13
20.43
19.66
18.69
17.35
15.49
13.03
9.96
6.41
2.51
-1.63
-5.93
-10.35
-14.83
-19.32
-23.78
-28.32
-33.21
-38.65
-44.58
-50.40
-54.98
-56.90
-55.00
-48.84
-38.93
-26.59
-13.46
-0.97
9.93
18.92
26.04
31.49
35.40
37.83
38.83
38.56
37.30
35.47
33.47
31.65
30.20
29.13
28.32
27.58
26.68
25.46
23.85
21.84
19.48
16.82
13.87
10.59
6.93
2.88
-1.48
-5.96
-10.31
-14.35
-18.03
-21.46
-24.92
-28.73
-33.21
-38.55
-44.68
-51.12
-56.99
-61.14
-62.38
-59.89
-53.48
-43.69
-31.64
-18.69
-6.12
5.15
14.66
22.28
28.12
32.33
35.10
36.59
37.05
36.80
36.20
35.56
35.00
34.48
33.86
33.04
31.99
30.83
29.66
28.55
27.42
26.11
24.48
22.44
19.89
16.81
13.17
8.98
4.36
-0.50
-5.39
-10.06
-14.41
-18.40
-22.11
-25.70
-29.43
-33.63
-38.57
-44.35
-50.62
-56.62
-61.18
-63.07
-61.32
-55.60
-46.36
-34.62
-21.73
-8.94
2.82
13.03
21.52
28.25
33.26
36.62
38.42
38.83
38.15
36.75
35.01
33.28
31.78
30.61
29.76
29.09
28.44
27.67
26.66
25.36
23.75
21.81
19.54
16.96
14.16
11.23
8.22
5.06
1.64
-2.17
-6.41
-10.95
-15.54
-19.89
-23.79
-27.21
-30.37
-33.68
-37.60
-42.47
-48.20
-54.16
-59.24
-62.04
-61.39
-56.72
-48.27
-37.00
-24.26
-11.36
0.70
11.35
20.31
27.45
32.72
36.11
37.80
38.06
37.31
35.96
34.37
32.79
31.40
30.32
29.58
29.11
28.70
28.08
27.03
25.48
23.51
21.31
19.01
16.67
14.21
11.50
8.45
5.09
1.55
-1.98
-5.36
-8.51
-11.47
-14.37
-17.43
-20.85
-24.78
-29.39
-34.75
-40.86
-47.49
-54.04
-59.53
-62.71
-62.48
-58.21
-50.07
-38.96
-26.27
-13.46
-1.69
8.32
16.29
22.22
26.30
28.69
29.65
29.46
28.42
26.95
25.42
24.13
23.28
22.88
22.78
22.76
22.66
22.31
21.72
20.92
19.95
18.82
17.48
15.84
13.72
11.03
7.72
3.87
-0.30
-4.55
-8.67
-12.50
-16.01
-19.22
-22.25
-25.34
-28.82
-33.04
-38.21
-44.13
-50.08
-54.85
-57.08
-55.69
-50.35
-41.53
-30.40
-18.38
-6.72
3.72
12.50
19.52
24.77
28.20
29.83
29.78
28.36
26.14
23.81
21.97
20.92
20.60
20.65
20.58
20.02
18.92
17.44
15.89
14.44
13.02
11.37
9.16
6.22
2.62
-1.37
-5.40
-9.23
-12.74
-16.01
-19.18
-22.44
-26.04
-30.16
-34.96
-40.35
-45.97
-51.03
-54.44
-55.06
-52.09
-45.39
-35.54
-23.74
-11.37
0.37
10.70
19.30
26.12
31.20
34.56
36.26
36.50
35.66
34.21
32.66
31.32
30.28
29.45
28.63
27.67
26.44
24.90
23.05
20.97
18.73
16.43
14.10
11.68
9.02
5.94
2.30
-1.87
-6.33
-10.71
-14.64
-17.92
-20.69
-23.39
-26.64
-31.00
-36.63
-43.16
-49.67
-54.92
-57.63
-56.88
-52.37
-44.46
-34.02
-22.19
-10.12
1.27
11.30
19.55
25.77
29.86
31.90
32.16
31.08
29.26
27.24
25.46
24.10
23.18
22.52
21.93
21.29
20.58
19.88
19.33
18.98
18.70
18.21
17.11
15.06
11.93
7.91
3.39
-1.18
-5.44
-9.30
-12.88
-16.50
-20.51
-25.19
-30.60
-36.46
-42.05
-46.31
-48.04
-46.30
-40.81
-32.05
-21.19
-9.61
1.48
11.38
19.83
26.80
32.19
35.78
37.35
36.86
34.69
31.56
28.30
25.59
23.71
22.52
21.61
20.55
19.07
17.19
15.09
13.08
11.31
9.78
8.28
6.47
4.06
0.89
-2.96
-7.22
-11.55
-15.66
-19.40
-22.87
-26.31
-30.10
-34.63
-40.14
-46.55
-53.30
-59.42
-63.62
-64.65
-61.68
-54.58
-43.97
-31.08
-17.36
-4.15
7.58
17.36
25.09
30.89
34.97
37.52
38.69
38.67
37.72
36.24
34.68
33.47
32.84
32.81
33.21
33.79
34.28
34.48
34.26
33.56
32.32
30.51
28.11
25.16
21.78
18.18
14.66
11.58
9.27
7.93
7.66
8.45
10.26
13.01
16.46
20.05
22.85
23.62
21.16
14.81
4.89
-7.14
-18.98
-28.14
-32.74
-32.10
-26.83
-18.37
-8.40
1.74
11.14
19.12
24.94
27.79
27.19
23.43
17.85
12.23
7.92
5.01
2.22
-2.27
-9.53
-19.10
-29.18
-37.55
-42.68
-43.88
-40.71
-32.01
-15.86
9.26
42.74
80.57
115.94
141.32
151.38
144.86
124.67
96.31
65.72
37.65
14.96
-1.03
-10.27
-13.58
-12.67
-9.81
-7.20
-6.07
-6.06
-5.23
-0.85
9.26
25.47
45.73
65.95
81.35
88.19
85.21
74.11
58.73
43.44
31.46
23.91
19.95
17.76
15.70
13.02
9.77
6.25
2.41
-2.34
-8.73
-17.14
-27.24
-38.07
-48.39
-56.97
-62.60
-63.99
-59.60
-47.87
-27.89
0.07
34.24
71.75
109.39
144.48
175.36
201.37
222.44
238.75
250.31
257.14
259.24
256.73
249.72
238.32
222.51
202.28
177.80
149.58
118.53
85.90
53.05
21.16
-8.91
-36.72
-62.34
-86.30
-109.45
-132.56
-155.76
-178.12
-197.80
-212.75
-221.96
-226.22
-228.19
-231.53
-239.51
-253.81
-274.28
-299.24
-326.23
-352.61
-375.58
-392.19
-399.46
-394.99
-377.87
-349.17
-311.99
-270.68
-229.79
-193.00
-162.44
-138.63
-120.72
-107.14
-96.20
-86.61
-77.77
-69.61
-62.39
-56.33
-51.46
-47.48
-43.97
-40.44
-36.38
-31.38
-25.00
-16.95
-7.06
4.56
17.44
30.76
43.46
54.25
61.82
65.09
63.44
56.91
46.19
32.49
17.27
1.94
-12.22
-24.18
-33.11
-38.57
-40.58
-39.68
-36.78
-32.90
-28.79
-24.88
-21.38
-18.48
-16.55
-16.18
-17.93
-22.12
-28.43
-35.65
-41.59
-43.79
-40.44
-31.60
-19.44
-7.53
0.93
4.91
6.20
8.48
15.04
26.69
40.97
53.24
58.92
55.78
44.84
29.90
15.95
7.56
7.79
17.50
35.26
57.51
79.47
96.35
104.91
104.49
97.04
86.05
74.89
65.38
57.34
49.08
38.62
24.83
8.40
-8.03
-20.55
-25.29
-20.05
-5.32
15.71
38.13
57.18
69.77
75.09
74.18
68.79
60.60
50.90
41.11
33.13
29.25
31.35
39.71
52.46
65.91
75.98
79.63
76.17
67.35
56.60
47.49
42.42
41.97
45.12
50.14
55.57
60.70
65.52
70.25
75.03
79.87
84.98
90.90
98.27
107.00
115.61
121.27
120.68
111.64
94.28
71.35
47.18
26.05
10.62
1.46
-2.55
-3.18
-2.02
-0.44
0.22
-1.57
-7.03
-16.20
-27.29
-37.07
-42.12
-40.50
-32.70
-21.44
-10.32
-2.20
1.71
2.04
0.34
-1.89
-3.74
-4.97
-5.55
-5.29
-3.71
-0.18
5.81
14.37
25.08
36.84
47.98
56.64
61.16
60.66
55.29
46.09
34.56
22.13
9.86
-1.61
-11.94
-20.97
-28.64
-35.11
-40.80
-46.19
-51.52
-56.44
-59.89
-60.32
-56.29
-46.99
-32.62
-14.33
6.21
27.22
47.32
65.50
81.17
93.95
103.63
110.06
113.23
113.21
110.20
104.50
96.56
86.97
76.47
65.84
55.75
46.65
38.66
31.62
25.23
19.27
13.66
8.48
3.90
-0.02
-3.38
-6.43
-9.41
-12.42
-15.29
-17.69
-19.26
-19.90
-19.85
-19.63
-19.87
-21.00
-22.96
-25.21
-26.91
-27.32
-26.17
-23.79
-21.01
-18.65
-17.12
-16.19
-15.12
-13.02
-9.31
-3.84
3.22
11.79
21.96
33.70
46.57
59.42
70.62
78.59
82.48
82.44
79.35
74.22
67.59
59.34
48.98
36.25
21.58
6.07
-8.87
-22.08
-33.10
-42.05
-49.44
-55.68
-60.81
-64.51
-66.46
-66.76
-66.19
-66.02
-67.59
-71.71
-78.50
-87.35
-97.22
-106.80
-114.70
-119.48
-119.84
-115.07
-105.50
-92.77
-79.41
-68.09
-60.75
-58.05
-59.44
-63.56
-68.87
-73.97
-77.94
-80.25
-80.77
-79.55
-76.71
-72.20
-65.79
-57.32
-47.06
-36.12
-26.38
-19.98
-18.52
-22.42
-30.83
-42.08
-54.54
-67.21
-79.81
-92.27
-104.05
-113.73
-119.17
-118.22
-109.55
-93.14
-70.13
-42.30
-11.44
20.86
52.89
82.48
106.85
123.18
129.61
126.20
115.13
100.13
85.08
72.82
64.38
59.18
55.78
52.78
49.37
45.37
40.98
36.40
31.60
26.37
20.59
14.38
8.16
2.52
-2.14
-5.85
-9.16
-12.83
-17.54
-23.44
-30.08
-36.65
-42.28
-46.45
-49.06
-50.19
-49.93
-48.09
-44.25
-38.06
-29.52
-19.17
-8.08
2.49
11.37
17.84
21.68
23.21
23.03
21.94
20.66
19.73
19.40
19.62
20.15
20.63
20.88
20.83
20.58
20.27
19.89
19.28
18.11
16.11
13.15
9.36
5.06
0.67
-3.46
-7.12
-10.31
-13.28
-16.37
-20.02
-24.54
-29.97
-35.91
-41.53
-45.70
-47.33
-45.75
-40.88
-33.36
-24.26
-14.74
-5.75
2.22
9.03
14.77
19.54
23.34
26.08
27.74
28.44
28.49
28.24
28.00
27.84
27.63
27.13
26.22
24.97
23.64
22.51
21.73
21.18
20.49
19.21
17.04
13.91
10.12
6.15
2.48
-0.59
-3.11
-5.43
-8.16
-11.77
-16.54
-22.25
-28.19
-33.28
-36.31
-36.33
-32.88
-26.21
-17.20
-7.07
2.96
11.96
19.51
25.50
29.99
33.10
34.82
35.18
34.37
32.70
30.59
28.42
26.34
24.35
22.37
20.30
18.18
16.17
14.43
13.01
11.83
10.64
9.18
7.23
4.69
1.64
-1.72
-5.10
-8.29
-11.23
-14.04
-17.03
-20.58
-25.03
-30.46
-36.53
-42.48
-47.10
-49.14
-47.63
-42.31
-33.71
-23.05
-11.80
-1.19
8.01
15.59
21.61
26.18
29.29
30.87
31.00
30.00
28.41
26.83
25.67
25.03
24.69
24.30
23.52
22.26
20.61
18.82
17.04
15.28
13.32
10.91
7.92
4.45
0.76
-2.75
-5.85
-8.52
-11.00
-13.65
-16.83
-20.78
-25.56
-30.96
-36.48
-41.28
-44.33
-44.70
-41.85
-35.83
-27.35
-17.48
-7.39
1.99
10.09
16.66
21.65
25.09
27.08
27.72
27.25
25.97
24.22
22.31
20.52
19.03
17.98
17.48
17.53
18.09
18.96
19.77
20.06
19.35
17.37
14.25
10.46
6.72
3.67
1.61
0.28
-0.97
-2.95
-6.25
-10.93
-16.44
-21.74
-25.54
-26.61
-24.13
-17.97
-8.82
1.90
12.34
20.76
25.96
27.67
26.41
23.38
19.92
17.10
15.50
15.08
15.34
15.52
14.84
12.67
8.62
2.58
-5.27
-14.39
-23.90
-32.69
-39.65
-44.00
-45.61
-45.01
-43.32
-41.67
-40.87
-41.06
-41.78
-42.30
-41.96
-40.57
-38.48
-36.50
-35.59
-36.55
-39.67
-44.48
-49.66
-53.18
-52.78
-46.57
-33.68
-14.84
7.56
29.90
48.26
59.62
62.65
58.16
48.51
36.75
25.45
15.99
8.43
1.99
-4.35
-11.15
-18.34
-25.26
-31.02
-34.73
-35.85
-34.29
-30.44
-25.22
-19.74
-15.11
-12.07
-10.82
-11.05
-12.14
-13.50
-14.78
-15.99
-17.33
-19.06
-21.31
-24.06
-27.10
-30.02
-32.08
-32.23
-29.27
-22.34
-11.44
2.32
17.10
31.31
44.56
58.10
74.21
94.57
118.84
143.86
164.61
176.03
175.15
162.19
140.13
113.26
85.50
59.46
36.28
16.27
-0.49
-13.98
-24.34
-32.16
-38.42
-44.38
-51.06
-59.01
-68.10
-77.72
-87.00
-95.19
-101.94
-107.52
-112.69
-118.36
-125.10
-132.76
-140.40
-146.61
-150.11
-150.20
-146.97
-141.04
-133.12
-123.52
-112.01
-98.01
-81.01
-61.08
-39.11
-16.60
4.65
23.13
37.93
48.95
56.76
62.50
67.54
73.28
80.88
91.05
103.83
118.49
133.64
147.41
157.95
163.84
164.48
160.16
151.95
141.27
129.39
117.13
104.78
92.33
79.76
67.29
55.28
43.93
33.04
21.85
9.36
-5.22
-21.98
-40.08
-57.95
-73.77
-86.00
-93.82
-97.20
-96.76
-93.41
-88.01
-81.21
-73.40
-64.79
-55.69
-46.49
-37.90
-30.67
-25.53
-22.93
-22.95
-25.17
-28.77
-32.75
-36.15
-38.40
-39.42
-39.67
-39.92
-40.87
-42.96
-46.09
-49.75
-53.19
-55.75
-57.07
-57.19
-56.55
-55.88
-56.07
-57.91
-61.66
-66.69
-71.37
-73.43
-70.69
-61.82
-46.73
-26.45
-2.56
23.39
50.16
76.56
101.18
122.25
138.05
147.51
150.70
148.92
144.08
138.00
131.83
126.09
121.03
117.06
114.83
114.94
117.44
121.49
125.52
127.77
126.96
122.72
115.62
106.69
96.86
86.63
76.05
65.02
53.58
42.05
30.90
20.45
10.63
0.91
-9.45
-21.14
-34.26
-48.08
-60.94
-70.59
-74.81
-72.14
-62.46
-47.16
-28.80
-10.34
5.74
18.03
26.38
31.54
34.64
36.64
38.10
39.16
39.79
40.04
40.20
40.74
42.14
44.68
48.28
52.42
56.29
59.00
59.83
58.48
55.15
50.42
45.01
39.49
34.13
28.85
23.43
17.72
11.82
5.99
0.48
-4.67
-9.67
-14.81
-20.10
-25.04
-28.60
-29.44
-26.42
-19.07
-7.88
5.68
19.45
31.05
38.36
39.98
35.53
25.70
12.16
-2.81
-16.85
-28.11
-35.66
-39.61
-40.88
-40.68
-39.99
-39.14
-37.75
-34.95
-29.78
-21.76
-11.40
-0.34
9.01
14.26
14.06
8.68
0.02
-9.25
-16.84
-21.88
-25.05
-28.03
-32.42
-38.78
-46.41
-53.75
-59.11
-61.45
-60.61
-57.12
-51.83
-45.47
-38.51
-31.11
-23.34
-15.39
-7.73
-1.04
3.93
6.73
7.45
6.79
5.80
5.48
6.34
8.22
10.42
12.03
12.36
11.30
9.24
7.00
5.36
4.75
5.08
5.76
5.83
4.28
0.31
-6.41
-15.73
-26.96
-38.97
-50.41
-59.76
-65.65
-67.05
-63.56
-55.57
-44.23
-31.30
-18.59
-7.43
1.77
9.58
17.08
25.10
33.62
41.56
47.22
49.15
46.76
40.74
32.76
24.89
18.96
16.13
16.83
20.85
27.54
35.93
44.89
53.17
59.53
62.81
61.96
56.19
45.11
28.76
7.48
-18.27
-47.93
-80.39
-113.32
-142.87
-163.99
-171.78
-163.21
-138.45
-100.97
-56.50
-11.13
30.23
64.76
91.66
111.48
125.50
135.02
140.82
142.71
139.26
128.12
106.89
74.59
32.96
-12.98
-55.54
-86.25
-98.44
-89.48
-61.95
-23.14
17.12
49.38
67.24
68.63
55.49
32.13
3.33
-26.97
-55.94
-81.52
-101.95
-115.93
-123.01
-124.03
-121.03
-116.64
-113.08
-111.50
-111.73
-112.65
-112.74
-110.73
-105.79
-97.67
-86.69
-73.59
-59.39
-45.15
-31.74
-19.63
-8.93
0.42
8.48
15.20
20.44
24.06
26.13
26.83
26.52
25.54
24.02
21.85
18.69
14.17
8.16
0.95
-6.73
-13.95
-19.94
-24.49
-28.00
-31.36
-35.52
-41.10
-47.95
-55.15
-61.13
-64.23
-63.12
-57.29
-47.19
-33.98
-19.20
-4.28
9.71
22.22
32.97
41.81
48.59
53.15
55.51
55.91
54.91
53.18
51.36
49.85
48.69
47.66
46.47
44.91
42.95
40.77
38.51
36.23
33.75
30.71
26.80
21.90
16.20
10.09
4.05
-1.60
-6.75
-11.59
-16.47
-21.81
-28.04
-35.40
-43.89
-52.96
-61.58
-68.25
-71.36
-69.71
-62.88
-51.40
-36.65
-20.36
-4.16
10.78
23.92
35.17
44.65
52.46
58.55
62.79
65.10
65.62
64.81
63.27
61.65
60.35
59.46
58.75
57.86
56.41
54.21
51.23
47.61
43.58
39.35
35.01
30.56
25.91
20.95
15.60
9.90
3.95
-2.08
-8.01
-13.68
-19.01
-24.03
-28.88
-33.83
-39.27
-45.63
-53.17
-61.69
-70.41
-77.89
-82.38
-82.33
-76.88
-66.29
-51.77
-35.17
-18.36
-2.69
11.15
22.98
32.83
40.66
46.35
49.84
51.28
51.09
49.89
48.24
46.56
45.02
43.71
42.61
41.78
41.19
40.76
40.31
39.59
38.35
36.44
33.80
30.47
26.60
22.33
17.83
13.21
8.51
3.68
-1.34
-6.50
-11.72
-16.78
-21.53
-25.94
-30.29
-35.05
-40.84
-48.03
-56.48
-65.35
-73.09
-77.87
-78.07
-72.88
-62.60
-48.52
-32.46
-16.21
-1.06
12.38
23.94
33.67
41.54
47.39
51.11
52.77
52.80
51.88
50.78
50.03
49.76
49.76
49.65
49.15
48.22
47.01
45.73
44.46
43.02
41.09
38.35
34.61
30.01
24.89
19.71
14.88
10.55
6.63
2.78
-1.42
-6.28
-11.90
-18.14
-24.69
-31.25
-37.56
-43.49
-49.07
-54.50
-60.18
-66.66
-74.37
-83.32
-92.74
-101.12
-106.45
-106.92
-101.54
-90.58
-75.45
-58.31
-41.37
-26.34
-14.20
-5.14
1.26
5.85
9.62
13.59
18.59
25.13
33.35
43.00
53.58
64.45
75.13
85.32
95.05
104.49
113.89
123.23
131.96
139.04
143.08
142.81
137.56
127.48
113.57
97.39
80.58
64.44
49.77
36.74
25.14
14.48
4.23
-6.12
-16.85
-28.00
-39.33
-50.38
-60.71
-70.10
-78.70
-86.94
-95.32
-103.93
-112.17
-118.70
-121.80
-119.92
-112.26
-99.12
-81.77
-62.05
-41.80
-22.46
-4.89
10.52
23.60
34.26
42.42
48.20
51.90
54.10
55.50
56.68
57.96
59.24
60.21
60.42
59.55
57.52
54.56
51.06
47.48
44.09
40.76
36.93
31.69
24.05
13.45
0.04
-15.31
-31.29
-46.64
-60.47
-72.32
-81.89
-88.83
-92.66
-93.14
-90.67
-86.61
-82.97
-81.71
-83.67
-87.89
-91.64
-91.24
-83.40
-66.42
-40.88
-9.54
23.41
53.45
76.63
90.26
93.32
86.61
72.62
55.02
37.73
23.70
14.18
8.34
4.08
-0.79
-7.40
-15.24
-22.54
-27.30
-28.31
-25.64
-20.50
-14.49
-8.85
-4.16
-0.48
2.25
3.87
3.92
1.96
-2.00
-7.35
-13.00
-17.83
-21.18
-23.17
-24.60
-26.68
-30.50
-36.64
-44.92
-54.38
-63.44
-70.32
-73.43
-71.85
-65.53
-55.21
-42.19
-27.84
-13.24
0.89
14.14
26.12
36.26
43.82
48.21
49.18
47.20
43.34
39.03
35.47
33.33
32.51
32.33
31.96
30.81
28.81
26.39
24.08
22.23
20.68
18.85
15.96
11.50
5.46
-1.53
-8.48
-14.43
-18.85
-21.87
-24.19
-26.66
-29.91
-33.92
-38.02
-41.11
-42.12
-40.25
-35.23
-27.28
-16.97
-5.23
6.80
17.92
27.40
35.55
43.95
55.09
71.34
93.72
121.08
150.27
177.39
199.23
214.43
223.60
228.35
230.18
229.48
225.62
217.53
204.45
186.40
164.02
138.06
109.05
77.13
42.28
4.68
-34.94
-75.21
-114.35
-150.57
-182.43
-209.25
-231.16
-248.99
-263.74
-276.06
-285.77
-291.80
-292.57
-286.65
-273.39
-253.26
-227.72
-198.87
-168.79
-139.13
-110.93
-84.65
-60.49
-38.70
-19.61
-3.69
8.80
17.94
24.28
28.66
31.95
34.71
37.07
38.81
39.64
39.49
38.59
37.37
36.19
35.15
33.96
32.15
29.28
25.14
19.97
14.22
8.45
3.06
-1.89
-6.71
-11.99
-18.31
-26.07
-35.09
-44.57
-53.07
-58.84
-60.28
-56.44
-47.27
-33.72
-17.48
-0.50
15.43
29.07
39.86
47.83
53.37
56.92
58.87
59.42
58.81
57.37
55.57
53.92
52.77
52.15
51.75
51.13
49.92
48.06
45.77
43.32
40.82
38.13
34.88
30.66
25.33
19.03
12.22
5.43
-0.92
-6.69
-12.00
-17.19
-22.70
-28.97
-36.27
-44.59
-53.49
-61.98
-68.64
-71.98
-70.73
-64.43
-53.49
-39.19
-23.20
-7.14
7.83
21.07
32.28
41.30
47.94
52.00
53.49
52.80
50.66
48.00
45.65
44.09
43.35
43.09
42.84
42.21
41.07
39.55
37.90
36.29
34.65
32.68
29.87
25.83
20.46
14.07
7.28
0.77
-5.01
-9.95
-14.39
-18.85
-23.95
-30.15
-37.67
-46.32
-55.42
-63.75
-69.81
-72.01
-69.30
-61.42
-49.08
-33.76
-17.24
-1.11
13.50
26.06
36.43
44.62
50.64
54.48
56.18
56.04
54.55
52.38
50.14
48.28
46.98
46.15
45.56
44.96
44.10
42.82
41.03
38.72
35.97
32.85
29.42
25.61
21.28
16.31
10.69
4.61
-1.60
-7.60
-13.21
-18.42
-23.37
-28.27
-33.31
-38.68
-44.64
-51.47
-59.34
-68.00
-76.59
-83.58
-87.14
-85.65
-78.34
-65.57
-48.88
-30.40
-12.30
3.87
17.35
28.15
36.63
43.24
48.24
51.70
53.61
54.06
53.27
51.60
49.47
47.28
45.38
44.01
43.27
43.15
43.43
43.79
43.82
43.20
41.70
39.26
36.00
32.08
27.75
23.23
18.68
14.15
9.61
4.92
-0.05
-5.36
-10.87
-16.30
-21.35
-25.83
-29.84
-33.85
-38.53
-44.50
-51.99
-60.52
-68.81
-75.10
-77.58
-74.98
-67.03
-54.53
-39.01
-22.26
-5.89
8.92
21.45
31.37
38.58
43.25
45.75
46.64
46.51
45.81
44.74
43.33
41.53
39.44
37.45
36.02
35.49
35.87
36.72
37.31
37.01
35.58
33.35
31.04
29.41
28.73
28.64
28.29
26.71
23.32
18.12
11.52
4.11
-3.62
-11.33
-18.58
-24.72
-28.99
-31.01
-31.30
-31.35
-33.12
-38.08
-46.38
-56.40
-65.38
-70.38
-69.38
-61.76
-48.07
-29.35
-6.46
19.90
48.67
77.73
103.77
122.90
132.00
130.04
118.57
101.08
81.31
61.60
42.25
22.32
1.31
-19.45
-36.88
-47.52
-49.50
-43.76
-33.78
-23.94
-17.47
-15.34
-16.36
-18.44
-20.02
-20.86
-21.85
-24.18
-28.48
-34.43
-40.93
-46.61
-50.47
-52.20
-52.24
-51.46
-50.71
-50.48
-50.77
-51.25
-51.49
-51.08
-49.68
-46.96
-42.53
-35.95
-26.98
-15.65
-2.46
11.69
25.61
38.14
48.44
56.32
62.31
67.53
73.16
79.81
87.21
94.15
99.04
100.51
97.97
91.68
82.37
70.88
57.88
43.89
29.60
15.96
4.13
-5.00
-11.19
-14.91
-16.91
-17.62
-16.88
-14.25
-9.80
-4.65
-0.77
0.10
-2.35
-6.26
-8.18
-4.78
5.18
19.87
35.03
46.15
50.71
49.41
45.67
43.54
45.52
51.36
58.42
63.28
63.68
59.58
53.10
47.29
44.66
46.40
52.38
61.69
73.12
85.21
96.04
103.07
103.53
95.12
76.81
49.01
13.14
-29.22
-76.75
-128.12
-181.31
-232.90
-278.24
-312.53
-332.26
-336.46
-326.91
-307.30
-281.95
-254.63
-227.86
-203.09
-181.06
-162.28
-147.07
-135.36
-126.40
-118.59
-109.88
-98.24
-82.47
-62.66
-40.17
-17.11
4.43
23.08
38.50
51.20
62.01
71.56
79.87
86.46
90.68
92.16
91.10
88.35
85.04
82.14
80.14
78.87
77.74
76.07
73.40
69.65
65.04
59.80
54.13
48.08
41.73
35.24
28.89
23.00
17.78
13.35
9.66
6.56
3.80
1.06
-2.05
-5.76
-10.01
-14.20
-17.24
-17.97
-15.60
-10.25
-2.98
4.47
10.32
13.36
13.20
10.26
5.43
-0.31
-6.09
-11.25
-15.28
-17.88
-18.86
-18.36
-16.74
-14.59
-12.51
-11.02
-10.46
-10.85
-11.95
-13.37
-14.67
-15.57
-16.05
-16.30
-16.64
-17.38
-18.68
-20.57
-22.97
-25.79
-28.96
-32.48
-36.43
-40.94
-46.06
-51.61
-57.04
-61.40
-63.49
-62.22
-56.95
-47.73
-35.33
-21.05
-6.31
7.61
19.85
29.99
38.04
44.28
49.09
52.83
55.65
57.61
58.60
58.58
57.51
55.54
52.87
49.76
46.46
43.12
39.78
36.38
32.77
28.78
24.31
19.41
14.26
9.19
4.54
0.46
-3.06
-6.33
-9.82
-14.04
-19.32
-25.64
-32.42
-38.65
-43.03
-44.36
-41.89
-35.59
-26.14
-14.73
-2.70
8.81
19.00
27.48
34.11
38.86
41.76
42.88
42.42
40.72
38.23
35.43
32.71
30.28
28.18
26.32
24.58
22.91
21.28
19.66
17.92
15.89
13.28
9.92
5.74
0.89
-4.26
-9.38
-14.18
-18.62
-22.95
-27.62
-33.10
-39.62
-46.93
-54.22
-60.27
-63.65
-63.24
-58.47
-49.57
-37.49
-23.68
-9.62
3.43
14.67
23.74
30.55
35.16
37.65
38.20
37.13
34.96
32.29
29.66
27.38
25.53
23.99
22.64
21.41
20.31
19.35
18.38
17.11
15.17
12.26
8.29
3.43
-1.94
-7.40
-12.59
-17.43
-22.10
-27.01
-32.65
-39.34
-46.94
-54.75
-61.50
-65.65
-65.88
-61.47
-52.54
-40.08
-25.56
-10.57
3.54
15.91
26.08
33.92
39.46
42.82
44.20
43.95
42.52
40.47
38.28
36.31
34.66
33.24
31.88
30.40
28.77
26.99
25.08
22.98
20.53
17.51
13.71
9.08
3.74
-1.99
-7.72
-13.02
-17.63
-21.54
-25.04
-28.68
-33.06
-38.58
-45.20
-52.27
-58.58
-62.59
-62.89
-58.62
-49.76
-37.20
-22.46
-7.23
7.02
19.37
29.47
37.35
43.20
47.19
49.44
50.09
49.42
47.82
45.80
43.81
42.18
41.03
40.28
39.68
38.98
37.93
36.37
34.26
31.67
28.70
25.46
22.01
18.33
14.38
10.12
5.56
0.82
-3.95
-8.58
-12.96
-17.07
-20.99
-24.84
-28.80
-33.09
-37.99
-43.70
-50.26
-57.29
-63.92
-68.86
-70.73
-68.46
-61.69
-50.87
-37.14
-22.00
-6.90
7.03
19.07
28.84
36.24
41.30
44.20
45.29
45.03
43.95
42.56
41.22
40.10
39.18
38.34
37.48
36.52
35.44
34.23
32.77
30.89
28.42
25.31
21.70
17.85
14.08
10.54
7.23
3.95
0.46
-3.39
-7.58
-11.89
-16.06
-19.84
-23.16
-26.15
-29.18
-32.73
-37.29
-43.08
-49.92
-57.06
-63.20
-66.83
-66.63
-61.87
-52.72
-40.24
-25.99
-11.63
1.61
13.01
22.41
29.78
35.13
38.35
39.35
38.26
35.64
32.33
29.28
27.19
26.30
26.34
26.75
26.95
26.57
25.61
24.26
22.74
21.13
19.31
17.05
14.11
10.45
6.21
1.67
-2.86
-7.14
-11.07
-14.66
-18.04
-21.40
-24.97
-29.03
-33.86
-39.60
-46.18
-53.11
-59.50
-64.12
-65.71
-63.34
-56.67
-46.13
-32.83
-18.24
-3.85
9.14
19.97
28.37
34.37
38.18
40.09
40.42
39.54
37.85
35.80
33.77
32.04
30.72
29.72
28.89
28.07
27.12
25.98
24.58
22.82
20.62
17.97
14.96
11.76
8.55
5.44
2.38
-0.74
-4.07
-7.67
-11.46
-15.35
-19.24
-23.13
-27.17
-31.60
-36.65
-42.56
-49.35
-56.72
-63.93
-69.81
-73.00
-72.28
-67.04
-57.45
-44.50
-29.73
-14.73
-0.82
11.21
21.07
28.81
34.56
38.52
40.84
41.77
41.62
40.80
39.70
38.62
37.72
36.97
36.28
35.48
34.47
33.23
31.75
30.07
28.17
25.99
23.48
20.65
17.52
14.23
10.83
7.32
3.59
-0.54
-5.10
-9.98
-14.85
-19.32
-23.09
-26.14
-28.77
-31.52
-35.00
-39.66
-45.64
-52.58
-59.62
-65.48
-68.73
-68.10
-62.95
-53.43
-40.51
-25.74
-10.80
2.93
14.56
23.76
30.60
35.33
38.32
39.92
40.50
40.39
39.88
39.16
38.32
37.37
36.32
35.23
34.20
33.32
32.62
32.00
31.30
30.31
28.88
26.92
24.44
21.48
18.12
14.46
10.56
6.52
2.38
-1.80
-6.01
-10.18
-14.26
-18.17
-21.86
-25.39
-28.95
-32.86
-37.47
-43.09
-49.77
-57.15
-64.36
-70.13
-72.99
-71.72
-65.74
-55.37
-41.79
-26.70
-11.84
1.47
12.53
21.15
27.52
31.90
34.53
35.62
35.45
34.39
32.89
31.40
30.17
29.29
28.71
28.29
27.93
27.57
27.14
26.53
25.60
24.19
22.20
19.64
16.57
13.15
9.47
5.61
1.62
-2.45
-6.52
-10.50
-14.30
-17.85
-21.16
-24.38
-27.74
-31.57
-36.23
-41.87
-48.36
-55.10
-61.08
-65.01
-65.68
-62.31
-54.80
-43.78
-30.46
-16.29
-2.62
9.58
19.70
27.52
33.04
36.40
37.87
37.83
36.81
35.29
33.70
32.29
31.15
30.23
29.47
28.75
27.96
27.02
25.84
24.40
22.72
20.80
18.62
16.08
13.02
9.32
5.00
0.20
-4.78
-9.59
-13.98
-17.81
-21.20
-24.46
-28.05
-32.43
-37.93
-44.54
-51.87
-59.12
-65.16
-68.81
-69.05
-65.27
-57.48
-46.30
-32.81
-18.29
-3.98
9.14
20.43
29.56
36.43
41.15
43.90
45.02
44.89
43.91
42.46
40.82
39.17
37.65
36.33
35.31
34.58
34.05
33.54
32.80
31.59
29.77
27.35
24.45
21.23
17.81
14.20
10.33
6.10
1.45
-3.56
-8.78
-13.97
-18.86
-23.30
-27.23
-30.75
-34.18
-38.00
-42.72
-48.72
-55.86
-63.33
-69.73
-73.35
-72.75
-67.24
-57.18
-43.79
-28.85
-14.06
-0.66
10.72
20.01
27.40
33.12
37.32
40.07
41.45
41.69
41.18
40.39
39.69
39.21
38.81
38.21
37.25
35.94
34.55
33.33
32.37
31.48
30.25
28.28
25.43
21.82
17.78
13.67
9.66
5.75
1.81
-2.33
-6.73
-11.38
-16.15
-20.88
-25.43
-29.76
-33.91
-38.11
-42.72
-48.14
-54.61
-61.93
-69.31
-75.37
-78.46
-77.12
-70.63
-59.27
-44.35
-27.77
-11.43
3.25
15.60
25.58
33.45
39.44
43.62
45.98
46.59
45.80
44.21
42.49
41.18
40.43
40.06
39.75
39.20
38.34
37.28
36.19
35.15
34.08
32.75
30.91
28.40
25.23
21.58
17.74
13.96
10.37
6.91
3.40
-0.41
-4.68
-9.40
-14.39
-19.34
-23.92
-27.97
-31.56
-34.99
-38.78
-43.46
-49.41
-56.59
-64.43
-71.81
-77.19
-79.05
-76.29
-68.62
-56.71
-41.96
-26.12
-10.78
2.95
14.57
24.03
31.47
37.05
40.80
42.75
43.08
42.15
40.50
38.72
37.27
36.38
36.00
35.88
35.67
35.13
34.12
32.64
30.77
28.61
26.19
23.50
20.50
17.13
13.37
9.27
4.94
0.51
-3.88
-8.15
-12.27
-16.30
-20.31
-24.35
-28.49
-32.81
-37.49
-42.78
-48.83
-55.48
-62.00
-67.15
-69.44
-67.68
-61.40
-51.08
-38.05
-23.91
-10.13
2.32
13.05
21.94
29.03
34.25
37.52
38.85
38.49
36.94
34.83
32.79
31.28
30.51
30.39
30.65
30.98
31.13
30.92
30.23
29.00
27.18
24.79
21.89
18.55
14.85
10.81
6.44
1.76
-3.17
-8.21
-13.14
-17.80
-22.08
-26.10
-30.11
-34.52
-39.77
-46.15
-53.58
-61.53
-68.89
-74.21
-76.06
-73.43
-66.12
-54.78
-40.78
-25.77
-11.21
1.91
13.17
22.55
30.15
36.01
40.10
42.39
43.11
42.70
41.81
41.01
40.65
40.68
40.83
40.78
40.36
39.59
38.62
37.56
36.36
34.80
32.65
29.77
26.27
22.41
18.48
14.67
10.94
7.10
2.89
-1.82
-6.98
-12.31
-17.50
-22.26
-26.50
-30.37
-34.22
-38.51
-43.69
-50.04
-57.42
-65.14
-71.97
-76.33
-76.74
-72.28
-62.96
-49.71
-34.18
-18.16
-3.20
9.77
20.43
28.90
35.46
40.42
43.93
46.11
47.11
47.18
46.61
45.71
44.71
43.71
42.73
41.76
40.82
39.95
39.17
38.46
37.69
36.66
35.18
33.04
30.21
26.79
22.98
19.09
15.36
11.86
8.45
4.91
0.98
-3.46
-8.30
-13.29
-18.11
-22.55
-26.61
-30.55
-34.82
-39.97
-46.39
-54.11
-62.52
-70.41
-76.13
-78.06
-75.12
-67.15
-54.97
-40.12
-24.38
-9.30
4.15
15.54
24.86
32.26
37.93
42.05
44.77
46.29
46.87
46.74
46.15
45.29
44.35
43.45
42.68
42.06
41.53
41.01
40.40
39.61
38.53
37.00
34.90
32.12
28.74
25.00
21.25
17.75
14.62
11.70
8.63
5.04
0.70
-4.35
-9.80
-15.22
-20.23
-24.63
-28.52
-32.26
-36.38
-41.36
-47.46
-54.40
-61.38
-67.06
-69.96
-68.88
-63.23
-53.33
-40.29
-25.69
-11.11
2.17
13.47
22.56
29.48
34.41
37.50
38.96
39.03
38.11
36.70
35.28
34.22
33.63
33.45
33.47
33.43
33.11
32.35
31.06
29.24
26.96
24.35
21.60
18.80
15.95
12.92
9.53
5.65
1.29
-3.38
-8.09
-12.55
-16.53
-19.99
-23.05
-25.99
-29.25
-33.33
-38.60
-45.07
-52.27
-59.24
-64.69
-67.32
-66.16
-60.86
-51.74
-39.72
-26.04
-12.02
1.22
12.83
22.30
29.38
34.07
36.57
37.31
36.82
35.67
34.28
32.90
31.59
30.34
29.18
28.18
27.49
27.13
26.93
26.61
25.78
24.19
21.80
18.80
15.49
12.12
8.75
5.31
1.62
-2.46
-6.96
-11.70
-16.45
-20.99
-25.18
-29.07
-32.88
-36.98
-41.82
-47.73
-54.66
-62.06
-68.74
-73.20
-74.00
-70.30
-62.10
-50.30
-36.38
-21.90
-8.21
3.87
13.98
22.09
28.37
33.00
36.15
38.00
38.73
38.59
37.90
36.97
36.09
35.42
35.00
34.79
34.66
34.54
34.27
33.71
32.69
31.00
28.53
25.28
21.38
17.07
12.62
8.21
3.96
-0.13
-4.10
-7.99
-11.78
-15.42
-18.87
-22.18
-25.51
-29.16
-33.46
-38.70
-45.01
-52.18
-59.59
-66.19
-70.63
-71.60
-68.21
-60.29
-48.60
-34.56
-19.89
-6.12
5.72
15.25
22.58
28.05
32.03
34.80
36.58
37.51
37.75
37.46
36.79
35.90
35.00
34.24
33.74
33.54
33.54
33.53
33.26
32.48
31.06
28.94
26.16
22.84
19.14
15.22
11.26
7.33
3.43
-0.50
-4.52
-8.65
-12.80
-16.82
-20.64
-24.24
-27.79
-31.58
-35.96
-41.21
-47.39
-54.17
-60.81
-66.16
-68.94
-68.07
-63.04
-54.05
-42.00
-28.18
-13.98
-0.56
11.29
21.15
28.85
34.43
38.04
39.97
40.57
40.28
39.47
38.43
37.30
36.16
35.04
34.06
33.34
33.00
32.94
32.88
32.36
30.99
28.55
25.19
21.34
17.51
14.09
11.15
8.53
5.85
2.81
-0.74
-4.74
-8.96
-13.11
-16.94
-20.30
-23.24
-25.99
-28.99
-32.73
-37.62
-43.66
-50.37
-56.70
-61.28
-62.80
-60.40
-54.01
-44.30
-32.53
-20.11
-8.28
2.18
10.98
18.14
23.78
27.97
30.69
31.91
31.74
30.52
28.82
27.25
26.28
26.00
26.21
26.47
26.38
25.75
24.63
23.28
21.90
20.49
18.80
16.46
13.19
8.97
4.15
-0.71
-5.10
-8.74
-11.70
-14.30
-17.03
-20.34
-24.55
-29.83
-36.09
-42.90
-49.49
-54.71
-57.34
-56.35
-51.33
-42.62
-31.27
-18.68
-6.22
5.07
14.65
22.35
28.21
32.37
34.98
36.22
36.39
35.85
34.96
34.00
33.12
32.36
31.71
31.14
30.63
30.09
29.40
28.38
26.87
24.77
22.11
19.00
15.62
12.13
8.59
5.04
1.39
-2.43
-6.48
-10.72
-15.02
-19.19
-23.06
-26.62
-30.05
-33.67
-37.96
-43.25
-49.59
-56.57
-63.22
-68.19
-70.14
-68.09
-61.82
-51.94
-39.68
-26.55
-13.87
-2.49
7.23
15.37
22.17
27.86
32.56
36.28
38.99
40.73
41.65
41.96
41.87
41.51
40.91
40.03
38.89
37.58
36.28
35.10
34.05
32.93
31.45
29.37
26.59
23.22
19.47
15.55
11.59
7.60
3.54
-0.61
-4.85
-9.12
-13.36
-17.48
-21.43
-25.22
-28.98
-32.99
-37.59
-43.08
-49.48
-56.28
-62.40
-66.37
-66.79
-62.82
-54.52
-42.89
-29.56
-16.19
-4.07
6.16
14.42
20.95
26.02
29.75
32.22
33.50
33.86
33.64
33.20
32.82
32.54
32.22
31.67
30.78
29.59
28.30
27.12
26.16
25.29
24.26
22.76
20.60
17.81
14.53
10.96
7.23
3.34
-0.67
-4.78
-8.83
-12.69
-16.27
-19.71
-23.30
-27.41
-32.38
-38.36
-45.21
-52.36
-58.84
-63.43
-64.98
-62.73
-56.65
-47.48
-36.45
-24.94
-14.05
-4.46
3.50
9.67
13.90
16.01
16.02
14.21
11.26
8.09
5.63
4.53
4.95
6.59
8.83
11.02
12.68
13.64
13.91
13.61
12.82
11.50
9.62
7.24
4.62
2.12
0.17
-0.90
-0.98
-0.29
0.63
1.03
0.16
-2.53
-7.26
-13.76
-21.40
-29.28
-36.33
-41.42
-43.47
-41.68
-35.69
-25.83
-13.11
0.94
14.73
26.89
36.61
43.62
48.07
50.30
50.73
49.78
47.92
45.57
43.15
40.92
38.98
37.29
35.72
34.15
32.53
30.92
29.43
28.13
27.02
25.95
24.57
22.41
19.03
14.15
7.81
0.46
-7.16
-14.26
-20.26
-25.03
-28.89
-32.51
-36.69
-41.97
-48.55
-56.01
-63.42
-69.50
-72.86
-72.41
-67.61
-58.69
-46.60
-32.77
-18.74
-5.80
5.24
14.10
20.90
25.99
29.79
32.67
34.89
36.61
37.93
38.81
39.23
39.11
38.47
37.38
36.00
34.51
33.06
31.75
30.57
29.38
27.95
26.01
23.34
19.92
15.90
11.61
7.38
3.42
-0.25
-3.80
-7.46
-11.40
-15.61
-19.92
-24.05
-27.75
-30.89
-33.53
-35.93
-38.42
-41.36
-44.90
-48.90
-52.84
-55.88
-57.02
-55.41
-50.60
-42.73
-32.52
-21.09
-9.64
0.85
9.75
16.90
22.42
26.60
29.78
32.30
34.42
36.30
38.00
39.40
40.34
40.65
40.24
39.16
37.61
35.87
34.21
32.81
31.72
30.82
29.89
28.64
26.79
24.15
20.77
16.87
12.83
9.04
5.73
2.83
0.03
-3.10
-6.86
-11.28
-16.06
-20.73
-24.88
-28.35
-31.31
-34.20
-37.57
-41.86
-47.29
-53.68
-60.43
-66.52
-70.73
-71.83
-68.99
-61.97
-51.26
-38.02
-23.67
-9.64
2.99
13.60
22.00
28.31
32.79
35.74
37.47
38.28
38.50
38.39
38.17
37.90
37.54
36.98
36.20
35.27
34.40
33.75
33.32
32.92
32.15
30.65
28.23
24.93
21.07
17.05
13.24
9.84
6.78
3.80
0.49
-3.40
-7.95
-12.88
-17.77
-22.15
-25.80
-28.80
-31.53
-34.47
-38.10
-42.69
-48.22
-54.33
-60.23
-64.82
-66.84
-65.24
-59.49
-49.88
-37.48
-23.81
-10.42
1.55
11.47
19.20
24.93
28.90
31.33
32.41
32.34
31.41
30.02
28.59
27.46
26.81
26.60
26.63
26.61
26.35
25.72
24.68
23.23
21.30
18.80
15.66
11.91
7.73
3.38
-0.84
-4.77
-8.38
-11.75
-15.04
-18.35
-21.71
-25.12
-28.58
-32.29
-36.49
-41.42
-47.05
-52.90
-58.01
-61.18
-61.24
-57.48
-49.88
-39.13
-26.48
-13.36
-1.05
9.57
18.08
24.46
28.88
31.57
32.74
32.58
31.39
29.55
27.58
25.92
24.86
24.41
24.30
24.14
23.56
22.42
20.78
18.90
16.99
15.12
13.10
10.58
7.26
3.07
-1.70
-6.53
-10.87
-14.41
-17.19
-19.64
-22.38
-25.99
-30.89
-37.10
-44.15
-51.12
-56.76
-59.73
-58.99
-54.11
-45.38
-33.83
-20.87
-7.98
3.65
13.33
20.85
26.39
30.28
32.85
34.29
34.72
34.18
32.89
31.16
29.42
28.04
27.18
26.76
26.49
26.05
25.24
24.04
22.60
21.05
19.38
17.36
14.64
10.97
6.33
0.99
-4.52
-9.64
-13.97
-17.43
-20.26
-22.96
-26.11
-30.25
-35.68
-42.33
-49.69
-56.75
-62.15
-64.48
-62.72
-56.52
-46.39
-33.56
-19.64
-6.13
5.91
15.93
23.83
29.80
34.05
36.75
38.06
38.15
37.28
35.87
34.39
33.29
32.82
32.89
33.20
33.29
32.80
31.65
30.01
28.12
26.15
24.09
21.73
18.85
15.32
11.17
6.55
1.68
-3.20
-7.86
-12.10
-15.87
-19.24
-22.48
-25.99
-30.22
-35.51
-41.89
-48.98
-55.87
-61.32
-63.94
-62.66
-57.12
-47.75
-35.71
-22.47
-9.36
2.72
13.31
22.24
29.41
34.73
38.11
39.67
39.75
38.93
37.80
36.81
36.16
35.78
35.51
35.19
34.69
33.93
32.84
31.39
29.55
27.39
25.02
22.51
19.81
16.78
13.27
9.20
4.66
-0.11
-4.78
-9.07
-12.86
-16.19
-19.24
-22.33
-25.82
-30.08
-35.36
-41.63
-48.45
-54.92
-59.76
-61.64
-59.53
-53.09
-42.83
-30.01
-16.26
-3.10
8.37
17.61
24.52
29.21
31.84
32.66
32.05
30.54
28.76
27.24
26.21
25.68
25.42
25.20
24.87
24.38
23.71
22.86
21.78
20.46
18.88
16.99
14.70
11.86
8.29
3.98
-0.83
-5.71
-10.14
-13.72
-16.45
-18.71
-21.19
-24.57
-29.25
-35.11
-41.48
-47.20
-50.92
-51.45
-48.07
-40.80
-30.39
-18.12
-5.44
6.36
16.44
24.44
30.38
34.46
36.87
37.77
37.38
36.00
34.05
31.99
30.24
29.03
28.37
28.07
27.83
27.32
26.34
24.83
22.93
20.80
18.59
16.27
13.65
10.46
6.50
1.81
-3.39
-8.68
-13.64
-17.96
-21.55
-24.53
-27.23
-30.13
-33.76
-38.54
-44.70
-51.99
-59.63
-66.33
-70.55
-70.93
-66.72
-57.98
-45.66
-31.29
-16.53
-2.76
9.17
19.00
26.84
32.96
37.57
40.80
42.75
43.60
43.61
43.20
42.71
42.38
42.20
42.02
41.63
40.84
39.64
38.08
36.24
34.15
31.78
29.09
26.09
22.87
19.55
16.20
12.82
9.24
5.31
0.90
-3.87
-8.71
-13.24
-17.23
-20.70
-24.00
-27.74
-32.54
-38.81
-46.52
-55.04
-63.19
-69.44
-72.25
-70.49
-63.88
-53.02
-39.33
-24.54
-10.22
2.56
13.33
22.09
29.00
34.20
37.80
39.93
40.87
41.02
40.82
40.60
40.47
40.38
40.14
39.62
38.78
37.73
36.59
35.53
34.59
33.70
32.70
31.29
29.25
26.41
22.84
18.82
14.78
11.08
7.88
5.04
2.16
-1.19
-5.25
-9.93
-14.88
-19.61
-23.78
-27.43
-30.90
-34.82
-39.78
-46.04
-53.34
-60.81
-67.06
-70.59
-70.15
-65.16
-55.89
-43.41
-29.27
-15.10
-2.14
8.88
17.80
24.75
29.95
33.50
35.48
35.99
35.30
33.91
32.37
31.16
30.51
30.39
30.52
30.62
30.46
29.99
29.28
28.40
27.36
26.05
24.32
22.05
19.22
15.95
12.36
8.56
4.56
0.31
-4.15
-8.72
-13.20
-17.43
-21.34
-25.05
-28.78
-32.89
-37.68
-43.32
-49.65
-56.14
-61.77
-65.25
-65.34
-61.28
-53.07
-41.52
-28.02
-14.11
-1.08
10.24
19.47
26.56
31.57
34.57
35.67
35.11
33.29
30.81
28.28
26.26
25.01
24.51
24.46
24.44
24.08
23.17
21.65
19.62
17.18
14.44
11.46
8.33
5.12
1.93
-1.15
-4.09
-6.92
-9.67
-12.42
-15.25
-18.28
-21.72
-25.82
-30.81
-36.79
-43.51
-50.30
-56.11
-59.66
-59.79
-55.83
-47.81
-36.51
-23.25
-9.53
3.36
14.60
23.82
30.96
36.12
39.40
40.94
40.98
39.93
38.35
36.76
35.55
34.80
34.42
34.11
33.64
32.82
31.60
29.99
28.05
25.82
23.38
20.79
18.04
15.06
11.72
7.90
3.56
-1.18
-6.07
-10.82
-15.19
-19.08
-22.58
-25.91
-29.45
-33.62
-38.82
-45.19
-52.48
-59.92
-66.33
-70.30
-70.61
-66.58
-58.29
-46.56
-32.71
-18.24
-4.40
7.88
18.14
26.24
32.26
36.41
38.95
40.20
40.55
40.35
39.89
39.36
38.83
38.28
37.69
37.01
36.28
35.53
34.81
34.06
33.13
31.76
29.71
26.84
23.23
19.15
14.94
10.93
7.25
3.80
0.33
-3.44
-7.68
-12.35
-17.18
-21.77
-25.77
-29.05
-31.83
-34.68
-38.27
-43.23
-49.70
-57.24
-64.77
-70.71
-73.48
-71.89
-65.52
-54.93
-41.47
-26.83
-12.64
-0.05
10.41
18.64
24.79
29.04
31.56
32.53
32.29
31.28
30.02
28.97
28.39
28.33
28.59
28.89
28.91
28.48
27.58
26.31
24.86
23.32
21.67
19.74
17.31
14.18
10.31
5.77
0.80
-4.26
-9.11
-13.49
-17.34
-20.80
-24.15
-27.71
-31.81
-36.64
-42.22
-48.32
-54.37
-59.52
-62.66
-62.75
-59.08
-51.55
-40.81
-28.05
-14.72
-2.13
8.80
17.57
24.04
28.34
30.72
31.58
31.43
30.73
29.84
28.89
27.77
26.31
24.48
22.52
20.86
19.90
19.74
20.08
20.15
19.15
16.49
12.16
6.71
1.09
-3.81
-7.54
-10.29
-12.86
-16.32
-21.44
-28.30
-36.07
-43.22
-48.04
-49.31
-46.78
-41.49
-35.71
-32.55
-35.35
-46.49
-66.39
-92.76
-120.59
-143.13
-153.72
-147.87
-124.82
-87.90
-43.33
1.89
42.23
74.97
100.06
118.93
133.05
143.11
149.17
151.44
151.01
149.76
149.57
151.15
153.46
154.19
151.00
142.78
130.23
115.44
100.81
87.95
77.07
66.99
55.85
41.89
24.29
3.65
-18.05
-37.90
-53.13
-61.94
-64.19
-61.33
-55.83
-50.30
-46.84
-46.91
-51.41
-60.84
-75.08
-92.94
-111.94
-128.65
-139.73
-143.31
-139.70
-131.11
-120.33
-109.14
-97.43
-83.51
-65.32
-42.01
-14.72
13.51
38.78
57.51
67.35
67.61
59.26
44.71
27.43
11.35
-0.12
-4.96
-3.08
3.93
13.65
24.00
33.98
43.64
53.40
63.27
72.49
79.75
83.94
84.77
83.00
80.19
78.62
81.25
91.79
114.08
150.61
200.61
258.84
316.29
362.76
390.41
396.53
383.93
359.02
328.67
297.63
267.77
238.91
210.42
182.20
154.58
127.59
100.33
70.98
37.68
-0.43
-42.34
-85.15
-124.87
-157.82
-182.06
-198.02
-208.26
-216.18
-224.63
-234.96
-247.19
-260.98
-276.60
-295.26
-318.04
-344.44
-371.15
-392.38
-401.51
-393.54
-367.00
-324.43
-271.55
-215.35
-162.36
-117.41
-83.09
-59.85
-46.28
-39.68
-36.82
-34.97
-32.56
-29.60
-27.28
-27.03
-29.55
-34.42
-40.55
-47.10
-54.55
-64.78
-80.20
-101.85
-127.68
-151.98
-166.47
-163.04
-136.72
-88.04
-23.16
48.02
115.01
169.90
209.16
233.59
246.83
253.18
256.07
257.28
257.32
256.08
253.51
249.73
244.65
237.64
227.38
212.21
190.89
163.38
131.00
95.93
60.19
24.73
-10.79
-47.19
-84.52
-120.95
-152.75
-175.39
-185.40
-181.78
-166.44
-143.37
-117.10
-91.39
-68.74
-50.41
-36.99
-28.48
-24.39
-23.62
-24.82
-26.84
-29.11
-31.65
-34.61
-37.73
-40.06
-40.32
-37.52
-31.66
-23.72
-15.34
-8.08
-2.89
-0.00
0.79
-0.22
-2.91
-7.26
-13.14
-20.12
-27.46
-34.19
-39.33
-42.08
-42.05
-39.31
-34.39
-28.04
-20.95
-13.54
-5.86
2.13
10.39
18.56
25.96
31.80
35.50
36.95
36.52
34.93
33.01
31.43
30.47
30.15
30.21
30.43
30.64
30.95
31.64
33.01
35.25
38.26
41.74
45.13
47.81
49.25
49.03
46.93
42.90
37.01
29.40
20.25
9.79
-1.61
-13.40
-24.68
-34.38
-41.38
-44.96
-44.91
-41.65
-36.08
-29.33
-22.38
-15.91
-10.33
-5.76
-2.34
-0.23
0.35
-0.74
-3.44
-7.45
-12.23
-17.09
-21.46
-24.98
-27.63
-29.68
-31.63
-34.00
-37.17
-41.26
-45.99
-50.82
-55.08
-58.34
-60.60
-62.47
-64.91
-68.94
-75.15
-83.29
-92.20
-100.24
-105.81
-108.06
-107.29
-105.09
-103.78
-105.66
-112.13
-123.08
-136.89
-150.92
-162.43
-169.37
-170.91
-167.52
-160.84
-153.09
-146.32
-141.65
-138.56
-134.61
-125.87
-108.23
-79.10
-39.13
7.25
52.98
90.83
116.31
129.18
133.22
134.10
136.61
142.81
151.66
160.41
166.37
168.22
166.18
161.23
154.31
146.07
137.02
128.12
120.58
115.41
112.55
110.34
105.71
95.27
77.04
51.92
24.28
1.09
-10.49
-5.83
15.15
47.88
85.00
119.35
146.54
165.87
179.22
188.97
196.09
199.71
197.99
189.78
175.66
157.99
139.87
123.80
110.77
100.42
91.71
83.91
77.04
71.80
69.00
68.87
70.86
73.79
76.38
77.78
77.69
76.30
73.94
70.82
66.99
62.38
57.02
50.88
43.89
35.81
26.38
15.62
4.27
-6.19
-13.87
-17.17
-15.70
-10.51
-3.91
1.48
3.72
2.12
-2.76
-9.80
-18.12
-27.61
-38.83
-52.41
-68.37
-85.66
-102.18
-115.35
-122.69
-122.55
-114.55
-99.67
-80.07
-58.52
-37.80
-19.92
-6.06
3.36
8.35
9.25
6.86
2.75
-0.81
-1.57
1.77
8.64
16.45
21.50
20.34
11.07
-6.07
-29.16
-55.50
-82.58
-108.68
-132.99
-155.46
-176.60
-197.27
-218.46
-241.04
-265.47
-291.51
-318.13
-343.46
-364.98
-380.02
-386.25
-382.52
-369.31
-348.82
-324.40
-299.40
-276.00
-254.41
-233.18
-210.24
-184.28
-155.55
-125.94
-97.96
-73.68
-53.92
-38.01
-24.41
-11.42
2.15
16.66
31.72
46.42
59.52
69.73
76.01
77.98
76.31
72.77
70.09
70.97
77.18
88.71
103.57
118.45
129.88
135.53
135.01
129.87
122.66
115.83
110.63
106.65
102.27
95.38
84.46
69.25
50.88
31.42
13.24
-1.66
-11.88
-16.64
-15.61
-8.82
3.21
19.43
38.37
58.37
78.02
96.30
112.41
125.63
135.12
140.12
140.37
136.43
129.70
122.34
116.73
114.98
118.35
126.70
138.16
149.45
156.89
157.84
151.89
141.02
128.44
117.15
108.72
103.14
99.87
98.68
99.41
100.81
99.53
90.75
70.64
39.20
1.61
-33.20
-56.32
-62.90
-54.21
-36.56
-17.97
-4.65
0.87
-0.56
-6.38
-14.12
-22.18
-29.64
-35.93
-40.53
-43.22
-44.30
-44.49
-44.59
-45.05
-45.56
-45.04
-42.08
-35.49
-24.80
-10.42
6.43
24.10
40.81
54.95
65.37
71.48
73.41
71.96
68.37
63.93
59.50
55.15
50.30
43.96
35.28
23.95
10.33
-4.63
-19.76
-34.05
-46.87
-58.10
-67.99
-76.93
-85.29
-93.15
-100.40
-106.75
-111.97
-115.95
-118.68
-120.12
-120.11
-118.37
-114.67
-109.05
-101.80
-93.38
-84.20
-74.39
-63.89
-52.63
-40.75
-28.68
-17.05
-6.46
2.73
10.42
16.70
21.70
25.48
28.15
29.79
30.62
30.84
30.60
29.90
28.66
26.70
23.90
20.29
15.98
11.17
6.08
0.84
-4.40
-9.62
-14.84
-20.27
-26.27
-33.18
-41.11
-49.62
-57.67
-63.72
-66.33
-64.56
-58.36
-48.57
-36.55
-23.75
-11.28
0.16
10.26
18.86
25.83
31.07
34.58
36.48
37.07
36.76
35.96
35.04
34.20
33.55
33.01
32.45
31.71
30.66
29.24
27.42
25.18
22.46
19.24
15.47
11.19
6.52
1.54
-3.79
-9.63
-16.21
-23.69
-31.78
-39.69
-46.18
-49.89
-49.83
-45.62
-37.73
-27.18
-15.33
-3.46
7.38
16.53
23.58
28.45
31.23
32.16
31.58
29.79
27.02
23.47
19.44
15.31
11.68
9.09
7.77
7.47
7.43
6.56
3.89
-1.04
-7.99
-16.08
-24.33
-32.04
-39.27
-46.79
-55.85
-67.58
-82.43
-99.87
-118.36
-135.81
-150.20
-160.23
-165.67
-167.42
-167.12
-166.58
-167.19
-169.22
-171.40
-170.89
-163.95
-147.42
-120.29
-84.78
-46.08
-10.67
16.28
33.00
41.76
47.67
56.22
70.95
92.23
117.49
142.45
162.68
174.78
177.08
169.94
155.71
138.23
121.96
110.80
107.12
111.21
121.45
134.93
148.35
158.62
163.50
161.87
154.04
141.74
127.77
115.23
106.52
102.60
102.71
104.91
106.83
106.64
103.59
98.06
91.21
84.35
78.46
73.92
70.52
67.70
64.86
61.62
57.91
53.86
49.58
45.06
40.14
34.61
28.43
21.75
14.93
8.35
2.24
-3.43
-8.93
-14.63
-20.78
-27.37
-34.01
-40.01
-44.56
-46.92
-46.61
-43.59
-38.17
-30.95
-22.69
-14.14
-5.98
1.26
7.21
11.68
14.68
16.37
16.95
16.67
15.74
14.34
12.68
10.91
9.25
7.85
6.79
6.05
5.49
4.90
4.03
2.68
0.76
-1.60
-4.17
-6.72
-9.13
-11.54
-14.32
-17.92
-22.67
-28.60
-35.38
-42.27
-48.33
-52.51
-53.90
-51.91
-46.41
-37.82
-26.98
-15.10
-3.40
7.10
15.81
22.50
27.25
30.19
31.47
31.22
29.66
27.16
24.22
21.34
18.86
16.89
15.30
13.85
12.32
10.62
8.72
6.64
4.32
1.70
-1.29
-4.65
-8.26
-11.92
-15.47
-18.85
-22.22
-25.91
-30.29
-35.52
-41.32
-46.87
-50.95
-52.29
-50.02
-43.99
-34.87
-23.89
-12.46
-1.77
7.41
14.78
20.29
24.07
26.26
26.99
26.43
24.83
22.49
19.80
17.15
14.86
13.10
11.81
10.63
8.96
6.08
1.41
-5.28
-13.62
-22.70
-31.33
-38.56
-44.01
-48.16
-52.18
-57.49
-65.22
-75.63
-87.92
-100.19
-109.76
-113.64
-109.25
-95.17
-71.90
-42.10
-10.28
18.27
39.13
50.08
51.81
47.37
40.87
35.83
34.08
35.58
39.03
42.89
46.14
48.46
50.09
51.38
52.50
53.48
54.28
54.87
55.17
54.93
53.62
50.51
44.85
36.14
24.47
10.56
-4.30
-18.55
-30.79
-40.20
-46.85
-51.59
-55.62
-59.91
-64.72
-69.39
-72.63
-73.01
-69.55
-62.05
-51.10
-37.88
-23.87
-10.53
0.83
9.29
14.55
17.03
17.81
18.32
19.72
22.31
25.43
27.67
27.87
26.03
24.01
25.13
32.84
48.88
71.75
96.54
116.26
124.09
115.40
89.03
47.47
-3.58
-55.86
-99.77
-126.20
-129.31
-109.13
-72.53
-31.65
0.26
13.59
5.65
-19.30
-52.81
-86.13
-112.98
-130.25
-136.95
-132.58
-116.52
-88.45
-49.54
-3.14
45.33
89.73
125.06
148.95
162.35
168.90
173.16
178.61
186.31
194.85
201.36
202.89
197.48
184.51
164.55
139.02
110.02
80.19
52.22
28.15
8.67
-7.06
-20.83
-34.41
-48.65
-63.39
-77.96
-91.98
-105.54
-118.77
-131.05
-140.73
-145.44
-143.18
-133.40
-117.45
-98.14
-78.62
-61.26
-47.09
-35.89
-26.81
-19.02
-12.15
-6.23
-1.50
1.96
4.30
5.93
7.37
9.05
11.22
13.84
16.69
19.41
21.70
23.38
24.45
25.04
25.26
25.20
24.88
24.24
23.21
21.70
19.58
16.76
13.10
8.53
2.92
-3.75
-11.30
-19.13
-26.00
-30.17
-29.80
-23.65
-11.70
4.65
23.04
41.05
57.02
70.47
81.81
91.69
100.47
108.04
114.07
118.35
120.91
121.81
121.09
118.70
114.78
109.84
104.73
100.21
96.40
92.51
86.96
78.09
64.96
48.00
29.21
11.81
-0.63
-5.23
-0.79
11.60
28.73
45.91
58.45
62.92
58.13
45.34
27.73
9.26
-6.70
-18.43
-26.23
-31.93
-37.90
-45.82
-56.06
-67.64
-78.96
-88.68
-96.09
-101.27
-104.59
-106.38
-106.85
-106.28
-105.27
-104.65
-105.15
-106.96
-109.50
-111.63
-112.12
-110.15
-105.58
-99.01
-91.48
-84.17
-78.07
-73.76
-71.35
-70.46
-70.36
-70.34
-69.94
-69.26
-68.87
-69.61
-72.15
-76.59
-82.44
-88.73
-94.48
-98.95
-101.91
-103.49
-103.89
-103.09
-100.74
-96.21
-88.99
-78.93
-66.50
-52.66
-38.69
-25.93
-15.57
-8.62
-5.74
-7.06
-11.96
-18.95
-25.99
-31.15
-33.41
-33.10
-31.72
-31.02
-32.10
-34.85
-38.22
-41.10
-43.25
-45.53
-49.49
-56.49
-66.96
-80.18
-94.48
-108.03
-119.39
-128.13
-134.96
-141.48
-149.53
-160.32
-173.72
-188.07
-200.67
-208.76
-210.51
-205.70
-195.69
-182.96
-170.37
-160.18
-153.26
-148.59
-143.37
-133.69
-115.80
-87.26
-47.76
0.65
53.68
105.46
149.48
180.02
193.67
190.74
175.58
155.57
138.79
131.26
135.15
148.81
168.28
189.60
210.23
229.17
245.97
259.51
267.49
266.95
255.68
233.42
202.24
165.92
128.53
93.02
60.72
31.61
5.30
-18.21
-38.14
-53.24
-62.34
-65.04
-61.95
-54.58
-44.88
-34.66
-25.15
-16.76
-9.27
-2.13
5.14
12.72
20.44
28.02
35.26
42.21
49.07
55.99
62.91
69.43
74.98
79.01
81.28
81.98
81.66
81.03
80.59
80.48
80.23
78.93
75.43
68.83
58.75
45.63
30.61
15.35
1.70
-8.70
-14.62
-15.44
-11.29
-3.12
7.40
18.22
27.40
33.60
36.42
36.27
34.10
30.86
27.24
23.56
19.86
16.21
12.72
9.65
7.22
5.60
4.77
4.59
4.89
5.46
6.10
6.70
7.14
7.26
6.87
5.78
3.82
0.99
-2.53
-6.49
-10.66
-14.95
-19.51
-24.51
-30.14
-36.33
-42.68
-48.44
-52.62
-54.19
-52.34
-46.71
-37.51
-25.40
-11.45
3.02
16.38
26.69
31.79
29.76
19.60
1.93
-20.75
-44.53
-64.95
-78.26
-82.26
-76.61
-62.78
-43.60
-22.61
-3.40
11.32
20.40
24.61
26.25
28.14
32.37
39.46
48.42
57.49
65.21
71.08
75.52
79.24
82.62
85.39
86.93
86.90
85.67
84.35
84.25
86.20
90.05
94.64
98.35
99.67
97.89
93.23
86.70
79.57
72.91
67.23
62.40
57.83
52.67
46.10
37.60
27.08
14.84
1.47
-12.28
-25.65
-37.94
-48.51
-56.76
-62.19
-64.63
-64.28
-61.86
-58.42
-55.15
-53.00
-52.47
-53.48
-55.46
-57.65
-59.41
-60.43
-60.86
-61.17
-61.98
-63.71
-66.36
-69.45
-72.09
-73.30
-72.26
-68.61
-62.51
-54.48
-45.25
-35.42
-25.42
-15.48
-5.78
3.42
11.77
18.88
24.47
28.41
30.78
31.78
31.63
30.60
28.96
27.06
25.30
24.06
23.61
23.96
24.75
25.34
24.93
22.83
18.68
12.56
4.99
-3.28
-11.47
-19.01
-25.64
-31.46
-36.79
-42.13
-47.95
-54.48
-61.51
-68.34
-73.84
-76.75
-76.05
-71.33
-62.86
-51.52
-38.51
-25.04
-12.15
-0.60
9.10
16.74
22.35
26.21
28.73
30.33
31.27
31.69
31.57
30.90
29.75
28.20
26.40
24.48
22.54
20.63
18.73
16.79
14.60
11.90
8.44
4.10
-1.04
-6.67
-12.36
-17.72
-22.60
-27.16
-31.86
-37.29
-43.77
-51.16
-58.61
-64.72
-67.98
-67.22
-62.08
-53.09
-41.42
-28.48
-15.54
-3.49
7.16
16.13
23.27
28.51
31.93
33.71
34.19
33.70
32.60
31.16
29.58
27.97
26.39
24.80
23.21
21.57
19.83
17.89
15.57
12.66
8.98
4.52
-0.55
-5.87
-11.04
-15.77
-19.99
-23.87
-27.76
-32.07
-37.21
-43.34
-50.33
-57.54
-63.90
-68.12
-69.02
-65.93
-58.87
-48.54
-35.99
-22.29
-8.32
5.27
17.97
29.21
38.43
45.15
49.18
50.79
50.66
49.69
48.64
47.91
47.36
46.51
44.84
42.11
38.58
34.90
31.76
29.50
27.89
26.10
23.09
18.07
10.91
2.29
-6.61
-14.50
-20.57
-24.82
-28.02
-31.42
-36.47
-44.51
-56.60
-73.17
-93.40
-114.84
-133.49
-144.80
-145.27
-134.08
-113.64
-88.67
-64.30
-44.04
-28.79
-17.20
-7.17
2.80
12.89
22.30
30.17
36.24
41.05
45.39
49.83
54.28
58.07
60.41
60.79
59.29
56.56
53.48
50.71
48.42
46.18
43.28
39.06
33.31
26.34
18.89
11.71
5.24
-0.55
-6.14
-12.27
-19.53
-28.17
-37.83
-47.57
-56.02
-61.66
-63.27
-60.23
-52.72
-41.61
-28.18
-13.77
0.49
13.86
25.92
36.49
45.44
52.68
58.16
61.89
64.00
64.74
64.42
63.40
61.92
60.11
57.93
55.29
52.12
48.51
44.64
40.74
36.85
32.88
28.59
23.69
18.05
11.72
4.94
-1.90
-8.35
-14.09
-18.98
-23.21
-27.23
-31.68
-37.14
-43.81
-51.29
-58.57
-64.21
-66.79
-65.29
-59.47
-49.81
-37.41
-23.60
-9.62
3.60
15.49
25.72
34.10
40.48
44.83
47.24
48.00
47.55
46.40
44.91
43.32
41.62
39.68
37.34
34.55
31.39
28.06
24.84
21.94
19.35
16.94
14.36
11.33
7.61
3.22
-1.68
-6.76
-11.71
-16.32
-20.58
-24.71
-29.12
-34.22
-40.26
-47.06
-53.89
-59.55
-62.61
-61.89
-56.88
-47.88
-35.94
-22.48
-8.87
3.89
15.20
24.84
32.71
38.72
42.81
44.93
45.23
44.00
41.71
38.91
36.04
33.42
31.13
29.11
27.19
25.29
23.39
21.54
19.72
17.78
15.42
12.33
8.41
3.82
-1.01
-5.58
-9.53
-12.83
-15.78
-18.91
-22.73
-27.53
-33.22
-39.28
-44.80
-48.75
-50.09
-48.14
-42.73
-34.24
-23.55
-11.80
-0.15
10.52
19.70
27.21
33.03
37.17
39.64
40.48
39.92
38.36
36.30
34.17
32.19
30.34
28.47
26.48
24.41
22.41
20.60
18.97
17.26
15.17
12.39
8.82
4.55
-0.17
-5.08
-9.97
-14.77
-19.55
-24.46
-29.72
-35.60
-42.30
-49.76
-57.52
-64.62
-69.78
-71.70
-69.49
-63.01
-52.88
-40.29
-26.55
-12.87
-0.07
11.30
20.87
28.34
33.55
36.56
37.70
37.53
36.62
35.46
34.26
33.06
31.77
30.34
28.79
27.21
25.72
24.31
22.88
21.21
19.01
16.07
12.25
7.62
2.43
-3.02
-8.42
-13.58
-18.46
-23.16
-27.91
-33.02
-38.75
-45.21
-52.14
-58.85
-64.20
-66.90
-65.88
-60.62
-51.43
-39.28
-25.51
-11.46
1.78
13.45
23.08
30.42
35.40
38.14
39.00
38.49
37.18
35.59
34.05
32.74
31.63
30.64
29.66
28.67
27.69
26.67
25.49
23.92
21.70
18.66
14.87
10.56
6.06
1.63
-2.68
-6.94
-11.27
-15.80
-20.61
-25.81
-31.55
-37.84
-44.39
-50.44
-54.84
-56.31
-53.98
-47.66
-38.01
-26.28
-13.93
-2.20
8.05
16.36
22.51
26.40
28.01
27.49
25.21
21.80
18.01
14.51
11.75
9.85
8.65
7.86
7.24
6.69
6.30
6.18
6.41
6.83
7.12
6.84
5.66
3.49
0.55
-2.74
-5.93
-8.74
-11.18
-13.55
-16.36
-20.11
-25.18
-31.71
-39.38
-47.49
-54.91
-60.35
-62.59
-60.88
-55.19
-46.16
-34.92
-22.75
-10.76
0.29
9.96
18.07
24.64
29.86
34.14
38.00
41.92
46.03
50.09
53.46
55.55
56.12
55.48
54.41
53.66
53.61
54.01
54.19
53.37
51.07
47.27
42.44
37.17
31.97
27.14
22.57
17.95
12.80
6.63
-0.86
-9.78
-19.95
-30.93
-42.03
-52.32
-60.67
-66.01
-67.51
-64.84
-58.31
-48.71
-37.11
-24.56
-11.97
-0.09
10.47
19.18
25.74
30.18
32.85
34.43
35.69
37.42
40.18
44.12
48.77
53.00
55.23
54.10
49.07
40.95
31.71
23.82
19.27
18.79
21.60
25.81
29.19
29.96
27.29
21.31
12.97
3.51
-5.88
-14.38
-21.73
-28.09
-33.83
-39.21
-44.21
-48.54
-51.83
-53.73
-53.97
-52.26
-48.30
-41.87
-32.96
-21.85
-9.02
5.01
19.78
34.81
49.31
62.01
71.15
75.06
72.79
64.65
52.35
38.40
25.30
14.82
7.67
3.64
2.10
2.45
4.42
8.10
13.78
21.69
31.87
43.91
56.87
69.51
80.47
88.82
94.31
97.47
99.33
101.09
103.66
107.36
111.87
116.30
119.31
119.35
114.93
105.01
89.44
69.18
46.12
22.43
-0.19
-21.09
-40.70
-60.11
-80.46
-102.23
-124.99
-147.59
-168.53
-186.29
-199.46
-206.61
-206.35
-197.68
-180.49
-156.23
-128.02
-100.05
-76.45
-60.00
-51.35
-49.07
-50.60
-53.35
-55.59
-56.74
-56.95
-56.62
-56.05
-55.38
-54.85
-54.88
-56.18
-59.42
-64.90
-72.14
-79.87
-86.20
-89.26
-87.72
-81.36
-71.09
-58.57
-45.59
-33.36
-22.28
-12.04
-2.08
7.89
17.61
26.36
33.37
38.15
40.79
41.81
41.94
41.80
41.68
41.59
41.34
40.85
40.18
39.54
39.13
39.05
39.11
38.93
37.99
35.80
32.13
27.06
21.00
14.59
8.52
3.36
-0.70
-3.81
-6.48
-9.42
-13.39
-18.88
-26.03
-34.46
-43.23
-51.00
-56.30
-57.99
-55.55
-49.34
-40.41
-30.13
-19.67
-9.59
0.15
9.91
19.85
29.60
38.25
44.77
48.50
49.50
48.61
46.96
45.59
44.94
44.94
45.11
45.01
44.33
43.10
41.44
39.48
37.23
34.57
31.31
27.29
22.51
17.08
11.31
5.55
0.13
-4.79
-9.28
-13.65
-18.40
-24.03
-30.90
-39.04
-48.13
-57.35
-65.55
-71.38
-73.66
-71.68
-65.39
-55.43
-42.86
-28.88
-14.57
-0.68
12.19
23.63
33.19
40.53
45.53
48.34
49.46
49.53
49.19
48.78
48.41
47.91
47.01
45.48
43.29
40.54
37.49
34.38
31.38
28.44
25.34
21.76
17.47
12.46
6.97
1.42
-3.78
-8.45
-12.72
-17.00
-21.79
-27.59
-34.66
-42.99
-52.19
-61.46
-69.60
-75.26
-77.22
-74.76
-67.90
-57.41
-44.54
-30.62
-16.73
-3.56
8.49
19.12
28.00
34.85
39.52
42.12
43.04
42.86
42.16
41.34
40.64
40.06
39.45
38.64
37.48
35.92
33.95
31.60
28.81
25.43
21.33
16.44
10.88
4.91
-1.15
-7.08
-12.89
-18.85
-25.37
-32.82
-41.42
-50.96
-60.84
-70.00
-77.11
-80.92
-80.52
-75.65
-66.76
-54.84
-41.10
-26.70
-12.53
0.75
12.68
22.88
31.02
37.01
40.98
43.34
44.65
45.41
45.96
46.36
46.54
46.42
45.96
45.21
44.18
42.84
41.10
38.92
36.29
33.23
29.67
25.44
20.31
14.06
6.70
-1.50
-10.12
-18.77
-27.24
-35.50
-43.54
-51.15
-57.81
-62.67
-64.86
-63.63
-58.56
-49.68
-37.35
-22.28
-5.53
11.53
27.28
40.18
49.08
53.49
53.64
50.33
44.60
37.48
29.82
22.19
14.71
7.05
-1.44
-11.39
-22.91
-35.19
-46.55
-55.03
-59.20
-58.73
-54.32
-46.94
-37.01
-24.06
-7.20
13.78
37.56
61.17
80.99
94.28
100.42
101.33
100.55
101.80
107.46
117.77
131.03
144.41
155.14
161.37
162.55
159.34
153.12
145.37
137.25
129.12
120.52
110.28
96.78
78.35
53.61
21.96
-15.97
-57.89
-99.84
-136.53
-162.45
-173.31
-167.40
-146.34
-114.84
-79.38
-46.34
-20.50
-4.33
1.74
-1.48
-12.47
-29.15
-48.37
-65.77
-76.32
-76.01
-63.68
-42.09
-17.32
3.41
14.38
13.37
1.82
-16.40
-36.86
-55.92
-71.16
-80.96
-84.13
-80.00
-68.82
-52.21
-33.01
-14.51
0.67
11.35
17.87
21.61
24.10
26.39
28.64
30.36
30.96
30.06
27.84
24.81
21.55
18.38
15.24
11.85
7.90
3.34
-1.67
-6.89
-12.22
-17.74
-23.73
-30.36
-37.67
-45.36
-52.93
-59.80
-65.46
-69.59
-72.14
-73.37
-73.85
-74.37
-75.80
-78.80
-83.57
-89.63
-95.80
-100.44
-101.91
-99.07
-91.63
-80.12
-65.74
-49.85
-33.63
-17.86
-3.01
10.64
22.76
32.97
40.92
46.49
49.87
51.57
52.25
52.52
52.70
52.86
52.80
52.38
51.57
50.46
49.21
47.78
45.95
43.31
39.46
34.20
27.66
20.21
12.40
4.72
-2.49
-9.12
-15.30
-21.41
-27.89
-35.18
-43.46
-52.50
-61.47
-69.07
-73.79
-74.38
-70.25
-61.62
-49.50
-35.33
-20.60
-6.47
6.30
17.30
26.33
33.25
37.93
40.40
40.91
39.87
37.86
35.39
32.86
30.45
28.31
26.56
25.30
24.56
24.09
23.40
21.81
18.80
14.22
8.42
2.14
-3.80
-8.84
-12.93
-16.45
-20.11
-24.59
-30.29
-37.20
-44.88
-52.54
-59.13
-63.64
-65.15
-63.14
-57.53
-48.70
-37.38
-24.39
-10.46
3.86
18.17
32.02
44.84
55.91
64.55
70.26
72.93
72.75
70.20
65.88
60.43
54.45
48.42
42.63
37.25
32.25
27.54
23.02
18.60
14.24
9.78
5.04
-0.13
-5.77
-11.72
-17.64
-23.22
-28.30
-33.09
-38.08
-43.83
-50.70
-58.46
-66.29
-72.82
-76.53
-76.22
-71.36
-62.19
-49.59
-34.73
-18.79
-2.80
12.47
26.35
38.32
48.01
55.25
60.16
63.12
64.66
65.32
65.42
65.07
64.22
62.81
60.87
58.58
56.21
54.10
52.39
50.94
49.35
47.05
43.66
39.02
33.32
27.01
20.81
15.30
10.66
6.52
2.08
-3.59
-11.24
-21.06
-32.50
-43.95
-53.39
-59.06
-60.06
-56.34
-48.58
-37.90
-25.70
-13.36
-1.21
10.70
22.19
32.69
41.55
48.47
53.47
56.82
58.82
60.96
64.58
70.04
76.54
82.82
87.92
91.28
92.60
91.79
90.78
92.13
97.73
107.95
121.73
137.09
151.55
162.75
159.16
134.77
93.00
45.52
4.09
-26.13
-46.60
-61.63
-75.08
-88.12
-99.61
-107.08
-109.07
-106.16
-100.39
-94.04
-88.84
-85.85
-83.98
-81.13
-75.16
-65.21
-52.24
-38.29
-25.28
-14.21
-5.03
3.17
12.15
23.34
36.81
51.04
63.85
73.46
79.22
81.54
81.49
80.40
79.21
77.89
75.47
70.57
61.92
48.53
29.72
5.18
-24.58
-57.65
-90.77
-119.88
-141.49
-153.87
-157.70
-155.53
-150.21
-143.34
-134.34
-121.11
-101.75
-76.30
-47.62
-20.74
-1.06
7.58
4.15
-9.24
-28.18
-47.21
-61.46
-67.87
-65.97
-57.75
-46.75
-36.60
-29.74
-26.68
-26.35
-27.12
-27.92
-28.75
-30.41
-33.44
-37.36
-40.61
-41.32
-38.57
-33.13
-27.26
-23.70
-24.28
-28.99
-35.93
-42.29
-45.65
-45.13
-41.54
-36.92
-33.45
-32.53
-34.42
-38.46
-43.64
-49.04
-54.09
-58.31
-61.10
-61.65
-59.07
-52.76
-42.73
-29.73
-15.01
0.01
14.09
26.41
36.56
44.45
50.16
53.90
55.92
56.59
56.35
55.69
55.02
54.53
54.22
53.89
53.38
52.59
51.63
50.66
49.80
49.05
48.19
46.95
45.02
42.09
37.94
32.47
25.77
18.20
10.27
2.52
-4.72
-11.51
-18.28
-25.59
-33.81
-42.76
-51.62
-59.06
-63.66
-64.31
-60.62
-52.92
-42.17
-29.56
-16.18
-2.88
9.78
21.40
31.55
39.76
45.64
49.06
50.30
50.01
49.07
48.31
48.19
48.77
49.68
50.44
50.59
50.01
48.79
47.20
45.39
43.26
40.48
36.59
31.37
24.96
17.92
11.00
4.79
-0.47
-5.05
-9.56
-14.73
-21.09
-28.89
-37.96
-47.76
-57.42
-65.82
-71.72
-73.98
-71.89
-65.39
-55.12
-42.25
-28.11
-13.88
-0.32
12.12
23.21
32.75
40.53
46.29
49.93
51.51
51.31
49.78
47.47
44.93
42.64
40.93
39.92
39.44
39.09
38.36
36.82
34.26
30.76
26.57
21.98
17.14
12.10
6.76
1.05
-5.08
-11.66
-18.81
-26.69
-35.42
-44.85
-54.32
-62.66
-68.40
-70.24
-67.52
-60.47
-50.11
-37.88
-25.15
-12.87
-1.53
8.63
17.43
24.56
29.75
32.91
34.25
34.31
33.70
32.90
32.11
31.30
30.37
29.30
28.19
27.21
26.45
25.74
24.72
22.90
19.85
15.40
9.78
3.49
-2.84
-8.69
-13.87
-18.55
-23.21
-28.41
-34.62
-41.97
-50.11
-58.19
-64.99
-69.15
-69.54
-65.62
-57.54
-46.21
-32.92
-18.99
-5.40
7.35
19.16
30.03
39.84
48.27
54.87
59.34
61.68
62.27
61.67
60.44
58.89
56.98
54.55
51.43
47.67
43.56
39.47
35.63
32.00
28.13
23.44
17.43
10.00
1.62
-6.91
-14.70
-21.22
-26.57
-31.44
-36.74
-43.21
-51.12
-60.14
-69.70
-79.25
-88.34
-96.40
-102.42
-105.17
-103.58
-97.45
-87.52
-75.03
-61.00
-45.68
-28.65
-9.57
10.97
31.29
49.16
63.00
72.65
79.44
85.28
91.45
97.84
103.00
104.91
101.79
92.68
77.29
56.10
30.04
0.49
-30.43
-60.06
-85.43
-103.96
-114.11
-116.08
-111.87
-104.76
-98.21
-94.52
-94.17
-95.60
-96.16
-93.41
-86.26
-75.62
-63.95
-54.27
-48.66
-47.45
-48.98
-50.41
-48.97
-43.08
-32.93
-20.16
-6.89
5.55
17.38
30.23
46.15
66.04
88.76
111.08
128.80
138.22
137.63
128.05
113.02
97.83
88.23
89.04
102.60
127.45
157.72
184.17
196.94
189.34
160.95
118.45
73.45
38.14
20.75
22.69
38.76
59.86
76.87
83.73
78.80
64.07
43.09
18.83
-7.41
-35.76
-66.51
-98.69
-129.25
-153.85
-168.22
-169.90
-159.07
-138.06
-109.98
-77.47
-42.16
-5.41
30.96
64.44
92.59
114.04
128.76
137.58
141.26
139.98
133.64
122.68
108.68
94.21
81.79
72.73
66.70
62.08
57.11
50.81
43.36
35.66
28.52
22.31
16.86
11.62
6.00
-0.50
-7.89
-15.76
-23.52
-30.98
-38.82
-48.53
-61.69
-79.10
-99.90
-121.46
-140.15
-152.51
-156.44
-151.69
-139.73
-123.07
-104.34
-85.57
-67.92
-51.74
-36.94
-23.46
-11.39
-1.02
7.39
13.81
18.45
21.71
23.90
25.16
25.41
24.56
22.65
19.99
17.05
14.34
12.14
10.46
8.98
7.22
4.70
1.04
-3.85
-9.84
-16.57
-23.62
-30.64
-37.48
-44.26
-51.28
-58.95
-67.51
-76.83
-86.21
-94.49
-100.23
-102.18
-99.62
-92.55
-81.62
-67.79
-51.96
-34.77
-16.56
2.42
21.72
40.58
57.93
72.66
83.92
91.41
95.45
96.85
96.63
95.64
94.34
92.76
90.64
87.79
84.21
80.17
76.08
72.20
68.61
65.10
61.40
57.31
52.82
48.02
42.89
37.20
30.42
21.94
11.23
-1.83
-16.89
-33.00
-48.77
-62.55
-72.78
-78.21
-78.25
-73.08
-63.58
-51.16
-37.45
-23.93
-11.70
-1.37
6.90
13.34
18.32
22.24
25.36
27.79
29.54
30.59
30.95
30.74
30.12
29.27
28.32
27.28
26.06
24.37
21.85
18.13
13.00
6.51
-1.05
-9.22
-17.58
-25.86
-34.07
-42.41
-51.18
-60.59
-70.59
-80.81
-90.58
-98.94
-104.88
-107.51
-106.26
-100.96
-91.91
-79.82
-65.58
-50.25
-34.97
-20.92
-9.29
-1.04
3.28
3.87
1.67
-1.89
-5.33
-7.82
-9.51
-11.56
-15.69
-23.36
-34.97
-49.31
-63.52
-73.53
-75.11
-65.16
-42.95
-10.94
25.40
58.70
81.87
90.29
83.49
65.17
41.71
19.66
3.27
-6.59
-11.96
-15.93
-20.71
-26.42
-31.32
-32.88
-29.05
-18.92
-2.69
18.73
44.06
71.67
99.41
124.65
144.71
157.55
162.45
160.24
152.99
143.35
133.76
125.96
120.73
118.03
117.27
117.62
118.30
118.76
118.64
117.71
115.67
112.11
106.53
98.42
87.40
73.23
55.99
36.12
14.48
-7.78
-29.52
-50.01
-69.18
-87.55
-105.82
-124.28
-142.29
-158.37
-170.61
-177.40
-178.07
-173.10
-163.88
-152.14
-139.53
-127.29
-116.19
-106.63
-98.68
-92.16
-86.68
-81.73
-76.79
-71.50
-65.80
-59.94
-54.44
-49.86
-46.59
-44.41
-42.29
-38.35
-30.46
-17.03
2.10
25.22
49.06
69.86
84.66
92.21
93.07
88.99
81.90
73.06
62.88
51.18
37.67
22.38
5.81
-11.11
-27.15
-40.95
-51.31
-57.36
-58.82
-56.05
-50.06
-42.31
-34.33
-27.30
-21.75
-17.34
-12.90
-6.76
2.66
16.18
33.29
52.13
69.86
83.50
90.92
91.49
86.32
77.87
69.23
63.03
60.79
62.54
67.14
72.80
77.65
80.10
78.87
72.95
61.79
45.58
25.63
4.29
-15.59
-31.73
-43.12
-50.24
-54.24
-56.01
-55.29
-50.83
-41.11
-25.49
-4.68
19.54
45.12
70.33
93.64
113.06
125.53
127.22
114.94
87.86
48.66
3.18
-41.43
-79.17
-106.81
-124.29
-133.53
-136.92
-136.25
-132.46
-126.17
-118.23
-109.88
-102.30
-96.19
-91.41
-87.20
-82.63
-77.15
-70.80
-64.26
-58.54
-54.66
-53.35
-54.90
-59.06
-65.21
-72.39
-79.54
-85.48
-88.99
-88.96
-84.56
-75.62
-62.76
-47.41
-31.42
-16.57
-4.01
5.91
13.61
19.85
25.35
30.63
35.90
41.23
46.62
51.97
56.94
60.85
62.79
61.96
58.06
51.61
43.87
36.40
30.57
27.33
27.26
30.67
37.29
45.91
54.28
59.59
59.76
54.54
45.90
37.07
30.85
28.24
28.18
28.61
27.97
26.07
23.76
21.88
20.52
19.31
18.42
19.32
24.37
35.23
51.24
68.95
83.17
89.17
84.76
71.04
51.45
29.98
9.33
-9.62
-27.23
-44.05
-60.01
-74.03
-84.47
-89.42
-86.97
-75.90
-56.35
-30.30
-1.60
25.07
45.57
57.59
61.08
57.55
48.90
36.69
22.12
6.59
-7.85
-18.88
-25.05
-26.66
-25.75
-25.05
-26.25
-29.11
-31.56
-30.75
-24.59
-12.74
3.34
20.89
36.85
48.99
56.29
58.95
57.99
54.56
49.49
43.19
35.71
26.82
16.04
2.45
-14.96
-36.49
-60.82
-84.56
-103.07
-112.40
-111.30
-102.13
-89.99
-80.38
-76.61
-78.72
-84.14
-89.68
-93.31
-94.76
-94.71
-93.43
-90.09
-83.17
-71.71
-56.34
-39.38
-24.02
-12.90
-7.09
-5.83
-6.99
-8.12
-7.33
-3.92
1.66
8.10
13.86
17.68
18.96
17.90
15.24
11.91
8.70
6.15
4.52
3.91
4.31
5.55
7.37
9.33
11.02
12.07
12.23
11.27
9.02
5.36
0.31
-5.92
-12.91
-20.01
-26.43
-31.32
-33.88
-33.50
-29.97
-23.56
-14.90
-4.92
5.50
15.69
25.17
33.67
41.00
46.96
51.43
54.42
56.03
56.42
55.76
54.19
51.86
48.98
45.83
42.69
39.72
36.95
34.21
31.26
27.90
24.00
19.59
14.71
9.45
3.83
-2.17
-8.63
-15.67
-23.48
-32.20
-41.79
-51.92
-61.83
-70.46
-76.66
-79.55
-78.79
-74.65
-67.95
-59.72
-50.91
-42.21
-34.03
-26.71
-20.51
-15.69
-12.34
-10.30
-9.04
-7.77
-5.67
-2.06
3.43
10.89
20.15
30.91
42.80
55.36
68.00
80.11
91.02
100.23
107.46
112.77
116.48
119.10
121.01
122.21
122.35
120.75
116.95
111.04
103.96
97.45
93.68
94.66
101.77
115.40
134.89
158.56
183.92
208.01
227.96
241.57
247.91
247.38
241.41
231.62
219.01
203.61
184.62
161.11
132.73
100.09
64.69
28.42
-7.03
-40.55
-71.86
-101.56
-130.85
-161.12
-193.25
-226.94
-260.36
-290.53
-314.11
-328.60
-333.06
-328.20
-315.90
-298.42
-277.78
-255.60
-233.37
-212.52
-194.40
-179.93
-169.11
-160.84
-153.15
-143.76
-130.84
-113.60
-92.51
-69.03
-45.11
-22.50
-2.35
14.96
29.55
41.72
51.55
58.81
63.10
64.16
62.14
57.77
52.10
46.27
41.19
37.30
34.66
33.08
32.27
31.96
31.83
31.61
30.91
29.40
26.89
23.43
19.44
15.55
12.54
10.95
10.98
12.19
13.71
14.39
13.20
9.55
3.51
-4.07
-11.83
-18.09
-21.34
-20.60
-15.70
-7.26
3.48
15.09
26.35
36.42
44.93
51.79
56.98
60.48
62.29
62.53
61.48
59.59
57.30
54.89
52.40
49.68
46.53
42.89
38.88
34.79
30.95
27.52
24.45
21.52
18.38
14.83
10.78
6.32
1.60
-3.32
-8.64
-14.65
-21.73
-29.94
-38.84
-47.41
-54.21
-57.77
-57.12
-52.08
-43.34
-32.27
-20.35
-8.82
1.55
10.48
17.92
23.86
28.17
30.77
31.63
31.04
29.45
27.47
25.60
24.12
23.09
22.42
21.92
21.42
20.75
19.75
18.20
15.94
12.84
8.87
4.15
-1.09
-6.60
-12.16
-17.66
-23.20
-29.00
-35.38
-42.53
-50.37
-58.36
-65.52
-70.58
-72.30
-69.88
-63.20
-52.85
-39.92
-25.66
-11.12
3.01
16.32
28.55
39.40
48.47
55.40
59.95
62.10
62.06
60.15
56.78
52.30
47.17
41.82
36.71
32.16
28.32
25.07
22.08
18.98
15.47
11.45
7.06
2.52
-1.92
-6.10
-10.01
-13.76
-17.55
-21.68
-26.47
-32.18
-38.84
-46.17
-53.39
-59.31
-62.57
-62.07
-57.30
-48.63
-37.17
-24.47
-12.08
-1.16
7.67
14.31
18.99
22.08
23.98
25.00
25.42
25.44
25.21
24.72
23.85
22.39
20.16
17.09
13.40
9.45
5.70
2.45
-0.29
-2.87
-5.77
-9.38
-13.76
-18.53
-23.09
-26.84
-29.49
-31.15
-32.32
-33.72
-36.07
-39.89
-45.25
-51.66
-58.06
-62.99
-64.90
-62.62
-55.75
-44.81
-31.03
-15.98
-1.14
12.49
24.35
34.30
42.37
48.70
53.49
57.02
59.63
61.61
63.04
63.81
63.60
62.15
59.38
55.57
51.26
47.09
43.42
40.28
37.23
33.61
28.84
22.69
15.41
7.60
0.02
-6.79
-12.59
-17.58
-22.17
-26.86
-32.09
-38.16
-45.15
-52.80
-60.47
-67.09
-71.37
-72.13
-68.67
-61.05
-50.05
-36.97
-23.19
-9.91
2.04
12.19
20.27
26.16
29.90
31.69
31.93
31.13
29.77
28.23
26.67
25.12
23.58
22.09
20.81
19.86
19.29
18.92
18.40
17.33
15.35
12.30
8.29
3.66
-1.13
-5.64
-9.63
-13.12
-16.48
-20.31
-25.19
-31.43
-38.76
-46.22
-52.35
-55.51
-54.49
-48.83
-38.99
-26.18
-11.92
2.34
15.49
26.81
35.83
42.27
46.01
47.25
46.51
44.61
42.46
40.75
39.77
39.38
39.18
38.77
37.99
36.91
35.73
34.60
33.48
32.16
30.34
27.91
24.93
21.62
18.23
14.84
11.33
7.39
2.70
-3.01
-9.78
-17.40
-25.26
-32.37
-37.46
-39.20
-36.65
-29.51
-18.39
-4.61
10.17
24.34
36.71
46.55
53.54
57.57
58.74
57.35
53.93
49.24
44.19
39.53
35.74
32.97
31.02
29.61
28.44
27.43
26.65
26.23
26.25
26.56
26.84
26.63
25.50
23.24
19.91
15.87
11.60
7.59
4.06
0.97
-2.18
-6.12
-11.69
-19.40
-29.11
-39.81
-49.75
-56.86
-59.47
-56.93
-49.81
-39.70
-28.65
-18.46
-10.26
-4.41
-0.82
0.79
0.57
-1.36
-4.84
-9.48
-14.66
-19.73
-24.22
-28.04
-31.43
-34.86
-38.69
-42.90
-47.05
-50.37
-52.08
-51.71
-49.37
-45.76
-41.93
-38.91
-37.35
-37.34
-38.45
-40.09
-41.71
-43.03
-44.13
-45.40
-47.36
-50.40
-54.58
-59.54
-64.48
-68.21
-69.42
-66.95
-60.24
-49.51
-35.70
-20.09
-3.99
11.47
25.66
38.43
49.88
59.97
68.42
74.92
79.47
82.50
84.37
85.73
87.37
89.70
92.21
93.54
92.09
86.95
78.17
65.80
50.83
35.04
20.45
8.23
-1.62
-9.73
-16.63
-22.77
-29.99
-39.13
-49.17
-57.53
-61.69
-60.86
-56.44
-51.57
-50.68
-59.77
-81.71
-114.42
-151.71
-186.57
-214.49
-234.01
-245.79
-237.15
-202.62
-147.89
-87.02
-32.75
8.45
34.67
45.12
43.21
31.98
12.27
-13.97
-42.75
-68.73
-84.45
-85.43
-70.37
-41.04
-2.39
37.48
71.50
95.93
110.79
118.30
120.54
119.03
114.89
108.60
99.84
89.08
77.79
67.84
60.21
54.16
47.95
40.02
29.47
16.33
2.07
-10.66
-19.04
-21.15
-16.89
-7.66
4.40
17.10
28.72
38.55
46.78
53.95
60.35
65.54
68.71
69.10
66.54
61.68
55.93
50.89
47.74
46.83
47.51
48.55
48.62
46.82
42.89
37.33
31.11
25.45
21.48
19.99
21.12
24.11
27.38
28.75
26.25
18.96
7.77
-4.48
-13.63
-15.52
-7.36
11.18
37.76
68.13
97.40
121.38
137.47
144.91
144.32
137.04
124.51
107.98
88.67
67.86
47.00
27.44
9.98
-5.38
-19.37
-32.90
-46.41
-59.35
-70.28
-77.46
-79.78
-77.37
-71.79
-65.44
-60.72
-59.21
-61.25
-66.14
-72.55
-79.26
-85.67
-91.93
-98.90
-107.65
-118.94
-132.57
-147.19
-160.30
-168.96
-170.66
-164.19
-149.99
-129.96
-106.66
-82.54
-59.33
-37.99
-19.06
-2.98
9.83
19.07
24.84
27.83
29.13
29.86
30.81
32.30
34.20
36.22
38.07
39.75
41.36
43.08
44.83
46.28
46.85
45.91
43.09
38.44
32.49
26.00
19.68
13.88
8.48
3.02
-3.13
-10.44
-19.05
-28.66
-38.47
-47.27
-53.63
-56.21
-54.15
-47.37
-36.64
-23.44
-9.53
3.55
14.70
23.46
29.79
33.97
36.39
37.53
37.91
38.06
38.41
39.16
40.26
41.45
42.41
42.84
42.56
41.45
39.37
36.15
31.69
26.13
19.99
14.13
9.48
6.70
5.83
6.27
7.05
7.23
6.32
4.31
1.50
-1.76
-5.26
-8.94
-12.62
-15.91
-18.26
-19.31
-19.12
-18.37
-17.97
-18.52
-19.92
-21.27
-21.39
-19.42
-15.28
-9.66
-3.62
2.10
7.35
12.45
17.83
23.54
29.13
33.83
37.07
38.70
39.09
38.82
38.27
37.45
36.00
33.50
29.74
24.98
19.82
15.01
11.15
8.46
6.86
6.03
5.66
5.46
5.29
5.06
4.74
4.36
4.02
3.74
3.41
2.72
1.15
-1.91
-6.86
-13.74
-22.10
-31.04
-39.44
-46.19
-50.51
-52.01
-50.71
-46.97
-41.30
-34.28
-26.47
-18.32
-10.21
-2.36
5.14
12.29
19.05
25.35
31.01
35.74
39.31
41.56
42.44
42.02
40.40
37.75
34.33
30.45
26.50
22.83
19.69
17.10
14.97
13.05
11.12
9.03
6.71
4.13
1.31
-1.76
-5.14
-8.96
-13.43
-18.80
-25.22
-32.53
-40.04
-46.57
-50.67
-51.07
-47.19
-39.34
-28.63
-16.51
-4.34
6.95
16.87
25.17
31.68
36.26
38.88
39.73
39.25
38.00
36.43
34.80
33.10
31.22
29.04
26.64
24.23
22.07
20.31
18.85
17.33
15.27
12.31
8.37
3.74
-1.15
-5.91
-10.41
-14.86
-19.62
-25.00
-31.07
-37.66
-44.37
-50.57
-55.51
-58.30
-58.09
-54.25
-46.64
-35.76
-22.71
-8.89
4.32
15.86
25.16
32.10
36.79
39.49
40.43
39.82
37.89
34.99
31.52
27.97
24.70
21.88
19.42
17.14
14.79
12.26
9.58
6.85
4.16
1.50
-1.19
-3.99
-6.93
-10.01
-13.25
-16.74
-20.73
-25.45
-30.97
-37.02
-42.83
-47.26
-49.07
-47.32
-41.70
-32.66
-21.33
-9.12
2.61
12.91
21.27
27.55
31.82
34.24
34.98
34.28
32.48
29.98
27.18
24.41
21.92
19.85
18.21
16.88
15.66
14.23
12.33
9.76
6.56
2.89
-1.02
-4.99
-8.95
-12.92
-17.00
-21.29
-25.93
-31.01
-36.52
-42.22
-47.51
-51.49
-53.12
-51.55
-46.43
-38.03
-27.26
-15.30
-3.40
7.43
16.51
23.44
28.07
30.44
30.79
29.52
27.21
24.38
21.52
18.90
16.61
14.63
12.85
11.22
9.70
8.27
6.85
5.34
3.59
1.54
-0.86
-3.59
-6.56
-9.73
-13.08
-16.70
-20.74
-25.44
-30.92
-36.99
-43.03
-47.99
-50.67
-50.07
-45.82
-38.24
-28.31
-17.25
-6.17
4.06
12.88
19.92
24.92
27.81
28.75
28.14
26.51
24.39
22.16
20.05
18.16
16.61
15.50
14.91
14.75
14.80
14.67
13.97
12.46
10.10
7.06
3.68
0.26
-2.99
-6.12
-9.39
-13.21
-17.87
-23.50
-29.81
-36.21
-41.88
-45.89
-47.41
-45.86
-41.05
-33.17
-22.83
-10.96
1.39
13.18
23.56
31.94
37.97
41.54
42.85
42.27
40.40
38.00
35.85
34.63
34.79
36.29
38.64
40.90
41.89
40.57
36.38
29.37
20.18
9.76
-0.94
-11.17
-20.43
-28.42
-34.89
-39.70
-42.90
-44.81
-46.04
-47.35
-49.49
-52.97
-58.00
-64.29
-71.07
-77.10
-80.93
-81.22
-77.13
-68.62
-56.43
-41.88
-26.51
-11.65
1.69
12.93
21.80
28.18
32.18
34.04
34.26
33.43
32.18
30.93
29.84
28.81
27.60
26.04
24.19
22.31
20.72
19.56
18.74
17.83
16.38
13.99
10.61
6.49
2.05
-2.22
-6.06
-9.45
-12.66
-16.10
-20.17
-25.15
-30.99
-37.23
-43.11
-47.58
-49.60
-48.29
-43.26
-34.71
-23.51
-10.97
1.38
12.27
20.93
27.16
31.24
33.58
34.59
34.50
33.47
31.68
29.42
27.09
25.02
23.42
22.26
21.35
20.39
19.16
17.48
15.27
12.56
9.45
6.02
2.40
-1.38
-5.35
-9.62
-14.31
-19.56
-25.43
-31.77
-38.21
-44.02
-48.24
-49.87
-48.15
-42.84
-34.34
-23.63
-11.96
-0.54
9.69
18.20
24.74
29.31
32.05
33.20
33.10
32.15
30.74
29.15
27.59
26.09
24.61
23.12
21.51
19.68
17.53
14.98
12.05
8.81
5.36
1.76
-2.00
-5.98
-10.23
-14.80
-19.73
-25.09
-30.92
-37.12
-43.33
-48.76
-52.33
-52.90
-49.71
-42.66
-32.43
-20.26
-7.67
4.02
13.90
21.53
26.88
30.19
31.79
32.03
31.25
29.72
27.68
25.39
23.09
21.04
19.40
18.19
17.25
16.30
15.00
13.16
10.74
7.88
4.85
1.82
-1.13
-4.12
-7.37
-11.12
-15.60
-20.98
-27.29
-34.37
-41.72
-48.41
-53.27
-55.13
-53.17
-47.26
-38.00
-26.55
-14.25
-2.32
8.42
17.45
24.56
29.59
32.53
33.46
32.67
30.67
28.09
25.52
23.38
21.77
20.61
19.67
18.74
17.68
16.41
14.88
13.00
10.67
7.85
4.56
0.89
-3.00
-7.01
-11.10
-15.29
-19.68
-24.50
-29.94
-36.12
-42.80
-49.31
-54.54
-57.19
-56.22
-51.16
-42.36
-30.83
-17.95
-5.09
6.70
16.70
24.61
30.37
34.10
36.03
36.44
35.66
34.04
31.92
29.67
27.59
25.91
24.72
23.95
23.44
22.91
22.16
20.95
19.13
16.59
13.28
9.30
4.81
0.07
-4.66
-9.18
-13.41
-17.45
-21.52
-26.05
-31.48
-38.07
-45.59
-53.24
-59.61
-63.13
-62.53
-57.30
-47.87
-35.43
-21.58
-7.84
4.72
15.51
24.30
31.07
35.86
38.71
39.77
39.34
37.96
36.21
34.62
33.43
32.60
31.92
31.15
30.27
29.37
28.53
27.74
26.72
25.09
22.46
18.67
13.86
8.43
2.91
-2.23
-6.73
-10.66
-14.36
-18.39
-23.29
-29.43
-36.83
-45.08
-53.37
-60.55
-65.38
-66.73
-63.86
-56.67
-45.76
-32.31
-17.81
-3.70
8.94
19.48
27.74
33.80
37.88
40.20
41.03
40.70
39.59
38.11
36.64
35.41
34.46
33.66
32.75
31.51
29.84
27.78
25.48
23.04
20.43
17.54
14.23
10.43
6.21
1.71
-2.92
-7.58
-12.25
-16.97
-21.77
-26.79
-32.24
-38.37
-45.28
-52.62
-59.56
-64.76
-66.81
-64.67
-58.03
-47.48
-34.23
-19.85
-5.71
7.17
18.24
27.29
34.28
39.20
42.05
42.95
42.19
40.31
37.94
35.74
34.11
33.16
32.69
32.34
31.80
30.85
29.53
27.92
26.19
24.43
22.54
20.33
17.48
13.78
9.15
3.83
-1.81
-7.32
-12.37
-16.92
-21.17
-25.50
-30.32
-35.99
-42.62
-50.03
-57.55
-64.10
-68.32
-68.93
-65.15
-56.97
-45.22
-31.24
-16.56
-2.46
10.20
20.95
29.56
35.92
40.01
41.94
42.02
40.78
38.88
36.99
35.58
34.85
34.71
34.83
34.82
34.44
33.60
32.37
30.88
29.15
27.11
24.57
21.43
17.67
13.42
8.87
4.21
-0.46
-5.07
-9.65
-14.18
-18.68
-23.24
-28.05
-33.37
-39.52
-46.62
-54.41
-62.12
-68.39
-71.69
-70.64
-64.62
-53.96
-39.97
-24.42
-9.08
4.80
16.57
26.06
33.31
38.35
41.27
42.22
41.63
40.12
38.39
36.98
36.13
35.84
35.88
35.96
35.83
35.39
34.60
33.46
32.00
30.23
28.16
25.75
22.97
19.78
16.07
11.80
6.95
1.64
-3.88
-9.31
-14.35
-18.85
-22.91
-26.85
-31.11
-36.19
-42.39
-49.64
-57.41
-64.71
-70.17
-72.44
-70.55
-64.23
-53.99
-40.99
-26.69
-12.41
0.90
12.64
22.54
30.41
36.14
39.70
41.22
41.01
39.60
37.59
35.55
33.95
33.02
32.76
32.97
33.31
33.45
33.22
32.57
31.61
30.40
28.98
27.22
24.98
22.13
18.69
14.77
10.58
6.29
2.03
-2.19
-6.43
-10.73
-15.12
-19.58
-24.11
-28.80
-33.86
-39.44
-45.51
-51.67
-57.14
-60.89
-61.93
-59.59
-53.71
-44.73
-33.48
-21.05
-8.52
3.18
13.37
21.62
27.72
31.63
33.48
33.52
32.17
29.94
27.40
24.99
23.00
21.53
20.50
19.81
19.36
19.09
18.92
18.72
18.24
17.15
15.13
12.03
7.89
3.06
-2.03
-6.92
-11.32
-15.19
-18.69
-22.17
-26.09
-30.84
-36.64
-43.28
-50.06
-55.80
-59.09
-58.73
-54.09
-45.31
-33.33
-19.54
-5.41
7.86
19.42
28.79
35.74
40.24
42.41
42.66
41.54
39.73
37.82
36.23
35.08
34.27
33.55
32.65
31.41
29.82
28.02
26.19
24.41
22.59
20.43
17.60
13.80
9.01
3.48
-2.36
-8.07
-13.33
-18.08
-22.51
-26.96
-31.87
-37.63
-44.43
-52.11
-60.04
-67.15
-72.04
-73.35
-70.19
-62.39
-50.66
-36.34
-21.05
-6.22
7.16
18.59
27.88
34.96
39.84
42.58
43.46
42.98
41.81
40.52
39.48
38.74
38.09
37.29
36.19
34.76
33.11
31.41
29.74
28.18
26.66
25.02
22.96
20.12
16.20
11.12
5.12
-1.26
-7.39
-12.74
-17.22
-21.11
-25.09
-29.82
-35.81
-43.16
-51.50
-60.02
-67.58
-72.86
-74.64
-72.07
-64.94
-53.80
-39.87
-24.73
-9.92
3.45
14.80
24.02
31.25
36.62
40.21
42.09
42.46
41.74
40.54
39.42
38.73
38.45
38.29
37.84
36.87
35.36
33.54
31.62
29.74
27.77
25.46
22.52
18.81
14.39
9.46
4.29
-0.92
-5.99
-10.87
-15.57
-20.14
-24.71
-29.51
-34.87
-41.07
-48.30
-56.33
-64.44
-71.38
-75.66
-75.92
-71.45
-62.38
-49.76
-35.18
-20.25
-6.22
6.25
16.93
25.82
32.93
38.16
41.47
42.97
43.05
42.20
40.99
39.76
38.67
37.70
36.78
35.83
34.85
33.86
32.86
31.83
30.65
29.12
27.05
24.21
20.48
15.89
10.63
4.96
-0.79
-6.41
-11.73
-16.78
-21.71
-26.79
-32.40
-38.88
-46.34
-54.44
-62.24
-68.34
-71.18
-69.59
-63.14
-52.40
-38.66
-23.59
-8.66
5.11
17.23
27.48
35.76
41.92
45.82
47.49
47.21
45.57
43.28
41.03
39.23
37.97
37.10
36.24
35.09
33.50
31.58
29.51
27.43
25.28
22.72
19.37
14.95
9.61
3.81
-1.83
-6.82
-11.04
-14.72
-18.33
-22.35
-27.17
-33.01
-39.85
-47.39
-54.83
-61.01
-64.50
-64.11
-59.26
-50.24
-38.13
-24.41
-10.57
2.30
13.53
22.78
29.86
34.66
37.12
37.39
35.87
33.19
30.07
27.13
24.75
23.04
21.87
21.06
20.41
19.80
19.13
18.28
17.04
15.14
12.33
8.48
3.70
-1.71
-7.28
-12.58
-17.32
-21.48
-25.43
-29.74
-35.01
-41.53
-49.01
-56.50
-62.56
-65.62
-64.46
-58.55
-48.28
-34.82
-19.81
-4.85
8.76
20.28
29.46
36.31
40.90
43.31
43.67
42.29
39.80
36.97
34.54
32.86
31.85
31.09
30.13
28.76
27.04
25.18
23.23
20.97
17.99
13.94
8.83
3.03
-2.86
-8.36
-13.32
-17.92
-22.55
-27.60
-33.35
-39.93
-47.37
-55.46
-63.60
-70.66
-75.12
-75.47
-70.74
-60.95
-47.16
-31.19
-14.95
0.05
13.00
23.80
32.66
39.81
45.31
49.06
51.01
51.33
50.41
48.84
47.16
45.75
44.67
43.82
42.98
41.90
40.46
38.61
36.37
33.79
30.90
27.67
24.03
19.85
15.02
9.58
3.67
-2.41
-8.37
-13.99
-19.21
-24.20
-29.26
-34.79
-41.15
-48.51
-56.71
-65.10
-72.53
-77.55
-78.78
-75.29
-67.01
-54.70
-39.78
-23.85
-8.34
5.79
18.09
28.40
36.78
43.24
47.81
50.56
51.65
51.42
50.31
48.77
47.14
45.66
44.38
43.25
42.17
41.03
39.73
38.19
36.36
34.19
31.63
28.57
24.88
20.44
15.24
9.45
3.39
-2.53
-7.98
-12.84
-17.21
-21.34
-25.54
-30.08
-35.23
-41.20
-48.11
-55.82
-63.83
-71.14
-76.36
-78.07
-75.21
-67.46
-55.39
-40.36
-24.15
-8.42
5.66
17.53
27.23
34.98
41.01
45.35
47.97
48.92
48.48
47.15
45.51
43.97
42.76
41.84
41.10
40.42
39.67
38.73
37.46
35.70
33.39
30.52
27.19
23.50
19.55
15.33
10.83
6.03
0.96
-4.30
-9.61
-14.87
-19.95
-24.81
-29.49
-34.12
-39.01
-44.54
-51.04
-58.45
-66.18
-73.04
-77.47
-78.04
-73.89
-65.08
-52.59
-37.90
-22.57
-7.82
5.59
17.26
26.99
34.65
40.13
43.49
44.92
44.85
43.81
42.33
40.82
39.57
38.66
38.04
37.52
36.93
36.10
34.92
33.34
31.32
28.85
25.99
22.78
19.32
15.64
11.77
7.66
3.26
-1.40
-6.22
-11.02
-15.65
-20.02
-24.17
-28.20
-32.35
-36.89
-42.13
-48.30
-55.32
-62.70
-69.43
-74.14
-75.45
-72.38
-64.73
-53.06
-38.65
-23.09
-7.91
5.72
17.10
26.03
32.60
37.11
39.86
41.07
41.00
39.94
38.30
36.57
35.19
34.39
34.10
34.02
33.77
33.07
31.85
30.15
28.09
25.74
23.11
20.15
16.80
13.01
8.76
4.06
-0.95
-6.09
-11.09
-15.75
-19.99
-23.88
-27.63
-31.53
-35.90
-41.08
-47.21
-54.16
-61.30
-67.47
-71.22
-71.15
-66.52
-57.45
-44.97
-30.70
-16.32
-3.10
8.24
17.45
24.53
29.52
32.43
33.38
32.68
30.91
28.76
26.88
25.64
25.02
24.70
24.26
23.43
22.18
20.71
19.27
17.98
16.66
14.90
12.29
8.56
3.83
-1.45
-6.72
-11.49
-15.60
-19.27
-22.99
-27.32
-32.74
-39.35
-46.86
-54.43
-60.81
-64.62
-64.63
-60.26
-51.66
-39.81
-26.14
-12.16
0.92
12.35
21.80
29.23
34.66
38.12
39.65
39.44
37.88
35.55
33.10
31.05
29.63
28.74
28.03
27.14
25.84
24.16
22.30
20.49
18.79
17.04
14.85
11.85
7.78
2.72
-2.99
-8.79
-14.17
-18.85
-22.91
-26.80
-31.17
-36.67
-43.65
-51.90
-60.57
-68.22
-73.16
-73.96
-69.84
-61.02
-48.64
-34.35
-19.77
-6.08
6.17
16.82
25.86
33.12
38.35
41.37
42.32
41.72
40.37
38.99
38.03
37.50
37.04
36.24
34.83
32.85
30.57
28.31
26.31
24.44
22.35
19.53
15.57
10.37
4.18
-2.44
-8.84
-14.51
-19.24
-23.26
-27.05
-31.27
-36.48
-42.96
-50.55
-58.59
-65.93
-71.06
-72.55
-69.37
-61.32
-49.17
-34.49
-19.18
-4.86
7.44
17.45
25.37
31.51
36.04
38.93
40.12
39.74
38.25
36.31
34.62
33.58
33.22
33.23
33.12
32.50
31.23
29.47
27.52
25.65
23.95
22.21
20.06
17.05
12.94
7.77
1.86
-4.23
-9.98
-15.07
-19.48
-23.54
-27.78
-32.77
-38.95
-46.44
-54.86
-63.36
-70.60
-75.13
-75.64
-71.44
-62.64
-50.17
-35.51
-20.29
-5.87
6.89
17.61
26.24
32.87
37.59
40.48
41.68
41.53
40.51
39.22
38.15
37.51
37.23
36.95
36.27
34.96
33.03
30.74
28.40
26.18
24.07
21.78
19.02
15.57
11.44
6.86
2.13
-2.50
-6.90
-11.15
-15.39
-19.76
-24.42
-29.52
-35.24
-41.76
-49.08
-56.82
-64.09
-69.57
-71.85
-69.84
-63.21
-52.45
-38.80
-23.79
-8.87
4.88
16.83
26.69
34.31
39.66
42.78
43.88
43.37
41.87
40.06
38.50
37.51
37.09
37.01
36.94
36.57
35.75
34.42
32.68
30.60
28.30
25.79
23.01
19.85
16.19
12.00
7.39
2.57
-2.21
-6.75
-11.05
-15.22
-19.50
-24.19
-29.58
-35.86
-42.98
-50.53
-57.55
-62.70
-64.57
-62.11
-55.08
-44.17
-30.77
-16.52
-2.87
9.20
19.23
27.03
32.60
35.96
37.24
36.72
34.88
32.30
29.59
27.21
25.33
23.94
22.85
21.88
20.93
19.97
18.95
17.68
15.86
13.20
9.56
5.08
0.15
-4.72
-9.16
-13.06
-16.60
-20.12
-24.05
-28.75
-34.46
-41.11
-48.19
-54.70
-59.26
-60.46
-57.32
-49.69
-38.30
-24.60
-10.29
3.09
14.47
23.33
29.58
33.40
35.18
35.39
34.54
33.11
31.45
29.70
27.89
25.99
24.03
22.20
20.68
19.63
18.92
18.19
16.93
14.65
11.11
6.43
1.01
-4.65
-10.10
-15.12
-19.78
-24.35
-29.28
-34.99
-41.75
-49.47
-57.51
-64.68
-69.45
-70.39
-66.57
-58.00
-45.56
-30.80
-15.39
-0.75
12.22
23.08
31.61
37.77
41.53
43.06
42.79
41.37
39.52
37.80
36.40
35.23
34.00
32.47
30.57
28.41
26.16
23.92
21.61
18.98
15.69
11.50
6.40
0.63
-5.31
-10.89
-15.76
-19.94
-23.84
-28.15
-33.61
-40.63
-49.08
-58.18
-66.60
-72.69
-74.91
-72.26
-64.56
-52.53
-37.61
-21.52
-5.90
8.07
19.82
29.20
36.39
41.62
45.09
47.00
47.63
47.39
46.78
46.19
45.77
45.40
44.77
43.59
41.74
39.41
36.95
34.73
32.83
30.97
28.62
25.16
20.27
14.07
7.15
0.35
-5.64
-10.57
-14.80
-19.11
-24.41
-31.27
-39.74
-49.23
-58.61
-66.52
-71.58
-72.70
-69.36
-61.74
-50.65
-37.36
-23.22
-9.37
3.44
14.81
24.54
32.48
38.46
42.36
44.27
44.56
43.89
42.95
42.25
41.96
41.87
41.54
40.58
38.85
36.51
33.99
31.64
29.65
27.82
25.70
22.79
18.79
13.73
7.99
2.11
-3.45
-8.45
-13.00
-17.48
-22.44
-28.40
-35.62
-43.96
-52.74
-60.83
-66.76
-69.08
-66.79
-59.60
-48.12
-33.72
-18.10
-2.90
10.72
22.20
31.45
38.57
43.70
46.89
48.22
47.97
46.67
44.98
43.51
42.60
42.19
41.97
41.52
40.54
39.00
37.04
34.89
32.72
30.47
27.92
24.75
20.76
15.91
10.44
4.76
-0.76
-5.86
-10.51
-14.82
-19.00
-23.23
-27.73
-32.72
-38.50
-45.31
-53.05
-61.08
-68.14
-72.65
-73.10
-68.65
-59.40
-46.35
-31.10
-15.34
-0.45
12.68
23.63
32.30
38.76
43.10
45.53
46.34
45.93
44.76
43.34
42.05
41.10
40.51
40.11
39.66
38.93
37.76
36.09
33.95
31.40
28.48
25.27
21.78
18.03
13.92
9.34
4.23
-1.32
-7.04
-12.48
-17.22
-21.04
-24.13
-27.06
-30.57
-35.33
-41.56
-48.95
-56.55
-63.01
-66.84
-66.82
-62.28
-53.33
-40.85
-26.27
-11.17
3.12
15.75
26.35
34.84
41.23
45.51
47.67
47.93
46.78
45.03
43.55
42.99
43.63
45.23
47.26
49.09
50.30
50.80
50.81
50.70
50.80
51.24
51.88
52.39
52.43
51.71
50.01
47.22
43.24
38.03
31.60
24.04
15.39
5.63
-5.31
-17.34
-30.05
-42.43
-52.95
-59.86
-61.79
-58.22
-49.78
-38.04
-25.02
-12.56
-1.86
6.60
12.88
17.24
19.92
21.06
20.79
19.36
17.26
15.01
13.04
11.52
10.34
9.37
8.64
8.46
9.13
10.70
12.67
14.09
14.01
12.05
8.65
4.81
1.44
-1.33
-4.29
-8.68
-15.42
-24.50
-35.10
-46.15
-57.08
-67.99
-79.33
-91.17
-102.83
-113.04
-120.74
-125.66
-128.41
-129.99
-130.90
-130.59
-127.68
-120.72
-109.05
-93.38
-75.63
-58.07
-42.53
-29.77
-19.47
-10.67
-2.38
5.98
14.40
22.51
29.84
36.09
41.21
45.17
47.78
48.64
47.22
43.23
36.80
28.53
19.29
9.86
0.77
-7.85
-15.98
-23.55
-30.25
-35.60
-39.10
-40.55
-40.19
-38.69
-37.02
-36.22
-37.08
-39.91
-44.35
-49.42
-53.71
-55.72
-54.30
-48.91
-39.71
-27.54
-13.64
0.54
13.64
24.52
32.55
37.77
40.85
42.88
44.93
47.60
50.76
53.72
55.65
56.12
55.32
53.89
52.56
51.56
50.59
48.84
45.63
40.76
34.76
28.68
23.50
19.78
17.32
15.32
12.77
8.89
3.40
-3.45
-11.00
-18.51
-25.29
-30.86
-34.74
-36.45
-35.41
-31.20
-23.70
-13.29
-0.74
12.96
26.81
39.92
51.45
60.62
66.69
69.20
68.18
64.29
58.67
52.50
46.65
41.44
36.80
32.55
28.75
25.64
23.48
22.30
21.72
21.03
19.44
16.37
11.66
5.65
-0.93
-7.22
-12.47
-16.34
-18.95
-20.81
-22.64
-25.13
-28.71
-33.44
-38.95
-44.47
-48.94
-51.26
-50.50
-46.18
-38.39
-27.83
-15.63
-3.12
8.45
18.12
25.38
30.09
32.48
32.94
31.94
29.90
27.13
23.93
20.58
17.33
14.39
11.86
9.72
7.87
6.18
4.51
2.72
0.68
-1.78
-4.79
-8.39
-12.51
-16.97
-21.52
-25.94
-30.15
-34.27
-38.59
-43.54
-49.42
-56.21
-63.33
-69.67
-73.72
-74.04
-69.77
-60.94
-48.58
-34.33
-19.99
-6.96
3.96
12.55
18.99
23.56
26.52
28.06
28.39
27.78
26.55
25.03
23.48
22.06
20.86
19.84
18.95
18.11
17.24
16.27
15.08
13.52
11.37
8.46
4.77
0.43
-4.22
-8.81
-13.09
-17.10
-21.14
-25.67
-31.07
-37.34
-43.98
-49.96
-54.01
-54.90
-51.87
-44.88
-34.59
-22.21
-9.06
3.67
15.14
24.82
32.42
37.81
40.97
42.08
41.53
39.84
37.67
35.54
33.78
32.46
31.46
30.50
29.35
27.89
26.15
24.20
22.10
19.76
16.97
13.50
9.30
4.53
-0.44
-5.21
-9.51
-13.33
-16.88
-20.54
-24.72
-29.75
-35.75
-42.60
-49.71
-56.09
-60.44
-61.47
-58.32
-50.82
-39.58
-25.88
-11.23
2.86
15.21
25.12
32.34
36.96
39.34
39.94
39.23
37.66
35.60
33.31
31.04
28.92
27.02
25.35
23.91
22.70
21.66
20.69
19.57
18.05
15.86
12.90
9.25
5.17
0.96
-3.21
-7.34
-11.65
-16.38
-21.79
-27.97
-34.80
-41.85
-48.37
-53.32
-55.53
-54.08
-48.56
-39.36
-27.54
-14.57
-1.92
9.32
18.50
25.41
30.04
32.56
33.18
32.31
30.42
28.07
25.75
23.77
22.27
21.19
20.41
19.74
19.04
18.16
17.02
15.47
13.42
10.77
7.48
3.65
-0.54
-4.83
-8.97
-12.90
-16.72
-20.83
-25.68
-31.63
-38.54
-45.67
-51.75
-55.27
-54.99
-50.41
-41.92
-30.67
-18.17
-5.84
5.34
14.81
22.37
27.95
31.47
32.88
32.27
29.95
26.49
22.63
19.12
16.56
15.16
14.78
14.99
15.21
14.92
13.83
11.88
9.17
5.92
2.36
-1.36
-5.13
-8.94
-12.82
-16.92
-21.44
-26.60
-32.50
-39.01
-45.56
-51.23
-54.82
-55.19
-51.61
-44.01
-33.05
-19.96
-6.26
6.66
17.79
26.59
32.89
36.84
38.72
38.86
37.61
35.34
32.43
29.29
26.30
23.77
21.87
20.60
19.78
19.14
18.27
16.81
14.49
11.22
7.12
2.45
-2.45
-7.35
-12.20
-17.09
-22.26
-27.96
-34.30
-41.16
-48.02
-54.00
-58.00
-58.87
-55.85
-48.73
-38.06
-25.01
-11.05
2.44
14.42
24.30
31.92
37.29
40.60
42.05
41.97
40.74
38.78
36.49
34.15
31.96
29.95
28.11
26.35
24.60
22.75
20.71
18.38
15.67
12.53
8.89
4.77
0.25
-4.50
-9.25
-13.83
-18.22
-22.66
-27.60
-33.42
-40.15
-47.20
-53.37
-57.12
-57.10
-52.61
-43.96
-32.30
-19.24
-6.32
5.41
15.47
23.82
30.54
35.66
39.06
40.64
40.48
38.96
36.63
34.06
31.73
29.86
28.47
27.39
26.39
25.22
23.67
21.60
18.95
15.75
12.15
8.31
4.38
0.43
-3.70
-8.25
-13.58
-19.91
-27.18
-34.89
-42.07
-47.46
-49.81
-48.28
-42.69
-33.63
-22.24
-9.86
2.29
13.35
22.81
30.37
35.89
39.27
40.52
39.88
37.82
35.00
32.06
29.47
27.46
25.96
24.77
23.64
22.40
20.94
19.23
17.24
14.89
12.08
8.71
4.75
0.25
-4.63
-9.73
-14.99
-20.49
-26.29
-32.32
-38.13
-42.82
-45.25
-44.32
-39.47
-30.85
-19.42
-6.68
5.81
16.78
25.52
31.81
35.82
37.89
38.37
37.61
35.96
33.87
31.73
29.88
28.39
27.21
26.15
25.09
24.01
22.99
22.02
20.93
19.39
17.04
13.71
9.52
4.89
0.31
-3.86
-7.53
-10.91
-14.42
-18.50
-23.50
-29.56
-36.48
-43.63
-50.03
-54.44
-55.74
-53.19
-46.68
-36.83
-24.72
-11.68
1.07
12.57
22.19
29.53
34.50
37.11
37.68
36.70
34.84
32.78
31.02
29.77
28.94
28.24
27.36
26.13
24.56
22.82
21.10
19.52
18.07
16.60
14.87
12.67
9.84
6.39
2.40
-1.93
-6.42
-10.91
-15.33
-19.66
-23.98
-28.48
-33.40
-39.04
-45.42
-52.19
-58.41
-62.71
-63.71
-60.53
-53.08
-42.20
-29.29
-15.85
-3.10
8.21
17.74
25.38
31.09
34.84
36.73
36.95
35.96
34.29
32.50
30.99
29.99
29.41
28.98
28.32
27.11
25.28
22.99
20.56
18.25
16.09
13.87
11.24
7.97
4.09
-0.06
-4.05
-7.47
-10.24
-12.56
-14.85
-17.57
-21.13
-25.72
-31.32
-37.63
-44.07
-49.73
-53.55
-54.50
-51.87
-45.57
-36.17
-24.83
-12.91
-1.61
8.25
16.31
22.55
27.05
29.86
31.02
30.58
28.89
26.52
24.19
22.53
21.78
21.80
22.10
22.15
21.58
20.37
18.72
16.99
15.40
13.92
12.26
10.01
6.83
2.63
-2.33
-7.50
-12.29
-16.26
-19.38
-22.01
-24.81
-28.44
-33.30
-39.30
-45.87
-52.05
-56.72
-58.84
-57.69
-53.02
-45.09
-34.67
-22.77
-10.59
0.81
10.59
18.27
23.67
26.88
28.22
28.10
26.99
25.37
23.71
22.38
21.59
21.37
21.50
21.68
21.58
20.98
19.89
18.46
16.88
15.19
13.26
10.84
7.69
3.81
-0.53
-4.89
-8.83
-12.13
-14.95
-17.64
-20.75
-24.75
-29.92
-36.28
-43.45
-50.64
-56.73
-60.44
-60.69
-57.00
-49.58
-39.34
-27.60
-15.70
-4.69
4.74
12.29
17.81
21.30
22.92
23.02
22.13
20.88
19.81
19.18
19.00
19.02
18.92
18.49
17.70
16.69
15.69
14.85
14.15
13.41
12.32
10.59
8.05
4.75
0.95
-2.94
-6.55
-9.68
-12.36
-14.86
-17.59
-20.98
-25.36
-30.89
-37.41
-44.37
-50.77
-55.35
-56.87
-54.57
-48.46
-39.31
-28.43
-17.19
-6.64
2.66
10.56
17.02
21.95
25.20
26.66
26.47
25.09
23.19
21.40
20.15
19.49
19.18
18.86
18.21
17.16
15.85
14.55
13.42
12.43
11.31
9.65
7.09
3.54
-0.79
-5.42
-9.80
-13.52
-16.49
-18.98
-21.49
-24.63
-28.85
-34.34
-40.81
-47.55
-53.40
-57.06
-57.45
-53.95
-46.72
-36.63
-24.99
-13.16
-2.22
7.17
14.68
20.19
23.66
25.17
24.98
23.61
21.75
20.08
19.04
18.72
18.85
19.05
18.97
18.47
17.58
16.45
15.19
13.76
12.01
9.74
6.82
3.25
-0.81
-5.08
-9.33
-13.43
-17.42
-21.55
-26.18
-31.63
-37.98
-44.93
-51.66
-56.98
-59.60
-58.54
-53.44
-44.64
-33.19
-20.45
-7.78
3.78
13.60
21.45
27.31
31.23
33.29
33.67
32.72
30.95
29.02
27.45
26.50
26.12
26.02
25.82
25.32
24.43
23.21
21.69
19.83
17.53
14.67
11.21
7.25
2.97
-1.42
-5.69
-9.64
-13.21
-16.61
-20.27
-24.81
-30.72
-38.05
-46.12
-53.59
-58.74
-60.09
-56.79
-49.06
-37.96
-25.06
-11.93
0.30
11.06
20.21
27.74
33.69
37.96
40.51
41.40
40.98
39.78
38.39
37.26
36.56
36.21
35.98
35.63
35.03
34.21
33.22
32.09
30.71
28.87
26.34
22.98
18.85
14.16
9.20
4.26
-0.39
-4.67
-8.60
-12.37
-16.38
-21.10
-27.04
-34.36
-42.76
-51.33
-58.65
-63.18
-63.62
-59.39
-50.73
-38.71
-24.82
-10.61
2.67
14.24
23.81
31.36
37.04
40.97
43.26
44.14
43.90
43.01
41.99
41.27
41.07
41.33
41.79
42.02
41.73
40.74
39.13
37.16
35.11
33.15
31.14
28.78
25.61
21.34
16.00
10.00
3.96
-1.52
-6.15
-10.01
-13.51
-17.17
-21.44
-26.63
-32.84
-39.97
-47.67
-55.20
-61.46
-65.13
-65.04
-60.53
-51.76
-39.69
-25.80
-11.65
1.52
12.98
22.50
30.13
36.02
40.27
42.93
44.08
43.98
43.06
41.86
40.86
40.27
40.01
39.76
39.18
38.06
36.47
34.66
32.89
31.31
29.91
28.52
26.88
24.78
22.11
18.81
14.94
10.65
6.17
1.71
-2.50
-6.41
-10.04
-13.61
-17.39
-21.70
-26.87
-33.00
-39.93
-47.03
-53.18
-57.01
-57.22
-53.02
-44.49
-32.59
-18.90
-5.09
7.53
18.35
27.40
34.99
41.34
46.35
49.67
51.02
50.56
49.00
47.45
46.94
48.08
50.76
54.25
57.63
60.13
61.38
61.37
60.30
58.33
55.68
52.68
49.80
47.47
45.71
43.84
40.78
35.60
28.30
19.92
12.18
6.41
2.59
-0.94
-6.76
-16.86
-31.38
-48.04
-62.69
-70.77
-68.89
-56.06
-33.87
-6.09
22.41
46.74
63.07
69.28
65.16
52.26
33.36
11.75
-9.44
-27.69
-41.41
-49.88
-53.14
-51.84
-47.10
-40.40
-33.30
-27.34
-23.58
-22.58
-24.26
-28.06
-33.12
-38.56
-43.70
-48.14
-51.77
-54.65
-56.80
-58.21
-58.80
-58.66
-58.16
-57.91
-58.60
-60.57
-63.46
-66.16
-67.06
-64.67
-58.20
-48.02
-35.50
-22.51
-10.69
-0.88
6.94
13.39
19.06
24.10
28.19
30.83
31.68
30.91
29.15
27.17
25.57
24.49
23.79
23.14
22.23
20.87
18.99
16.64
13.87
10.76
7.39
3.78
-0.09
-4.19
-8.50
-12.88
-17.11
-21.01
-24.43
-27.34
-29.86
-32.27
-34.91
-38.19
-42.33
-47.28
-52.51
-56.98
-59.40
-58.55
-53.75
-45.12
-33.60
-20.63
-7.77
3.83
13.57
21.41
27.64
32.45
35.88
37.79
38.06
36.89
34.75
32.39
30.48
29.33
28.84
28.58
28.08
27.01
25.35
23.28
21.03
18.76
16.45
13.99
11.22
8.05
4.47
0.64
-3.22
-6.82
-9.99
-12.68
-15.06
-17.45
-20.22
-23.74
-28.18
-33.49
-39.24
-44.63
-48.55
-49.84
-47.58
-41.47
-31.95
-20.07
-7.28
5.12
16.21
25.58
33.26
39.42
44.25
47.78
49.96
50.82
50.54
49.53
48.24
47.04
45.97
44.80
43.10
40.51
36.99
32.85
28.69
25.03
22.12
19.82
17.63
14.89
11.11
6.09
0.06
-6.40
-12.54
-17.70
-21.55
-24.17
-25.96
-27.52
-29.48
-32.28
-36.07
-40.70
-45.55
-49.71
-52.07
-51.58
-47.63
-40.32
-30.49
-19.49
-8.83
0.35
7.52
12.72
16.33
18.82
20.41
21.13
20.97
20.00
18.51
16.92
15.61
14.71
14.14
13.61
12.88
11.92
10.86
9.97
9.38
8.98
8.36
7.04
4.63
1.06
-3.33
-7.93
-12.13
-15.50
-18.03
-20.07
-22.24
-25.20
-29.42
-34.97
-41.41
-47.82
-52.88
-55.31
-54.14
-49.05
-40.45
-29.29
-16.81
-4.18
7.68
18.08
26.47
32.51
35.98
37.01
36.10
34.04
31.66
29.59
28.09
27.09
26.30
25.48
24.53
23.49
22.44
21.40
20.29
18.93
17.10
14.58
11.30
7.25
2.68
-1.98
-6.24
-9.69
-12.16
-13.85
-15.23
-16.90
-19.39
-22.97
-27.50
-32.38
-36.54
-38.70
-37.62
-32.62
-23.75
-11.89
1.49
14.83
26.92
37.10
45.21
51.34
55.61
58.06
58.73
57.79
55.60
52.70
49.64
46.87
44.50
42.33
39.99
37.02
33.14
28.35
22.92
17.26
11.74
6.55
1.63
-3.22
-8.20
-13.35
-18.48
-23.27
-27.34
-30.54
-32.99
-35.06
-37.24
-39.97
-43.52
-47.99
-53.23
-58.91
-64.36
-68.60
-70.47
-68.88
-63.28
-53.91
-41.82
-28.51
-15.44
-3.61
6.54
14.97
21.68
26.62
29.64
30.72
30.15
28.51
26.55
24.83
23.64
22.94
22.43
21.82
20.91
19.66
18.23
16.80
15.51
14.35
13.13
11.56
9.28
6.11
2.12
-2.37
-6.93
-11.18
-14.92
-18.18
-21.10
-23.91
-26.89
-30.36
-34.61
-39.71
-45.41
-50.95
-55.17
-56.83
-54.91
-49.01
-39.53
-27.53
-14.43
-1.67
9.63
18.82
25.67
30.29
32.93
33.87
33.47
32.08
30.14
28.09
26.25
24.83
23.82
23.10
22.46
21.76
20.90
19.87
18.74
17.52
16.17
14.51
12.29
9.25
5.24
0.35
-5.11
-10.70
-15.96
-20.56
-24.39
-27.68
-30.87
-34.58
-39.38
-45.46
-52.52
-59.60
-65.27
-68.01
-66.77
-61.23
-51.96
-40.23
-27.54
-15.29
-4.43
4.53
11.43
16.34
19.40
20.84
21.01
20.39
19.56
19.06
19.23
20.08
21.35
22.59
23.41
23.64
23.29
22.53
21.45
20.03
18.08
15.44
12.00
7.92
3.45
-1.08
-5.41
-9.49
-13.46
-17.61
-22.27
-27.68
-33.71
-39.91
-45.33
-48.83
-49.31
-46.11
-39.22
-29.31
-17.54
-5.24
6.39
16.44
24.38
30.02
33.36
34.62
34.16
32.42
29.93
27.20
24.66
22.59
21.05
19.95
19.10
18.33
17.57
16.83
16.15
15.40
14.34
12.58
9.86
6.14
1.65
-3.11
-7.71
-11.85
-15.61
-19.39
-23.68
-28.98
-35.43
-42.80
-50.38
-57.08
-61.66
-63.04
-60.47
-53.85
-43.72
-31.20
-17.74
-4.76
6.63
15.90
22.97
28.11
31.72
34.06
35.32
35.64
35.23
34.38
33.44
32.63
32.01
31.47
30.86
30.11
29.27
28.45
27.67
26.78
25.43
23.18
19.76
15.19
9.79
4.13
-1.27
-6.05
-10.21
-14.10
-18.26
-23.26
-29.47
-36.89
-44.95
-52.63
-58.53
-61.26
-59.83
-54.01
-44.39
-32.23
-19.05
-6.14
5.65
15.98
24.81
32.13
37.81
41.64
43.57
43.76
42.70
40.99
39.21
37.74
36.69
35.98
35.45
34.96
34.38
33.66
32.75
31.58
30.10
28.20
25.73
22.60
18.73
14.17
9.17
4.05
-0.88
-5.46
-9.71
-13.85
-18.18
-22.97
-28.43
-34.66
-41.60
-48.88
-55.77
-61.17
-63.77
-62.47
-56.73
-46.82
-33.82
-19.32
-4.91
8.14
19.08
27.65
33.92
38.07
40.35
41.09
40.73
39.74
38.57
37.54
36.69
35.91
35.00
33.77
32.17
30.25
28.16
26.02
23.89
21.70
19.29
16.43
12.99
9.02
4.77
0.64
-3.06
-6.20
-9.01
-11.90
-15.38
-19.84
-25.40
-32.00
-39.19
-46.24
-52.02
-55.22
-54.61
-49.50
-40.09
-27.45
-13.33
0.53
12.77
22.75
30.33
35.67
38.94
40.26
39.80
37.96
35.34
32.68
30.58
29.28
28.65
28.25
27.59
26.37
24.53
22.29
19.97
17.85
15.96
14.07
11.79
8.77
4.88
0.33
-4.42
-8.91
-12.83
-16.24
-19.46
-22.98
-27.22
-32.42
-38.50
-45.09
-51.50
-56.77
-59.82
-59.64
-55.59
-47.66
-36.48
-23.30
-9.60
3.28
14.37
23.29
30.05
34.94
38.26
40.26
41.09
40.91
39.95
38.51
36.94
35.49
34.30
33.32
32.38
31.29
29.92
28.18
26.11
23.77
21.21
18.47
15.55
12.40
8.98
5.31
1.49
-2.34
-6.03
-9.52
-12.89
-16.35
-20.15
-24.58
-29.88
-36.18
-43.34
-50.88
-57.83
-62.87
-64.63
-62.05
-54.91
-43.87
-30.42
-16.32
-3.13
8.22
17.43
24.67
30.28
34.39
37.04
38.17
37.90
36.61
34.91
33.39
32.42
32.06
32.03
31.96
31.53
30.61
29.22
27.46
25.44
23.22
20.79
18.08
14.99
11.38
7.19
2.48
-2.51
-7.41
-11.80
-15.40
-18.29
-20.82
-23.63
-27.37
-32.49
-39.01
-46.39
-53.58
-59.20
-61.88
-60.58
-54.97
-45.48
-33.19
-19.58
-6.10
6.05
16.22
24.18
30.04
34.04
36.41
37.29
36.85
35.31
33.04
30.54
28.32
26.76
25.96
25.78
25.89
25.93
25.69
25.09
24.15
22.91
21.38
19.49
17.17
14.34
10.98
7.19
3.13
-0.96
-4.88
-8.49
-11.80
-14.93
-18.05
-21.37
-25.07
-29.36
-34.41
-40.30
-46.84
-53.42
-58.93
-62.02
-61.45
-56.57
-47.59
-35.60
-22.19
-8.98
2.83
12.60
20.18
25.67
29.24
31.00
31.20
30.19
28.55
26.89
25.73
25.27
25.36
25.64
25.73
25.38
24.59
23.53
22.39
21.21
19.87
18.08
15.53
12.07
7.79
3.01
-1.85
-6.41
-10.48
-14.06
-17.37
-20.70
-24.43
-28.88
-34.28
-40.57
-47.31
-53.58
-58.04
-59.32
-56.45
-49.21
-38.34
-25.28
-11.73
0.82
11.44
19.81
26.06
30.52
33.46
35.07
35.44
34.72
33.15
31.15
29.17
27.57
26.52
25.92
25.50
24.93
24.03
22.81
21.38
19.89
18.33
16.53
14.25
11.33
7.72
3.59
-0.82
-5.28
-9.61
-13.73
-17.59
-21.23
-24.69
-28.17
-31.94
-36.38
-41.71
-47.85
-54.13
-59.39
-62.20
-61.32
-56.23
-47.24
-35.49
-22.48
-9.62
2.08
12.12
20.31
26.63
31.03
33.52
34.21
33.47
31.86
29.99
28.43
27.47
27.12
27.11
27.03
26.55
25.50
23.98
22.25
20.62
19.27
18.13
16.92
15.24
12.71
9.18
4.78
-0.14
-5.06
-9.61
-13.58
-17.05
-20.35
-23.87
-27.97
-32.91
-38.75
-45.25
-51.89
-57.74
-61.62
-62.33
-59.04
-51.60
-40.67
-27.57
-13.85
-0.95
10.15
19.05
25.74
30.42
33.33
34.73
34.83
34.00
32.61
31.07
29.69
28.59
27.75
27.05
26.37
25.68
24.97
24.29
23.60
22.75
21.52
19.71
17.20
14.04
10.45
6.71
3.04
-0.47
-3.84
-7.23
-10.69
-14.25
-17.88
-21.47
-25.04
-28.76
-32.86
-37.66
-43.30
-49.65
-56.08
-61.51
-64.59
-64.07
-59.27
-50.40
-38.54
-25.33
-12.44
-1.07
8.27
15.60
21.18
25.22
27.76
28.78
28.40
27.04
25.30
23.78
22.89
22.66
22.84
23.04
22.95
22.47
21.65
20.62
19.43
17.98
16.04
13.39
9.91
5.72
1.15
-3.34
-7.39
-10.80
-13.67
-16.35
-19.33
-23.16
-28.19
-34.41
-41.30
-47.79
-52.53
-54.15
-51.72
-45.07
-34.90
-22.58
-9.74
2.20
12.31
20.25
26.09
30.10
32.50
33.43
33.04
31.61
29.60
27.58
26.01
25.12
24.79
24.66
24.31
23.48
22.15
20.46
18.68
16.94
15.17
13.16
10.57
7.15
2.91
-1.92
-6.96
-11.80
-16.23
-20.26
-24.09
-28.10
-32.67
-38.11
-44.51
-51.58
-58.52
-64.07
-66.79
-65.46
-59.61
-49.68
-36.91
-22.98
-9.43
2.65
12.73
20.70
26.68
30.81
33.25
34.19
33.90
32.82
31.41
30.18
29.43
29.23
29.36
29.51
29.30
28.54
27.26
25.62
23.81
21.90
19.80
17.31
14.25
10.48
6.04
1.09
-4.09
-9.15
-13.82
-17.91
-21.48
-24.79
-28.25
-32.38
-37.52
-43.78
-50.81
-57.79
-63.49
-66.50
-65.63
-60.26
-50.68
-38.01
-23.95
-10.16
2.14
12.39
20.60
27.00
31.77
34.94
36.50
36.60
35.69
34.44
33.48
33.21
33.62
34.39
35.10
35.41
35.13
34.26
32.87
31.10
29.04
26.81
24.45
21.96
19.28
16.27
12.79
8.79
4.31
-0.47
-5.27
-9.86
-14.07
-17.93
-21.59
-25.34
-29.54
-34.52
-40.51
-47.48
-55.02
-62.23
-67.79
-70.21
-68.38
-61.89
-51.29
-37.96
-23.58
-9.75
2.53
12.83
21.20
27.82
32.86
36.38
38.44
39.19
38.92
38.08
37.10
36.36
36.03
36.06
36.27
36.35
36.04
35.19
33.84
32.09
30.03
27.71
25.08
22.07
18.66
14.88
10.83
6.58
2.19
-2.28
-6.76
-11.10
-15.22
-19.18
-23.19
-27.64
-32.97
-39.39
-46.69
-54.14
-60.51
-64.45
-64.74
-60.74
-52.54
-40.95
-27.31
-13.14
0.17
11.65
20.78
27.48
31.87
34.23
34.87
34.21
32.73
31.02
29.62
28.89
28.89
29.37
29.89
30.04
29.62
28.63
27.23
25.61
23.74
21.51
18.74
15.31
11.31
6.96
2.55
-1.67
-5.65
-9.46
-13.29
-17.39
-22.00
-27.29
-33.25
-39.58
-45.60
-50.22
-52.21
-50.52
-44.66
-34.93
-22.32
-8.22
6.09
19.70
32.20
43.42
53.13
60.92
66.15
68.35
67.50
64.20
59.53
54.73
50.70
47.79
45.81
44.23
42.54
40.44
37.87
34.94
31.73
28.17
24.10
19.32
13.66
7.16
-0.02
-7.64
-15.39
-23.01
-30.26
-36.97
-43.02
-48.41
-53.25
-57.83
-62.53
-67.72
-73.61
-80.01
-86.25
-91.16
-93.34
-91.57
-85.22
-74.54
-60.62
-45.09
-29.62
-15.51
-3.47
6.32
14.05
19.97
24.35
27.38
29.29
30.36
30.89
31.24
31.67
32.34
33.26
34.34
35.42
36.31
36.87
36.97
36.54
35.53
33.92
31.66
28.74
25.14
20.86
15.98
10.62
4.99
-0.68
-6.14
-11.30
-16.14
-20.78
-25.35
-29.95
-34.72
-39.85
-45.54
-51.80
-58.30
-64.08
-67.79
-67.93
-63.51
-54.43
-41.66
-26.90
-12.03
1.44
12.78
21.89
29.06
34.60
38.68
41.27
42.32
41.99
40.65
38.91
37.40
36.56
36.50
37.02
37.72
38.20
38.18
37.53
36.24
34.31
31.81
28.79
25.37
21.70
17.89
13.99
9.90
5.54
0.81
-4.21
-9.32
-14.26
-18.83
-23.00
-26.96
-31.09
-35.86
-41.55
-48.13
-55.03
-61.19
-65.19
-65.75
-62.05
-54.14
-42.85
-29.59
-15.89
-2.92
8.61
18.50
26.69
33.16
37.75
40.31
40.90
39.91
38.02
36.00
34.48
33.69
33.55
33.63
33.55
32.98
31.86
30.30
28.53
26.72
24.87
22.81
20.22
16.86
12.66
7.85
2.85
-1.86
-6.00
-9.56
-12.82
-16.25
-20.30
-25.31
-31.29
-38.04
-45.04
-51.48
-56.34
-58.55
-57.22
-51.95
-43.04
-31.46
-18.60
-5.86
5.73
15.65
23.84
30.39
35.35
38.59
40.00
39.64
37.89
35.48
33.15
31.49
30.68
30.55
30.72
30.80
30.57
29.97
29.02
27.70
25.96
23.68
20.78
17.20
13.06
8.53
3.79
-0.99
-5.71
-10.31
-14.73
-18.90
-22.74
-26.27
-29.65
-33.19
-37.32
-42.43
-48.66
-55.68
-62.61
-68.15
-70.85
-69.55
-63.77
-53.87
-40.94
-26.53
-12.20
0.84
11.84
20.57
27.10
31.64
34.50
35.98
36.43
36.25
35.83
35.45
35.26
35.24
35.29
35.31
35.23
35.02
34.62
33.91
32.77
31.03
28.64
25.71
22.46
19.17
16.04
13.11
10.24
7.18
3.68
-0.37
-4.88
-9.59
-14.21
-18.53
-22.55
-26.50
-30.77
-35.76
-41.73
-48.62
-56.01
-63.01
-68.46
-71.07
-69.82
-64.23
-54.55
-41.76
-27.33
-12.79
0.60
12.09
21.42
28.62
33.85
37.21
38.90
39.22
38.67
37.84
37.19
36.89
36.80
36.58
35.99
35.02
33.91
32.96
32.28
31.70
30.81
29.22
26.73
23.48
19.81
16.14
12.71
9.55
6.46
3.12
-0.74
-5.19
-10.07
-15.05
-19.76
-23.91
-27.47
-30.66
-33.99
-38.00
-43.14
-49.49
-56.61
-63.52
-68.84
-71.11
-69.20
-62.72
-52.15
-38.73
-24.16
-10.07
2.35
12.54
20.46
26.39
30.59
33.28
34.57
34.62
33.72
32.31
30.90
29.86
29.35
29.23
29.21
28.94
28.26
27.16
25.78
24.36
23.00
21.68
20.17
18.15
15.37
11.73
7.36
2.59
-2.22
-6.78
-10.92
-14.69
-18.22
-21.73
-25.40
-29.52
-34.31
-39.97
-46.45
-53.26
-59.43
-63.62
-64.51
-61.25
-53.80
-42.92
-29.92
-16.34
-3.44
7.91
17.24
24.37
29.34
32.28
33.49
33.42
32.57
31.43
30.34
29.45
28.80
28.31
27.91
27.53
27.17
26.76
26.21
25.38
24.11
22.33
20.03
17.27
14.16
10.77
7.11
3.12
-1.22
-5.91
-10.81
-15.71
-20.37
-24.63
-28.48
-32.17
-36.11
-40.76
-46.44
-53.06
-59.95
-65.88
-69.37
-69.08
-64.33
-55.28
-43.01
-29.07
-15.11
-2.38
8.45
17.21
24.00
29.00
32.33
34.09
34.50
33.91
32.82
31.70
30.93
30.62
30.68
30.87
30.94
30.71
30.19
29.50
28.75
27.99
27.05
25.62
23.30
19.72
14.81
8.79
2.17
-4.38
-10.29
-15.24
-19.31
-22.87
-26.53
-30.90
-36.44
-43.15
-50.56
-57.64
-63.02
-65.33
-63.59
-57.51
-47.64
-35.17
-21.58
-8.26
3.77
13.92
22.01
28.04
32.15
34.54
35.51
35.48
34.92
34.29
33.94
33.99
34.34
34.71
34.79
34.31
33.25
31.79
30.22
28.83
27.65
26.49
24.89
22.42
18.83
14.28
9.28
4.50
0.52
-2.45
-4.68
-6.85
-9.74
-13.99
-19.82
-26.95
-34.58
-41.58
-46.67
-48.71
-46.95
-41.19
-31.88
-20.00
-6.83
6.43
18.89
30.04
39.64
47.44
53.08
56.11
56.27
53.73
49.21
43.81
38.60
34.22
30.73
27.63
24.28
20.26
15.57
10.63
6.04
2.24
-0.62
-2.80
-4.69
-6.74
-9.30
-12.53
-16.49
-21.18
-26.54
-32.52
-39.05
-46.10
-53.73
-62.01
-70.85
-79.87
-88.24
-94.75
-98.14
-97.46
-92.41
-83.48
-71.70
-58.36
-44.56
-31.07
-18.37
-6.79
3.33
11.62
17.79
21.81
24.07
25.25
26.23
27.74
30.15
33.31
36.69
39.56
41.31
41.67
40.79
39.08
37.01
34.85
32.57
29.95
26.77
22.94
18.61
14.06
9.60
5.40
1.43
-2.46
-6.54
-11.06
-16.20
-22.11
-28.88
-36.49
-44.75
-53.04
-60.35
-65.36
-66.73
-63.58
-55.84
-44.35
-30.59
-16.27
-2.80
8.97
18.81
26.79
33.09
37.78
40.87
42.41
42.67
42.15
41.42
40.95
40.90
41.16
41.39
41.25
40.61
39.54
38.29
37.05
35.85
34.47
32.51
29.60
25.60
20.64
15.11
9.52
4.24
-0.55
-4.94
-9.15
-13.39
-17.90
-22.80
-28.31
-34.59
-41.70
-49.31
-56.58
-62.15
-64.49
-62.40
-55.51
-44.42
-30.58
-15.74
-1.56
10.83
20.85
28.32
33.35
36.17
37.13
36.70
35.44
33.88
32.46
31.43
30.89
30.76
30.83
30.88
30.67
30.06
29.06
27.74
26.22
24.48
22.32
19.53
15.89
11.41
6.33
1.11
-3.80
-8.09
-11.69
-14.81
-17.84
-21.28
-25.57
-31.07
-37.81
-45.39
-52.90
-59.05
-62.36
-61.67
-56.51
-47.21
-34.89
-21.10
-7.45
4.84
15.02
22.90
28.60
32.37
34.48
35.16
34.68
33.43
31.95
30.73
30.15
30.26
30.74
31.11
30.87
29.79
27.90
25.49
22.92
20.38
17.85
15.11
11.84
7.84
3.12
-2.08
-7.37
-12.38
-16.86
-20.81
-24.48
-28.29
-32.70
-38.14
-44.76
-52.37
-60.26
-67.25
-71.84
-72.65
-68.76
-60.16
-47.69
-32.87
-17.45
-2.89
9.84
20.35
28.63
34.82
39.06
41.47
42.28
41.88
40.83
39.73
39.04
38.90
39.15
39.45
39.35
38.59
37.08
35.00
32.60
30.21
27.98
25.86
23.60
20.80
17.11
12.40
6.88
1.03
-4.56
-9.44
-13.43
-16.73
-19.82
-23.30
-27.72
-33.38
-40.29
-48.03
-55.74
-62.17
-65.93
-65.79
-61.06
-51.88
-39.21
-24.62
-9.83
3.71
15.15
24.19
30.96
35.75
38.83
40.47
40.88
40.37
39.29
38.03
36.89
36.04
35.48
35.12
34.82
34.36
33.61
32.42
30.77
28.70
26.30
23.60
20.55
17.07
13.05
8.50
3.54
-1.55
-6.43
-10.84
-14.68
-18.06
-21.27
-24.70
-28.74
-33.72
-39.80
-46.86
-54.35
-61.28
-66.29
-68.01
-65.40
-58.21
-47.09
-33.45
-18.98
-5.24
6.75
16.53
24.07
29.53
33.16
35.17
35.83
35.42
34.32
32.92
31.56
30.50
29.81
29.42
29.11
28.62
27.75
26.43
24.68
22.57
20.11
17.20
13.76
9.72
5.17
0.31
-4.52
-9.04
-13.05
-16.50
-19.56
-22.56
-25.99
-30.33
-35.94
-42.79
-50.30
-57.33
-62.42
-64.11
-61.46
-54.34
-43.43
-30.10
-15.88
-2.22
9.91
19.92
27.55
32.78
35.71
36.60
35.89
34.16
32.02
30.03
28.55
27.73
27.48
27.56
27.65
27.43
26.72
25.45
23.80
21.98
20.14
18.26
16.08
13.24
9.44
4.61
-1.05
-7.06
-12.93
-18.28
-22.98
-27.19
-31.30
-35.83
-41.26
-47.79
-55.18
-62.63
-68.83
-72.24
-71.53
-66.05
-56.11
-42.90
-28.12
-13.46
-0.14
11.28
20.76
28.47
34.48
38.66
40.88
41.25
40.23
38.66
37.35
36.81
37.00
37.43
37.44
36.57
34.81
32.55
30.39
28.74
27.60
26.56
24.95
22.20
18.05
12.67
6.58
0.39
-5.42
-10.65
-15.33
-19.66
-23.92
-28.39
-33.40
-39.23
-45.95
-53.25
-60.22
-65.54
-67.72
-65.65
-59.01
-48.43
-35.32
-21.41
-8.23
3.22
12.59
19.96
25.63
29.76
32.41
33.59
33.41
32.28
30.80
29.65
29.25
29.62
30.36
30.93
30.91
30.18
28.92
27.40
25.82
24.15
22.14
19.49
15.97
11.60
6.62
1.43
-3.55
-8.00
-11.83
-15.21
-18.50
-22.13
-26.49
-31.78
-38.01
-44.93
-51.98
-58.34
-62.92
-64.59
-62.50
-56.34
-46.54
-34.11
-20.43
-6.87
5.55
16.21
24.80
31.24
35.49
37.60
37.84
36.75
35.13
33.79
33.31
33.80
34.90
35.99
36.45
35.97
34.69
33.07
31.64
30.77
30.48
30.40
29.89
28.27
25.01
19.91
13.19
5.41
-2.76
-10.73
-18.28
-25.55
-33.02
-41.18
-50.30
-60.16
-70.00
-78.67
-84.85
-87.37
-85.48
-79.02
-68.49
-54.86
-39.51
-23.87
-9.27
3.28
13.14
20.11
24.34
26.20
26.31
25.34
23.94
22.64
21.77
21.41
21.44
21.63
21.75
21.62
21.17
20.46
19.53
18.36
16.77
14.52
11.36
7.16
2.13
-3.33
-8.70
-13.51
-17.55
-20.95
-24.06
-27.41
-31.54
-36.84
-43.44
-50.97
-58.49
-64.63
-67.82
-66.79
-61.02
-50.87
-37.55
-22.74
-8.06
5.25
16.52
25.55
32.44
37.31
40.31
41.57
41.35
40.07
38.30
36.58
35.30
34.51
33.97
33.35
32.40
31.03
29.39
27.68
26.04
24.42
22.64
20.43
17.60
14.05
9.83
5.13
0.21
-4.74
-9.54
-14.15
-18.63
-23.08
-27.71
-32.79
-38.57
-45.24
-52.63
-60.03
-66.19
-69.53
-68.65
-62.85
-52.46
-38.76
-23.64
-8.89
4.16
14.89
23.25
29.51
33.93
36.75
38.11
38.18
37.27
35.84
34.41
33.36
32.87
32.77
32.68
32.21
31.17
29.64
27.96
26.40
25.06
23.65
21.67
18.65
14.38
9.05
3.17
-2.61
-7.79
-12.18
-15.92
-19.39
-23.08
-27.46
-32.87
-39.41
-46.84
-54.41
-60.95
-64.96
-65.11
-60.59
-51.52
-38.99
-24.69
-10.45
2.37
13.05
21.49
27.84
32.30
34.92
35.75
35.01
33.16
30.90
28.86
27.48
26.75
26.39
26.02
25.37
24.39
23.19
21.95
20.70
19.34
17.63
15.31
12.21
8.34
3.89
-0.87
-5.65
-10.23
-14.58
-18.86
-23.36
-28.47
-34.49
-41.46
-48.95
-56.01
-61.26
-63.23
-60.89
-53.93
-42.99
-29.46
-14.98
-1.05
11.31
21.60
29.66
35.45
38.96
40.24
39.54
37.43
34.66
32.00
30.01
28.87
28.44
28.35
28.20
27.72
26.84
25.60
24.09
22.35
20.30
17.74
14.45
10.31
5.38
-0.00
-5.42
-10.43
-14.85
-18.75
-22.55
-26.89
-32.36
-39.26
-47.31
-55.58
-62.56
-66.56
-66.21
-60.89
-51.00
-37.81
-23.06
-8.51
4.52
15.34
23.81
30.12
34.59
37.45
38.90
39.08
38.29
36.93
35.47
34.33
33.69
33.42
33.19
32.63
31.56
30.02
28.26
26.50
24.77
22.82
20.26
16.72
12.12
6.66
0.81
-4.87
-9.99
-14.43
-18.41
-22.33
-26.72
-32.02
-38.47
-45.95
-53.85
-61.10
-66.28
-67.96
-65.16
-57.66
-46.16
-32.06
-17.08
-2.77
9.85
20.35
28.77
35.33
40.20
43.42
44.96
44.91
43.55
41.44
39.26
37.60
36.70
36.48
36.52
36.33
35.56
34.10
32.12
29.92
27.73
25.62
23.43
20.88
17.64
13.52
8.53
2.92
-2.87
-8.37
-13.22
-17.30
-20.83
-24.27
-28.24
-33.30
-39.76
-47.44
-55.63
-63.10
-68.37
-70.01
-67.13
-59.58
-48.11
-34.06
-19.11
-4.74
7.93
18.34
26.32
31.99
35.59
37.40
37.76
37.06
35.81
34.52
33.55
33.12
33.15
33.34
33.31
32.78
31.70
30.22
28.61
27.06
25.52
23.67
21.08
17.39
12.53
6.83
0.85
-4.73
-9.45
-13.21
-16.27
-19.18
-22.50
-26.70
-32.00
-38.36
-45.40
-52.52
-58.75
-62.98
-64.03
-61.06
-53.79
-42.75
-29.09
-14.37
-0.10
12.57
22.96
30.79
36.04
38.83
39.51
38.63
36.92
35.14
33.83
33.18
33.00
32.84
32.35
31.39
30.08
28.65
27.29
25.97
24.44
22.37
19.45
15.60
10.96
5.83
0.57
-4.53
-9.33
-13.85
-18.20
-22.58
-27.25
-32.52
-38.66
-45.70
-53.26
-60.45
-65.94
-68.25
-66.21
-59.41
-48.36
-34.39
-19.26
-4.60
8.36
19.06
27.42
33.62
37.87
40.34
41.20
40.76
39.47
37.91
36.57
35.71
35.24
34.87
34.22
33.04
31.30
29.17
26.91
24.69
22.51
20.21
17.53
14.27
10.39
6.00
1.31
-3.44
-8.10
-12.58
-16.87
-20.98
-25.04
-29.27
-34.06
-39.79
-46.63
-54.23
-61.56
-67.13
-69.30
-66.92
-59.74
-48.47
-34.60
-19.90
-5.94
6.30
16.47
24.70
31.29
36.50
40.42
43.05
44.42
44.69
44.22
43.47
42.87
42.66
42.85
43.29
43.71
43.90
43.69
43.05
41.92
40.22
37.87
34.72
30.75
26.04
20.91
15.78
11.09
7.07
3.71
0.68
-2.55
-6.58
-11.94
-18.96
-27.75
-37.99
-48.93
-59.32
-67.59
-72.18
-72.01
-66.83
-57.38
-45.18
-32.08
-19.73
-9.25
-1.06
4.91
8.99
11.51
12.69
12.73
11.85
10.41
8.84
7.59
6.91
6.80
6.94
6.91
6.28
4.89
2.89
0.67
-1.37
-3.09
-4.63
-6.40
-8.83
-12.11
-16.10
-20.33
-24.26
-27.50
-29.96
-31.92
-33.93
-36.66
-40.68
-46.21
-52.89
-59.83
-65.63
-68.81
-68.19
-63.21
-54.12
-41.86
-27.76
-13.24
0.52
12.70
22.84
30.76
36.40
39.87
41.34
41.18
39.85
37.95
35.96
34.25
32.94
32.02
31.34
30.76
30.16
29.37
28.28
26.74
24.64
21.94
18.55
14.51
9.85
4.77
-0.45
-5.48
-10.10
-14.33
-18.48
-23.12
-28.77
-35.70
-43.64
-51.73
-58.62
-62.83
-63.14
-58.93
-50.44
-38.64
-24.98
-10.97
2.20
13.81
23.63
31.64
37.88
42.31
44.91
45.77
45.23
43.86
42.25
40.94
40.15
39.82
39.68
39.41
38.76
37.64
36.05
34.10
31.86
29.37
26.67
23.71
20.47
16.93
13.10
9.02
4.76
0.40
-3.98
-8.34
-12.64
-16.89
-21.19
-25.69
-30.66
-36.42
-43.18
-50.90
-59.06
-66.65
-72.26
-74.48
-72.25
-65.26
-54.08
-39.96
-24.55
-9.36
4.49
16.41
26.28
34.22
40.40
44.92
47.91
49.52
50.00
49.64
48.72
47.48
46.06
44.58
43.17
41.92
40.86
39.89
38.82
37.39
35.40
32.78
29.61
26.03
22.21
18.20
13.97
9.42
4.49
-0.78
-6.21
-11.53
-16.46
-20.80
-24.55
-27.95
-31.42
-35.52
-40.75
-47.28
-54.76
-62.26
-68.39
-71.65
-70.87
-65.61
-56.23
-43.83
-29.83
-15.61
-2.20
9.75
19.95
28.22
34.43
38.51
40.43
40.44
39.05
36.97
34.98
33.63
33.10
33.20
33.48
33.50
32.99
31.93
30.49
28.90
27.22
25.34
23.00
19.92
15.93
11.11
5.80
0.51
-4.28
-8.34
-11.81
-15.13
-18.92
-23.76
-29.89
-37.20
-45.17
-52.86
-59.11
-62.69
-62.54
-58.16
-49.70
-38.08
-24.63
-10.83
2.09
13.34
22.57
29.68
34.72
37.83
39.26
39.42
38.78
37.81
36.85
36.06
35.39
34.73
33.93
32.84
31.40
29.63
27.68
25.67
23.70
21.69
19.34
16.32
12.32
7.38
1.83
-3.77
-8.90
-13.33
-17.16
-20.78
-24.65
-29.22
-34.73
-41.24
-48.53
-56.04
-62.82
-67.62
-69.16
-66.52
-59.45
-48.53
-35.00
-20.43
-6.26
6.48
17.23
25.79
32.20
36.63
39.26
40.35
40.25
39.39
38.20
37.11
36.36
36.05
36.01
35.95
35.51
34.44
32.69
30.38
27.81
25.20
22.62
19.90
16.70
12.79
8.09
2.88
-2.43
-7.38
-11.73
-15.52
-19.02
-22.59
-26.62
-31.42
-37.24
-44.10
-51.68
-59.14
-65.15
-68.12
-66.73
-60.44
-49.77
-36.15
-21.48
-7.42
4.99
15.42
24.00
30.92
36.19
39.66
41.22
41.04
39.61
37.64
35.77
34.38
33.51
32.92
32.28
31.32
29.93
28.14
26.10
23.96
21.83
19.70
17.44
14.84
11.62
7.58
2.76
-2.61
-8.09
-13.21
-17.65
-21.39
-24.76
-28.26
-32.45
-37.70
-44.05
-51.15
-58.24
-64.21
-67.79
-67.84
-63.63
-55.16
-43.22
-29.23
-14.84
-1.50
9.86
18.89
25.68
30.43
33.32
34.47
34.04
32.39
30.09
27.85
26.29
25.72
25.97
26.54
26.78
26.24
24.82
22.80
20.65
18.71
17.00
15.19
12.71
9.16
4.51
-0.87
-6.32
-11.24
-15.38
-18.82
-22.03
-25.54
-29.84
-35.23
-41.71
-48.96
-56.24
-62.43
-66.22
-66.38
-62.22
-53.76
-41.89
-28.02
-13.77
-0.47
11.00
20.38
27.70
33.21
37.07
39.38
40.25
39.85
38.58
36.92
35.45
34.54
34.31
34.51
34.73
34.52
33.58
31.89
29.60
26.98
24.20
21.30
18.17
14.60
10.42
5.60
0.30
-5.17
-10.47
-15.32
-19.63
-23.52
-27.26
-31.19
-35.66
-40.91
-47.01
-53.76
-60.63
-66.68
-70.72
-71.54
-68.27
-60.67
-49.28
-35.28
-20.23
-5.63
7.40
18.19
26.59
32.69
36.73
39.02
39.90
39.73
38.89
37.74
36.55
35.50
34.67
34.09
33.69
33.35
32.89
32.11
30.89
29.19
27.13
24.86
22.46
19.89
16.98
13.50
9.34
4.54
-0.69
-6.04
-11.19
-15.94
-20.26
-24.28
-28.26
-32.50
-37.31
-42.97
-49.56
-56.82
-63.98
-69.72
-72.53
-71.05
-64.69
-53.83
-39.84
-24.60
-9.94
2.91
13.44
21.75
28.16
32.90
36.04
37.51
37.43
36.19
34.44
32.86
31.93
31.71
31.90
32.06
31.78
30.92
29.58
28.00
26.40
24.87
23.34
21.54
19.25
16.22
12.38
7.85
2.93
-2.06
-6.83
-11.23
-15.29
-19.13
-22.99
-27.15
-31.89
-37.45
-43.90
-50.96
-57.86
-63.50
-66.53
-65.84
-60.87
-51.83
-39.66
-25.74
-11.55
1.67
13.04
22.09
28.63
32.66
34.40
34.22
32.65
30.37
28.03
26.11
24.86
24.24
24.00
23.86
23.58
23.11
22.43
21.60
20.53
19.06
16.94
13.98
10.13
5.58
0.68
-4.19
-8.69
-12.66
-16.14
-19.38
-22.79
-26.84
-31.93
-38.19
-45.33
-52.53
-58.60
-62.22
-62.26
-58.14
-49.98
-38.57
-25.15
-11.15
2.12
13.69
23.02
29.95
34.59
37.19
38.09
37.65
36.27
34.42
32.54
31.02
30.03
29.51
29.23
28.92
28.36
27.45
26.21
24.70
22.95
20.91
18.53
15.78
12.60
9.01
4.98
0.51
-4.33
-9.38
-14.40
-19.16
-23.51
-27.51
-31.39
-35.58
-40.51
-46.50
-53.49
-61.00
-67.94
-72.83
-74.20
-71.03
-63.17
-51.41
-37.28
-22.51
-8.59
3.59
13.74
21.94
28.40
33.27
36.61
38.51
39.14
38.82
37.97
37.00
36.19
35.65
35.27
34.83
34.06
32.81
31.07
28.96
26.66
24.29
21.90
19.37
16.57
13.34
9.61
5.37
0.76
-4.02
-8.73
-13.13
-17.13
-20.76
-24.22
-27.86
-32.10
-37.31
-43.71
-51.15
-58.99
-66.12
-71.06
-72.39
-69.13
-61.11
-49.10
-34.56
-19.27
-4.86
7.60
17.65
25.30
30.90
34.81
37.38
38.87
39.56
39.73
39.62
39.41
39.17
38.89
38.53
38.10
37.65
37.24
36.80
36.17
35.09
33.33
30.80
27.61
23.98
20.20
16.45
12.77
9.06
5.20
1.03
-3.52
-8.43
-13.57
-18.73
-23.77
-28.61
-33.41
-38.53
-44.44
-51.40
-59.20
-66.97
-73.27
-76.46
-75.26
-69.20
-58.80
-45.40
-30.69
-16.21
-3.04
8.35
17.82
25.46
31.32
35.41
37.76
38.56
38.23
37.32
36.42
35.97
36.12
36.74
37.48
37.93
37.78
36.88
35.30
33.26
30.96
28.52
25.94
23.08
19.75
15.85
11.40
6.57
1.62
-3.22
-7.76
-11.98
-15.96
-19.84
-23.87
-28.32
-33.53
-39.74
-46.95
-54.68
-61.95
-67.33
-69.33
-66.85
-59.56
-48.06
-33.72
-18.27
-3.32
9.98
21.02
29.62
35.83
39.75
41.52
41.41
39.87
37.55
35.19
33.36
32.31
31.95
31.91
31.79
31.34
30.47
29.27
27.82
26.15
24.16
21.71
18.72
15.15
11.06
6.62
2.01
-2.53
-6.82
-10.79
-14.50
-18.18
-22.18
-26.84
-32.50
-39.34
-47.22
-55.58
-63.33
-69.02
-71.13
-68.64
-61.33
-49.99
-36.14
-21.59
-7.85
4.14
14.09
22.10
28.39
33.16
36.45
38.35
38.98
38.68
37.84
36.88
36.13
35.78
35.85
36.23
36.70
36.98
36.77
35.84
34.08
31.56
28.50
25.17
21.77
18.36
14.82
10.99
6.71
1.97
-3.08
-8.18
-13.03
-17.47
-21.47
-25.27
-29.28
-34.02
-39.95
-47.20
-55.46
-63.84
-70.99
-75.36
-75.64
-71.11
-61.92
-49.05
-34.11
-18.86
-4.75
7.34
17.17
24.91
30.90
35.33
38.28
39.78
40.03
39.44
38.59
37.96
37.80
38.03
38.31
38.26
37.63
36.40
34.69
32.70
30.63
28.56
26.42
24.05
21.22
17.71
13.45
8.56
3.36
-1.77
-6.53
-10.86
-14.96
-19.20
-23.91
-29.37
-35.65
-42.74
-50.45
-58.32
-65.56
-70.96
-73.16
-71.01
-64.02
-52.62
-38.16
-22.47
-7.33
5.97
16.84
25.29
31.64
36.22
39.24
40.77
40.96
40.09
38.66
37.19
36.12
35.60
35.48
35.51
35.35
34.80
33.73
32.17
30.15
27.77
25.12
22.23
19.05
15.48
11.42
6.86
1.95
-3.04
-7.86
-12.33
-16.49
-20.57
-24.91
-29.86
-35.69
-42.48
-49.99
-57.59
-64.21
-68.50
-69.15
-65.30
-56.94
-44.93
-30.78
-16.22
-2.67
9.00
18.43
25.60
30.60
33.48
34.41
33.77
32.16
30.36
29.00
28.42
28.48
28.78
28.83
28.40
27.51
26.41
25.38
24.46
23.43
21.87
19.33
15.63
10.90
5.59
0.28
-4.62
-8.94
-12.89
-16.89
-21.48
-27.05
-33.83
-41.64
-49.93
-57.66
-63.48
-65.96
-63.99
-57.27
-46.44
-32.98
-18.68
-5.17
6.61
16.37
24.27
30.54
35.21
38.17
39.32
38.87
37.37
35.64
34.36
33.92
34.21
34.74
34.90
34.22
32.56
30.16
27.42
24.75
22.28
19.85
17.09
13.60
9.19
3.98
-1.70
-7.41
-12.77
-17.66
-22.13
-26.43
-30.98
-36.26
-42.70
-50.46
-59.17
-67.81
-74.81
-78.46
-77.49
-71.45
-60.93
-47.30
-32.23
-17.23
-3.31
9.03
19.64
28.45
35.36
40.25
43.09
44.06
43.60
42.34
40.87
39.65
38.85
38.36
37.89
37.14
35.88
34.04
31.74
29.19
26.62
24.16
21.77
19.18
16.07
12.16
7.41
2.05
-3.50
-8.82
-13.64
-17.97
-22.06
-26.26
-30.99
-36.59
-43.29
-51.11
-59.65
-68.04
-74.90
-78.67
-78.03
-72.36
-62.03
-48.24
-32.72
-17.14
-2.77
9.73
20.17
28.62
35.14
39.80
42.67
44.00
44.25
43.98
43.73
43.76
44.08
44.41
44.46
43.99
42.94
41.43
39.61
37.61
35.40
32.92
30.04
26.71
22.93
18.82
14.51
10.11
5.70
1.28
-3.13
-7.54
-11.94
-16.35
-20.96
-26.02
-31.90
-38.81
-46.66
-54.80
-62.04
-66.87
-67.77
-63.72
-54.56
-41.08
-24.82
-7.61
8.92
23.72
36.29
46.54
54.42
59.78
62.40
62.22
59.51
54.93
49.35
43.56
38.05
33.00
28.41
24.29
20.79
18.09
16.24
15.08
14.21
13.13
11.38
8.65
4.85
0.03
-5.62
-11.78
-18.13
-24.23
-29.75
-34.48
-38.44
-41.84
-45.10
-48.75
-53.33
-59.24
-66.51
-74.60
-82.32
-88.00
-89.89
-86.75
-78.31
-65.34
-49.44
-32.46
-15.98
-0.99
12.07
23.06
31.86
38.31
42.25
43.79
43.39
41.87
40.08
38.73
38.11
38.13
38.41
38.55
38.26
37.50
36.41
35.20
33.96
32.57
30.69
27.92
23.96
18.78
12.72
6.32
0.19
-5.32
-10.20
-14.76
-19.58
-25.25
-32.24
-40.69
-50.26
-60.03
-68.54
-74.08
-75.15
-70.88
-61.40
-47.79
-31.80
-15.28
0.29
14.02
25.54
34.88
42.11
47.34
50.63
52.10
52.07
50.99
49.40
47.77
46.42
45.48
44.89
44.51
44.19
43.82
43.27
42.39
41.00
38.90
35.96
32.17
27.61
22.55
17.24
11.88
6.58
1.36
-3.85
-9.04
-14.20
-19.27
-24.21
-29.07
-34.06
-39.49
-45.75
-53.16
-61.78
-71.16
-80.25
-87.49
-91.09
-89.57
-82.22
-69.42
-52.58
-33.76
-15.01
2.07
16.66
28.56
37.92
44.98
49.90
52.82
54.01
53.90
53.11
52.17
51.46
51.01
50.64
50.11
49.34
48.39
47.43
46.54
45.61
44.33
42.30
39.25
35.15
30.30
25.15
20.15
15.55
11.27
7.01
2.45
-2.60
-8.11
-13.78
-19.27
-24.34
-28.99
-33.45
-38.19
-43.75
-50.56
-58.75
-67.88
-76.87
-84.09
-87.75
-86.37
-79.28
-66.87
-50.45
-31.90
-13.16
4.18
19.10
31.12
40.18
46.47
50.34
52.25
52.69
52.15
51.08
49.84
48.68
47.71
46.95
46.35
45.80
45.20
44.45
43.44
42.08
40.28
37.97
35.09
31.62
27.65
23.31
18.74
14.00
9.04
3.73
-2.01
-8.06
-14.15
-19.84
-24.84
-29.08
-32.92
-36.93
-41.80
-48.05
-55.76
-64.51
-73.24
-80.44
-84.42
-83.74
-77.69
-66.53
-51.47
-34.39
-17.22
-1.48
11.94
22.76
31.04
36.93
40.53
41.95
41.50
39.71
37.29
35.01
33.36
32.51
32.25
32.16
31.83
31.04
29.78
28.20
26.45
24.60
22.56
20.12
17.07
13.26
8.71
3.57
-1.85
-7.20
-12.17
-16.63
-20.73
-24.88
-29.64
-35.57
-42.93
-51.52
-60.58
-68.83
-74.72
-76.79
-74.01
-66.14
-53.79
-38.32
-21.45
-4.86
10.21
22.97
33.10
40.47
45.04
46.91
46.38
44.09
40.90
37.71
35.18
33.57
32.71
32.21
31.65
30.76
29.51
27.93
26.17
24.31
22.33
20.09
17.36
13.85
9.35
3.83
-2.45
-9.02
-15.35
-21.08
-26.14
-30.77
-35.43
-40.60
-46.70
-53.96
-62.28
-71.13
-79.43
-85.64
-88.07
-85.35
-76.96
-63.44
-46.33
-27.69
-9.52
6.67
20.12
30.71
38.65
44.30
47.97
49.97
50.61
50.27
49.38
48.33
47.45
46.88
46.63
46.65
46.82
47.01
47.04
46.68
45.71
44.07
41.91
39.62
37.68
36.44
35.92
35.74
35.16
33.40
29.88
24.44
17.34
9.06
0.01
-9.63
-20.02
-31.54
-44.50
-58.84
-73.91
-88.37
-100.40
-108.05
-109.78
-104.88
-93.76
-77.91
-59.47
-40.67
-23.28
-8.33
3.86
13.40
20.54
25.43
28.22
29.15
28.67
27.41
26.07
25.17
24.95
25.29
25.89
26.38
26.54
26.33
25.83
25.16
24.29
23.11
21.37
18.91
15.66
11.71
7.24
2.44
-2.52
-7.54
-12.53
-17.39
-22.05
-26.47
-30.74
-35.07
-39.74
-45.12
-51.55
-59.21
-67.89
-76.80
-84.52
-89.21
-89.12
-83.19
-71.52
-55.41
-36.96
-18.42
-1.57
12.65
24.04
32.83
39.36
43.81
46.26
46.85
45.94
44.12
42.10
40.47
39.50
39.10
38.89
38.46
37.54
36.11
34.36
32.48
30.54
28.44
25.92
22.76
18.83
14.13
8.81
3.09
-2.74
-8.40
-13.61
-18.21
-22.28
-26.10
-30.12
-34.93
-40.97
-48.44
-57.12
-66.21
-74.41
-80.04
-81.43
-77.41
-67.76
-53.34
-35.93
-17.67
-0.50
14.30
26.21
35.22
41.49
45.19
46.45
45.57
43.18
40.18
37.53
35.96
35.70
36.51
37.77
38.82
39.13
38.51
37.09
35.15
33.01
30.77
28.32
25.33
21.42
16.35
10.20
3.34
-3.68
-10.33
-16.28
-21.52
-26.27
-30.93
-35.95
-41.75
-48.67
-56.86
-66.07
-75.50
-83.70
-88.79
-88.96
-83.10
-71.26
-54.75
-35.67
-16.34
1.42
16.57
28.79
38.18
45.01
49.49
51.85
52.42
51.69
50.25
48.69
47.44
46.72
46.50
46.54
46.49
46.03
44.90
43.09
40.69
37.93
35.01
31.91
28.47
24.38
19.38
13.38
6.60
-0.55
-7.56
-14.02
-19.78
-24.93
-29.82
-34.91
-40.68
-47.56
-55.75
-65.08
-74.80
-83.60
-89.72
-91.39
-87.33
-77.23
-61.97
-43.37
-23.73
-5.16
10.90
23.85
33.80
41.17
46.35
49.60
51.09
51.05
49.93
48.30
46.79
45.81
45.45
45.54
45.69
45.58
44.96
43.80
42.21
40.35
38.29
35.92
32.96
29.04
23.89
17.49
10.13
2.38
-5.13
-11.92
-17.84
-23.07
-28.04
-33.30
-39.41
-46.72
-55.29
-64.67
-73.81
-81.11
-84.73
-83.16
-75.68
-62.74
-45.83
-27.07
-8.57
8.08
21.98
32.83
40.67
45.61
47.86
47.77
45.91
43.16
40.41
38.32
37.17
36.73
36.48
35.92
34.76
33.06
31.14
29.33
27.77
26.25
24.33
21.49
17.34
11.84
5.26
-1.82
-8.77
-15.09
-20.52
-25.24
-29.76
-34.83
-41.16
-49.15
-58.48
-68.09
-76.21
-80.88
-80.47
-74.24
-62.57
-46.88
-29.13
-11.37
4.83
18.51
29.30
37.14
42.17
44.58
44.70
43.08
40.52
37.89
35.91
34.89
34.64
34.66
34.33
33.32
31.62
29.55
27.45
25.46
23.35
20.60
16.64
11.14
4.24
-3.46
-11.05
-17.75
-23.15
-27.44
-31.34
-35.82
-41.80
-49.78
-59.58
-70.18
-79.81
-86.33
-87.78
-82.99
-72.05
-56.26
-37.76
-18.81
-1.13
14.35
27.39
38.12
46.54
52.50
55.78
56.43
54.90
52.12
49.12
46.70
45.18
44.31
43.51
42.20
40.07
37.19
33.98
30.87
28.09
25.50
22.66
19.03
14.21
8.18
1.29
-5.83
-12.54
-18.39
-23.31
-27.64
-32.04
-37.30
-44.13
-52.87
-63.25
-74.22
-84.11
-90.81
-92.43
-87.81
-76.97
-61.10
-42.27
-22.76
-4.48
11.42
24.59
35.15
43.38
49.42
53.27
55.02
54.95
53.70
52.08
50.80
50.23
50.27
50.43
50.11
48.86
46.62
43.69
40.51
37.46
34.59
31.60
27.98
23.24
17.23
10.22
2.87
-4.12
-10.24
-15.44
-20.16
-25.16
-31.24
-38.99
-48.55
-59.45
-70.59
-80.32
-86.76
-88.24
-83.76
-73.37
-58.17
-40.02
-20.98
-2.81
13.36
27.01
38.06
46.57
52.62
56.29
57.77
57.43
55.85
53.69
51.57
49.91
48.79
48.09
47.49
46.65
45.36
43.54
41.27
38.67
35.87
32.86
29.54
25.70
21.14
15.80
9.79
3.47
-2.72
-8.35
-13.24
-17.46
-21.37
-25.49
-30.33
-36.37
-43.90
-52.92
-62.96
-72.92
-81.17
-85.76
-85.06
-78.21
-65.53
-48.47
-29.16
-9.81
7.79
22.57
34.11
42.43
47.74
50.36
50.74
49.41
47.03
44.24
41.60
39.44
37.83
36.68
35.76
34.83
33.69
32.26
30.54
28.60
26.47
24.09
21.24
17.58
12.83
6.91
0.12
-6.94
-13.55
-19.16
-23.63
-27.30
-30.84
-34.99
-40.38
-47.32
-55.74
-65.08
-74.23
-81.57
-85.30
-83.83
-76.44
-63.48
-46.46
-27.46
-8.61
8.47
22.85
34.12
42.14
46.89
48.51
47.45
44.49
40.71
37.15
34.57
33.21
32.86
33.00
33.09
32.74
31.82
30.34
28.35
25.81
22.54
18.37
13.22
7.27
0.90
-5.38
-11.19
-16.41
-21.21
-25.93
-31.01
-36.85
-43.77
-51.88
-60.86
-69.78
-77.07
-80.77
-79.09
-71.14
-57.34
-39.38
-19.73
-0.78
15.80
29.31
39.85
47.80
53.43
56.80
57.87
56.84
54.28
51.08
48.15
46.09
44.98
44.43
43.83
42.64
40.60
37.81
34.58
31.24
27.96
24.61
20.83
16.22
10.55
3.88
-3.41
-10.75
-17.60
-23.62
-28.75
-33.24
-37.62
-42.55
-48.67
-56.38
-65.59
-75.50
-84.54
-90.69
-91.99
-87.15
-76.08
-59.85
-40.47
-20.22
-1.08
15.65
29.41
40.14
48.06
53.42
56.47
57.49
56.85
55.06
52.69
50.33
48.39
47.04
46.20
45.54
44.64
43.18
41.00
38.20
34.99
31.61
28.12
24.40
20.17
15.17
9.29
2.70
-4.20
-10.91
-17.01
-22.35
-27.08
-31.60
-36.35
-41.68
-47.81
-54.84
-62.72
-71.23
-79.75
-87.15
-91.82
-91.99
-86.35
-74.57
-57.61
-37.48
-16.68
2.54
18.72
31.31
40.45
46.65
50.42
52.20
52.39
51.46
49.91
48.21
46.69
45.51
44.64
43.95
43.31
42.57
41.61
40.27
38.42
35.98
32.93
29.37
25.41
21.15
16.61
11.71
6.40
0.65
-5.47
-11.76
-18.02
-24.05
-29.70
-34.86
-39.55
-43.96
-48.53
-53.88
-60.62
-68.87
-77.96
-86.28
-91.59
-91.78
-85.58
-73.16
-55.99
-36.44
-16.84
1.01
16.15
28.28
37.42
43.63
46.96
47.58
46.00
43.11
39.95
37.47
36.14
35.88
36.16
36.26
35.66
34.19
32.13
29.87
27.76
25.83
23.73
20.98
17.13
12.00
5.80
-0.98
-7.66
-13.73
-18.90
-23.28
-27.25
-31.41
-36.31
-42.40
-49.76
-57.97
-66.06
-72.51
-75.66
-74.09
-67.19
-55.36
-39.95
-22.89
-6.04
9.21
22.11
32.38
39.99
44.86
47.00
46.58
44.10
