1706710441.00
64.000000
-0.00
-0.00
-0.00
-0.00
-0.00
-0.00
-0.00
-0.00
-0.00
-0.00
0.00
0.01
0.01
-0.00
-0.03
-0.05
-0.05
0.00
0.13
0.36
0.66
1.01
1.37
1.72
2.06
2.40
2.79
3.24
3.80
4.42
5.06
5.66
6.20
6.68
7.15
7.68
8.31
9.14
10.09
11.04
11.88
12.56
13.14
13.76
14.65
15.96
17.91
20.32
22.90
25.38
27.58
29.57
31.68
34.32
37.81
42.54
48.15
54.10
59.83
64.97
69.58
74.14
79.34
85.71
93.76
103.00
112.62
121.73
129.77
136.75
143.30
150.75
157.77
166.64
177.95
191.79
206.97
220.57
228.25
225.36
208.53
176.87
132.76
80.05
23.07
-34.94
-92.44
-149.16
-205.23
-260.37
-313.74
-363.87
-409.82
-450.88
-486.46
-515.68
-537.14
-549.09
-549.80
-538.16
-513.94
-478.35
-433.50
-382.01
-326.51
-269.26
-211.99
-155.94
-102.16
-51.50
-4.95
36.62
72.56
102.59
126.85
145.85
160.30
170.91
178.30
182.87
184.90
184.63
182.33
178.35
173.10
166.98
160.35
153.45
146.42
139.34
132.24
125.18
118.22
111.41
104.85
98.58
92.63
87.01
81.76
76.85
72.32
68.16
64.39
61.00
58.00
55.41
53.20
51.38
49.92
48.79
47.93
47.24
46.60
45.86
44.82
43.31
41.18
38.28
34.56
30.01
24.67
18.69
12.27
5.66
-0.86
-7.02
-12.57
-17.31
-21.11
-23.89
-25.63
-26.42
-26.34
-25.55
-24.18
-22.38
-20.28
-17.99
-15.57
-13.07
-10.53
-8.00
-5.46
-2.95
-0.42
2.11
4.68
7.32
10.07
12.90
15.80
18.78
21.85
25.01
28.30
31.73
35.34
39.20
43.19
47.29
51.47
55.73
60.08
64.55
69.18
74.05
79.27
84.67
90.17
95.72
101.30
106.87
112.43
117.98
123.56
129.21
134.66
139.71
144.15
147.75
150.24
151.24
150.27
146.62
141.61
135.70
129.19
122.26
115.08
107.74
100.36
93.01
85.82
78.92
72.14
65.26
58.10
50.63
42.89
35.07
27.43
20.21
13.64
7.65
2.05
-3.32
-8.58
-13.71
-18.59
-23.05
-26.89
-29.97
-32.35
-34.44
-36.59
-39.07
-41.85
-44.74
-47.41
-49.59
-51.12
-52.06
-53.57
-56.68
-62.05
-69.72
-79.05
-89.10
-98.96
-108.07
-116.27
-125.77
-138.52
-155.89
-177.93
-203.38
-230.34
-257.14
-282.84
-307.31
-334.32
-367.19
-408.34
-457.82
-513.27
-570.96
-627.10
-678.82
-724.29
-766.82
-809.25
-853.44
-898.27
-939.46
-971.07
-987.35
-984.27
-933.22
-817.40
-632.51
-391.97
-122.75
144.14
383.37
580.28
730.49
836.65
898.18
921.30
911.10
873.14
814.49
743.29
667.42
592.93
523.36
455.96
389.41
321.04
249.60
175.75
101.05
26.96
-45.15
-112.99
-174.40
-224.69
-259.14
-273.92
-268.12
-244.79
-210.03
-170.78
-132.35
-98.34
-69.77
-47.02
-29.81
-17.21
-7.36
2.78
17.04
38.78
68.99
105.61
143.28
175.29
196.18
204.09
201.67
195.22
192.32
198.86
216.87
243.81
273.85
300.25
317.59
323.35
318.26
305.79
290.96
278.88
273.35
275.84
285.04
297.31
307.62
311.01
304.00
285.56
257.46
223.54
188.48
156.28
129.15
107.18
88.82
71.87
54.43
35.53
15.28
-5.34
-25.01
-42.69
-58.07
-71.81
-85.31
-100.10
-117.08
-136.03
-155.62
-173.98
-189.46
-201.13
-208.70
-211.97
-210.30
-202.36
-186.83
-163.16
-132.52
-98.09
-64.53
-37.22
-21.44
-21.76
-41.41
-81.34
-139.23
-208.98
-281.53
-347.13
-398.32
-432.20
-450.67
-458.57
-460.77
-459.84
-455.68
-446.82
-432.28
-412.60
-389.55
-364.70
-338.16
-308.27
-272.28
-227.49
-172.03
-105.57
-29.87
50.82
129.80
199.09
251.56
283.43
295.66
293.50
284.39
275.08
269.42
267.89
268.83
270.32
271.60
272.96
274.91
277.45
279.95
281.55
281.54
279.93
277.58
276.13
277.10
281.35
288.85
298.91
310.34
321.07
328.72
330.85
324.88
307.46
274.48
222.72
151.87
66.19
-26.54
-117.00
-197.39
-261.92
-307.67
-336.58
-354.16
-365.85
-373.73
-377.30
-375.25
-367.44
-355.05
-340.01
-323.88
-306.87
-290.71
-273.51
-254.51
-234.46
-215.20
-198.27
-184.55
-174.11
-166.08
-159.01
-151.16
-141.90
-131.42
-121.05
-111.75
-104.02
-97.78
-92.43
-87.06
-80.67
-73.16
-65.08
-57.30
-50.46
-44.90
-40.64
-37.41
-34.74
-32.04
-29.20
-26.39
-23.93
-22.00
-20.64
-19.74
-19.05
-18.31
-17.15
-15.50
-13.43
-11.16
-8.85
-6.61
-4.44
-2.20
0.31
3.33
6.92
10.99
15.22
19.29
22.95
26.17
29.18
32.42
36.33
41.14
46.75
52.72
58.51
63.71
68.31
72.81
78.00
84.67
93.28
103.71
115.35
127.40
139.23
150.68
162.12
174.24
187.88
203.94
223.18
245.94
271.66
298.30
322.43
339.90
347.30
343.31
329.32
308.94
286.52
265.40
247.04
231.06
216.22
201.52
186.75
172.25
158.31
144.67
130.60
115.36
98.80
81.66
65.29
51.19
40.19
32.12
25.90
20.05
13.35
5.29
-3.77
-12.95
-21.28
-28.26
-33.98
-38.98
-44.02
-49.73
-56.40
-63.96
-72.06
-80.03
-86.98
-91.86
-93.66
-91.69
-85.78
-76.43
-64.69
-51.83
-39.08
-27.37
-17.26
-8.98
-2.64
1.71
4.11
4.67
3.75
1.94
-0.08
-1.65
-2.38
-2.21
-1.40
-0.41
0.30
0.46
0.01
-0.91
-2.06
-3.27
-4.47
-5.75
-7.35
-9.60
-12.86
-17.53
-23.82
-31.72
-40.75
-49.83
-57.43
-61.92
-62.01
-57.30
-48.41
-36.78
-24.20
-12.18
-1.68
6.96
13.69
18.59
21.61
22.75
22.15
20.22
17.59
14.96
12.86
11.60
11.09
11.01
10.92
10.40
9.21
7.37
5.08
2.65
0.31
-1.94
-4.34
-7.33
-11.31
-16.62
-23.34
-31.29
-39.93
-48.33
-55.25
-59.27
-59.16
-54.27
-44.81
-31.87
-17.21
-2.66
10.27
20.76
28.66
34.24
37.79
39.49
39.39
37.53
34.22
30.06
25.82
22.24
19.75
18.36
17.71
17.24
16.47
15.12
13.18
10.86
8.39
5.91
3.39
0.63
-2.63
-6.65
-11.64
-17.71
-24.86
-32.85
-41.06
-48.44
-53.61
-55.21
-52.33
-44.91
-33.81
-20.56
-6.86
5.85
16.71
25.31
31.58
35.51
37.13
36.58
34.20
30.58
26.52
22.83
20.13
18.72
18.52
19.13
20.00
20.56
20.47
19.62
18.09
16.04
13.65
10.93
7.77
4.00
-0.58
-6.17
-12.86
-20.59
-28.94
-37.09
-43.80
-47.65
-47.47
-42.75
-33.88
-22.11
-9.12
3.40
14.25
22.84
29.09
33.27
35.61
36.34
35.61
33.66
30.90
27.85
25.06
22.94
21.64
21.00
20.67
20.19
19.16
17.37
14.83
11.73
8.36
4.95
1.59
-1.79
-5.36
-9.40
-14.16
-19.82
-26.43
-33.68
-40.85
-46.79
-50.12
-49.64
-44.79
-35.88
-24.00
-10.81
2.06
13.36
22.44
29.19
33.86
36.80
38.31
38.53
37.59
35.67
33.12
30.42
28.08
26.44
25.54
25.13
24.78
24.04
22.61
20.44
17.63
14.39
10.93
7.41
3.89
0.36
-3.28
-7.19
-11.57
-16.60
-22.40
-28.94
-35.87
-42.43
-47.54
-49.97
-48.69
-43.29
-34.14
-22.34
-9.42
3.18
14.28
23.27
29.93
34.34
36.71
37.33
36.55
34.81
32.57
30.26
28.17
26.44
25.09
24.01
23.08
22.20
21.29
20.30
19.18
17.87
16.27
14.22
11.53
8.07
3.83
-1.01
-6.08
-10.91
-15.13
-18.65
-21.74
-24.96
-28.91
-33.86
-39.57
-45.12
-49.24
-50.61
-48.41
-42.51
-33.58
-22.77
-11.37
-0.43
9.35
17.63
24.21
28.92
31.61
32.27
31.21
29.02
26.49
24.36
23.06
22.58
22.55
22.42
21.76
20.41
18.56
16.60
14.97
13.87
13.17
12.42
11.08
8.75
5.37
1.21
-3.21
-7.40
-11.08
-14.24
-17.10
-20.01
-23.27
-27.05
-31.38
-36.06
-40.62
-44.36
-46.37
-45.77
-42.04
-35.26
-26.15
-15.91
-5.84
2.95
9.91
14.94
18.28
20.24
21.05
20.87
19.80
18.03
15.86
13.61
11.60
10.02
8.92
8.23
7.80
7.46
7.13
6.77
6.36
5.87
5.14
3.94
2.09
-0.44
-3.48
-6.66
-9.58
-11.91
-13.57
-14.75
-15.81
-17.23
-19.41
-22.52
-26.35
-30.29
-33.41
-34.74
-33.59
-29.78
-23.70
-16.23
-8.40
-1.17
4.84
9.31
12.20
13.58
13.60
12.43
10.32
7.62
4.79
2.25
0.29
-0.99
-1.66
-1.84
-1.66
-1.19
-0.49
0.30
0.95
1.20
0.83
-0.28
-2.04
-4.26
-6.69
-9.10
-11.35
-13.45
-15.52
-17.83
-20.59
-23.89
-27.54
-31.00
-33.52
-34.25
-32.62
-28.46
-22.12
-14.40
-6.30
1.19
7.32
11.70
14.28
15.33
15.18
14.25
12.85
11.23
9.53
7.89
6.36
5.02
3.93
3.15
2.71
2.57
2.60
2.57
2.27
1.47
0.11
-1.78
-4.04
-6.46
-8.80
-10.90
-12.69
-14.29
-15.97
-18.14
-21.09
-24.87
-29.09
-33.01
-35.65
-36.23
-34.32
-30.01
-23.77
-16.33
-8.51
-1.09
5.27
10.14
13.32
14.89
15.18
14.64
13.73
12.83
12.13
11.69
11.45
11.22
10.90
10.38
9.71
8.98
8.26
7.54
6.69
5.51
3.86
1.72
-0.82
-3.59
-6.40
-9.05
-11.45
-13.62
-15.72
-18.03
-20.88
-24.48
-28.75
-33.24
-37.12
-39.43
-39.34
-36.41
-30.75
-22.97
-14.02
-4.97
3.32
10.28
15.62
19.36
21.59
22.48
22.21
20.99
19.17
17.14
15.29
13.90
13.06
12.63
12.34
12.01
11.58
11.15
10.82
10.61
10.37
9.77
8.49
6.28
3.12
-0.82
-5.25
-9.84
-14.37
-18.70
-22.90
-27.15
-31.68
-36.60
-41.76
-46.58
-50.25
-51.80
-50.52
-46.17
-39.07
-29.96
-19.82
-9.59
-0.03
8.29
15.00
19.86
22.79
23.98
23.78
22.74
21.43
20.28
19.48
18.98
18.60
18.14
17.52
16.72
15.79
14.74
13.51
11.97
10.02
7.64
4.93
2.11
-0.60
-3.02
-5.11
-6.95
-8.79
-10.98
-13.93
-18.01
-23.39
-29.87
-36.77
-43.00
-47.25
-48.47
-46.11
-40.42
-32.31
-23.09
-14.01
-6.02
0.45
5.40
9.07
11.70
13.45
14.38
14.55
14.11
13.30
12.37
11.47
10.61
9.71
8.69
7.63
6.65
5.84
5.12
4.32
3.17
1.58
-0.45
-2.76
-5.24
-7.87
-10.68
-13.68
-16.77
-19.84
-22.87
-26.03
-29.55
-33.47
-37.34
-40.15
-40.61
-37.61
-30.74
-20.59
-8.62
3.30
13.50
20.99
25.70
28.29
29.84
31.34
33.37
35.92
38.55
40.55
41.20
40.06
37.04
32.69
28.32
26.09
28.53
37.74
54.17
75.82
98.33
116.12
124.35
120.66
105.90
83.46
57.61
31.73
7.32
-15.73
-38.24
-60.64
-82.39
-102.16
-118.40
-129.86
-135.87
-136.25
-131.12
-120.86
-106.03
-87.64
-67.13
-46.27
-26.72
-9.75
4.20
15.55
25.37
35.05
45.86
58.47
72.69
87.41
100.77
110.72
115.55
114.41
107.58
96.41
82.82
68.89
56.29
46.11
38.74
33.98
31.21
29.65
28.60
27.58
26.47
25.31
24.18
22.99
21.46
19.21
15.97
11.68
6.51
0.78
-5.19
-11.09
-16.59
-21.33
-24.82
-26.58
-26.31
-23.99
-19.96
-14.85
-9.46
-4.52
-0.59
2.12
3.72
4.49
4.79
4.91
5.01
5.14
5.28
5.40
5.51
5.58
5.59
5.49
5.24
4.85
4.31
3.65
2.86
1.91
0.81
-0.39
-1.61
-2.70
-3.47
-3.77
-3.54
-2.85
-1.98
-1.33
-1.31
-2.20
-4.02
-6.54
-9.36
-12.04
-14.23
-15.74
-16.57
-16.83
-16.67
-16.29
-15.80
-15.29
-14.78
-14.31
-13.99
-13.99
-14.48
-15.58
-17.16
-18.95
-20.57
-21.72
-22.26
-22.29
-22.05
-21.82
-21.74
-21.81
-21.94
-22.09
-22.31
-22.72
-23.46
-24.47
-25.45
-25.95
-25.55
-24.05
-21.64
-18.84
-16.29
-14.44
-13.46
-13.15
-13.15
-13.05
-12.68
-12.01
-11.14
-10.22
-9.33
-8.54
-7.91
-7.52
-7.44
-7.69
-8.20
-8.80
-9.34
-9.69
-9.84
-9.87
-9.94
-10.13
-10.45
-10.77
-10.93
-10.79
-10.29
-9.52
-8.64
-7.87
-7.33
-7.04
-6.90
-6.72
-6.42
-5.95
-5.43
-4.97
-4.66
-4.49
-4.33
-4.02
-3.45
-2.60
-1.56
-0.50
0.35
0.77
0.61
-0.19
-1.47
-2.93
-4.16
-4.83
-4.78
-4.13
-3.21
-2.41
-2.00
-2.01
-2.28
-2.53
-2.51
-2.15
-1.50
-0.68
0.19
1.09
2.06
3.12
4.18
5.12
5.76
6.01
5.85
5.35
4.65
3.82
2.91
1.98
1.09
0.31
-0.26
-0.56
-0.64
-0.63
-0.70
-1.03
-1.71
-2.67
-3.75
-4.71
-5.34
-5.55
-5.39
-4.99
-4.47
-3.86
-3.12
-2.22
-1.21
-0.23
0.47
0.73
0.48
-0.21
-1.18
-2.26
-3.27
-4.02
-4.35
-4.14
-3.37
-2.18
-0.80
0.53
1.66
2.52
3.14
3.59
3.96
4.38
5.07
6.21
7.81
9.59
11.00
11.46
10.60
8.51
5.73
3.01
1.02
0.06
0.10
0.84
1.94
3.14
4.28
5.29
6.11
6.73
7.11
7.23
7.04
6.47
5.53
4.31
2.99
1.79
0.85
0.17
-0.40
-1.03
-1.88
-2.98
-4.26
-5.60
-6.85
-7.84
-8.45
-8.61
-8.37
-7.87
-7.31
-6.85
-6.61
-6.68
-7.09
-7.82
-8.70
-9.46
-9.69
-9.08
-7.56
-5.41
-3.13
-1.22
-0.03
0.46
0.45
0.22
0.03
-0.01
0.15
0.49
0.91
1.28
1.38
1.07
0.30
-0.76
-1.85
-2.58
-2.61
-1.71
0.10
2.50
4.85
6.34
6.30
4.56
1.61
-1.52
-3.65
-3.97
-2.30
0.90
4.90
9.09
13.10
16.82
20.17
22.88
24.63
25.11
24.29
22.41
19.91
17.23
14.74
12.61
10.89
9.53
8.40
7.26
5.88
4.08
1.86
-0.60
-3.04
-5.37
-7.73
-10.57
-14.42
-19.60
-25.97
-32.95
-39.74
-45.74
-50.80
-55.22
-59.53
-64.17
-69.21
-74.36
-79.21
-83.45
-86.99
-89.96
-92.62
-95.13
-97.66
-100.36
-103.41
-107.02
-111.43
-116.73
-122.91
-129.80
-137.00
-143.98
-150.00
-154.24
-155.90
-154.28
-148.84
-139.18
-125.08
-106.53
-83.82
-57.62
-29.04
0.58
29.75
57.17
81.79
102.90
120.06
133.05
141.91
146.85
148.36
147.05
143.61
138.68
132.75
126.17
119.16
111.95
104.76
97.81
91.31
85.32
79.78
74.60
69.61
64.70
59.85
55.06
50.41
46.03
42.01
38.44
35.26
32.35
29.44
26.34
22.88
19.15
15.42
12.04
9.31
7.33
5.92
4.70
3.25
1.33
-1.00
-3.39
-5.32
-6.38
-6.38
-5.48
-4.08
-2.58
-1.25
-0.09
1.04
2.25
3.52
4.66
5.40
5.61
5.30
4.64
3.86
3.11
2.44
1.90
1.52
1.38
1.51
1.89
2.37
2.81
3.07
3.12
2.99
2.72
2.39
2.08
1.87
1.85
2.00
2.20
2.28
2.07
1.57
0.91
0.28
-0.20
-0.56
-0.93
-1.48
-2.24
-3.03
-3.60
-3.71
-3.32
-2.60
-1.82
-1.24
-0.96
-0.87
-0.75
-0.38
0.37
1.39
2.46
3.32
3.83
4.00
4.00
4.03
4.19
4.43
4.58
4.51
4.22
3.86
3.66
3.73
4.04
4.36
4.39
3.95
3.03
1.85
0.70
-0.19
-0.72
-0.95
-1.01
-1.04
-1.13
-1.33
-1.68
-2.17
-2.79
-3.42
-3.93
-4.16
-4.01
-3.47
-2.70
-1.86
-1.12
-0.59
-0.19
0.15
0.54
1.03
1.57
2.06
2.38
2.51
2.47
2.34
2.13
1.81
1.33
0.68
-0.04
-0.66
-1.01
-1.05
-0.90
-0.73
-0.70
-0.85
-1.10
-1.31
-1.40
-1.41
-1.47
-1.71
-2.22
-2.92
-3.67
-4.28
-4.62
-4.67
-4.49
-4.19
-3.83
-3.45
-2.99
-2.41
-1.73
-1.04
-0.48
-0.13
0.01
0.03
0.09
0.28
0.62
1.05
1.46
1.78
1.98
2.11
2.26
2.50
2.84
3.27
3.74
4.20
4.63
5.01
5.36
5.62
5.74
5.63
5.20
4.45
3.42
2.23
1.04
-0.01
-0.83
-1.43
-1.95
-2.49
-3.11
-3.70
-4.01
-3.79
-2.94
-1.69
-0.49
0.18
0.07
-0.64
-1.51
-2.00
-1.85
-1.13
-0.14
0.80
1.54
2.15
2.80
3.59
4.45
5.18
5.58
5.58
5.30
4.98
4.94
5.43
6.57
8.28
10.31
12.35
14.13
15.51
16.51
17.24
17.82
18.35
18.84
19.34
19.96
20.84
22.12
23.78
25.69
27.56
29.14
30.24
30.77
30.74
30.11
28.78
26.63
23.59
19.73
15.31
10.73
6.37
2.47
-0.98
-4.17
-7.23
-9.92
-11.57
-11.21
-8.09
-2.14
5.68
13.52
19.11
20.45
16.22
6.02
-9.63
-29.36
-50.98
-71.70
-88.61
-99.32
-102.78
-99.57
-91.70
-81.81
-72.14
-63.90
-57.20
-51.43
-45.93
-40.38
-34.92
-29.94
-25.76
-22.43
-19.75
-17.36
-14.96
-12.44
-9.84
-7.34
-5.00
-2.80
-0.58
1.80
4.29
6.63
8.35
9.04
8.55
7.07
5.07
3.11
1.47
0.17
-1.07
-2.50
-4.29
-6.35
-8.49
-10.49
-12.17
-13.47
-14.35
-14.72
-14.51
-13.63
-12.04
-9.77
-6.92
-3.61
0.02
3.77
7.39
10.61
13.19
15.02
16.13
16.72
17.07
17.48
18.17
19.21
20.47
21.75
22.78
23.44
23.74
23.82
23.81
23.77
23.59
23.11
22.21
21.00
19.71
18.63
17.90
17.38
16.80
15.90
14.60
13.01
11.37
9.86
8.50
7.21
5.86
4.38
2.87
1.54
0.66
0.44
0.93
1.99
3.34
4.62
5.52
5.85
5.65
5.10
4.51
4.14
4.22
4.79
5.75
6.90
7.96
8.70
9.01
8.92
8.54
8.00
7.40
6.73
5.99
5.27
4.71
4.48
4.65
5.19
5.97
6.82
7.60
8.23
8.69
8.93
8.94
8.69
8.20
7.52
6.80
6.23
6.01
6.28
7.03
8.08
9.03
9.46
9.11
8.02
6.54
5.15
4.19
3.69
3.37
2.78
1.64
-0.12
-2.24
-4.37
-6.20
-7.64
-8.73
-9.62
-10.39
-10.97
-11.19
-10.91
-10.11
-8.90
-7.55
-6.30
-5.34
-4.69
-4.33
-4.18
-4.27
-4.63
-5.29
-6.22
-7.31
-8.43
-9.50
-10.47
-11.41
-12.34
-13.30
-14.22
-14.95
-15.29
-15.05
-14.13
-12.60
-10.64
-8.57
-6.68
-5.10
-3.88
-2.91
-2.11
-1.46
-1.00
-0.81
-0.86
-1.05
-1.23
-1.27
-1.15
-0.86
-0.38
0.35
1.38
2.67
4.04
5.12
5.61
5.34
4.46
3.30
2.22
1.43
0.91
0.50
0.04
-0.54
-1.19
-1.81
-2.26
-2.49
-2.43
-2.03
-1.17
0.24
2.24
4.81
7.80
11.00
14.19
17.13
19.68
21.76
23.40
24.73
25.99
27.43
29.30
31.67
34.40
37.16
39.56
41.34
42.54
43.61
45.21
47.91
51.89
56.86
62.16
67.02
70.97
73.90
76.03
77.58
78.57
78.73
77.59
74.66
69.51
61.86
51.50
38.43
22.99
5.97
-11.32
-27.32
-40.56
-50.09
-55.73
-58.11
-58.33
-57.75
-57.53
-58.42
-60.76
-64.45
-69.12
-74.24
-79.23
-83.50
-86.56
-88.10
-88.11
-86.86
-84.74
-82.13
-79.20
-75.80
-71.72
-66.82
-61.23
-55.39
-49.82
-44.93
-40.82
-37.34
-34.16
-31.02
-27.79
-24.42
-20.98
-17.56
-14.36
-11.68
-9.79
-8.88
-8.89
-9.55
-10.43
-11.26
-12.01
-12.87
-14.05
-15.54
-16.89
-17.43
-16.54
-14.04
-10.26
-5.97
-2.01
1.09
3.18
4.54
5.57
6.54
7.52
8.35
8.82
8.81
8.39
7.78
7.25
7.01
7.21
7.88
9.00
10.48
12.21
14.00
15.63
16.90
17.63
17.75
17.29
16.31
14.86
12.99
10.77
8.39
6.05
3.98
2.23
0.68
-0.90
-2.71
-4.74
-6.76
-8.38
-9.19
-8.97
-7.71
-5.54
-2.72
0.50
3.80
6.87
9.42
11.31
12.55
13.29
13.75
14.04
14.20
14.23
14.18
14.21
14.47
15.01
15.64
16.07
16.07
15.65
15.04
14.60
14.53
14.79
15.08
15.01
14.35
13.10
11.51
9.91
8.52
7.40
6.44
5.49
4.53
3.61
2.82
2.20
1.64
0.98
0.13
-0.84
-1.70
-2.18
-2.11
-1.54
-0.66
0.25
1.00
1.55
1.93
2.23
2.46
2.59
2.65
2.68
2.80
3.10
3.57
4.09
4.47
4.50
4.12
3.41
2.62
2.03
1.82
1.99
2.38
2.71
2.75
2.32
1.43
0.22
-1.06
-2.13
-2.84
-3.15
-3.26
-3.47
-4.11
-5.27
-6.82
-8.34
-9.37
-9.58
-8.94
-7.69
-6.18
-4.69
-3.33
-2.08
-0.83
0.44
1.69
2.78
3.57
3.94
3.82
3.22
2.23
1.04
-0.09
-0.92
-1.32
-1.31
-1.06
-0.81
-0.74
-0.96
-1.42
-1.97
-2.47
-2.80
-2.90
-2.82
-2.63
-2.49
-2.59
-3.10
-4.11
-5.53
-7.10
-8.43
-9.10
-8.84
-7.62
-5.59
-3.08
-0.37
2.32
4.89
7.29
9.49
11.48
13.27
14.97
16.71
18.64
20.81
23.16
25.54
27.74
29.65
31.30
32.88
34.72
37.10
40.11
43.51
46.89
49.84
52.21
54.26
56.59
59.75
64.00
68.99
73.87
77.49
78.65
76.46
70.46
60.83
48.45
34.88
22.06
11.70
4.56
-0.05
-4.16
-10.52
-21.53
-38.16
-59.51
-82.99
-105.15
-122.76
-133.62
-137.00
-133.60
-125.10
-113.65
-101.28
-89.58
-79.43
-71.10
-64.40
-58.96
-54.47
-50.76
-47.70
-45.11
-42.72
-40.19
-37.25
-33.87
-30.27
-26.86
-23.95
-21.71
-20.07
-18.89
-18.01
-17.42
-17.12
-17.00
-16.73
-15.87
-13.95
-10.75
-6.36
-1.27
3.79
8.09
11.07
12.51
12.54
11.62
10.29
9.04
8.19
7.89
8.13
8.86
10.00
11.37
12.73
13.71
13.97
13.27
11.57
9.06
6.09
3.07
0.34
-1.86
-3.41
-4.34
-4.81
-5.11
-5.65
-6.86
-9.13
-12.63
-17.16
-22.15
-26.76
-30.12
-31.61
-31.01
-28.51
-24.57
-19.66
-14.15
-8.33
-2.45
3.15
8.11
12.14
15.15
17.24
18.66
19.60
20.21
20.58
20.80
20.98
21.21
21.54
21.89
22.14
22.16
21.84
21.13
20.00
18.46
16.56
14.39
12.10
9.82
7.62
5.57
3.64
1.77
-0.13
-2.23
-4.74
-7.89
-11.77
-16.21
-20.73
-24.59
-26.96
-27.22
-25.06
-20.60
-14.27
-6.69
1.45
9.48
16.81
23.00
27.73
30.91
32.56
32.92
32.32
31.12
29.70
28.30
27.11
26.19
25.55
25.10
24.76
24.45
24.12
23.73
23.24
22.61
21.76
20.64
19.22
17.55
15.76
13.96
12.29
10.77
9.30
7.75
5.93
3.73
1.11
-1.85
-5.01
-8.14
-10.94
-13.09
-14.23
-14.12
-12.70
-10.20
-7.08
-3.89
-1.11
1.05
2.69
4.05
5.45
7.04
8.79
10.48
11.82
12.58
12.67
12.19
11.36
10.44
9.68
9.18
8.94
8.80
8.58
8.15
7.41
6.36
5.03
3.43
1.61
-0.34
-2.33
-4.25
-6.04
-7.79
-9.64
-11.67
-13.85
-15.91
-17.38
-17.80
-16.86
-14.55
-11.15
-7.14
-3.02
0.78
4.00
6.53
8.35
9.54
10.23
10.60
10.81
10.98
11.09
11.02
10.61
9.74
8.46
6.92
5.30
3.76
2.34
0.99
-0.38
-1.84
-3.45
-5.17
-6.99
-8.84
-10.70
-12.57
-14.52
-16.64
-19.05
-21.70
-24.37
-26.58
-27.72
-27.23
-24.75
-20.29
-14.21
-7.15
0.17
7.11
13.18
18.05
21.54
23.58
24.25
23.83
22.76
21.55
20.58
19.98
19.64
19.28
18.68
17.73
16.51
15.14
13.70
12.17
10.44
8.49
6.31
4.01
1.68
-0.60
-2.85
-5.11
-7.49
-10.17
-13.35
-17.15
-21.48
-25.93
-29.79
-32.24
-32.61
-30.68
-26.69
-21.28
-15.19
-9.03
-3.17
2.22
7.07
11.30
14.83
17.59
19.65
21.09
22.04
22.57
22.72
22.50
21.95
21.12
20.11
19.02
17.89
16.78
15.75
14.79
13.86
12.82
11.55
9.92
7.91
5.58
3.06
0.46
-2.14
-4.70
-7.19
-9.63
-12.06
-14.58
-17.32
-20.29
-23.25
-25.67
-26.82
-26.04
-23.04
-18.01
-11.67
-4.94
1.36
6.77
11.22
14.92
18.09
20.83
23.04
24.54
25.25
25.25
24.74
23.97
23.06
22.03
20.77
19.23
17.46
15.61
13.84
12.27
10.89
9.66
8.52
7.46
6.47
5.51
4.49
3.33
1.93
0.29
-1.51
-3.38
-5.26
-7.14
-9.07
-11.15
-13.42
-15.87
-18.38
-20.70
-22.49
-23.41
-23.13
-21.44
-18.35
-14.05
-8.88
-3.21
2.54
8.06
13.03
17.12
20.10
21.83
22.33
21.85
20.82
19.65
18.66
17.95
17.43
16.91
16.19
15.20
13.97
12.62
11.25
9.95
8.74
7.59
6.46
5.31
4.10
2.78
1.33
-0.28
-1.99
-3.72
-5.37
-6.90
-8.37
-9.95
-11.78
-13.94
-16.42
-19.14
-21.99
-24.89
-27.67
-30.05
-31.62
-31.97
-30.78
-28.06
-24.09
-19.36
-14.40
-9.61
-5.27
-1.52
1.57
4.00
5.78
7.02
7.85
8.42
8.85
9.19
9.40
9.40
9.08
8.38
7.35
6.11
4.88
3.89
3.25
2.92
2.65
2.13
1.07
-0.56
-2.64
-4.91
-7.13
-9.26
-11.43
-13.92
-16.94
-20.52
-24.35
-27.87
-30.40
-31.33
-30.35
-27.43
-22.85
-17.07
-10.63
-4.02
2.33
8.08
12.98
16.85
19.62
21.31
22.02
21.91
21.21
20.17
19.00
17.91
16.98
16.17
15.33
14.28
12.95
11.36
9.65
7.96
6.34
4.71
2.92
0.86
-1.46
-3.89
-6.20
-8.27
-10.16
-12.14
-14.57
-17.71
-21.47
-25.41
-28.80
-30.87
-31.01
-29.01
-25.02
-19.48
-12.96
-6.02
0.84
7.19
12.67
17.05
20.23
22.26
23.33
23.71
23.61
23.22
22.68
22.06
21.49
21.03
20.69
20.42
20.08
19.55
18.78
17.83
16.77
15.65
14.49
13.27
12.02
10.79
9.69
8.78
8.03
7.29
6.31
4.89
2.93
0.60
-1.68
-3.28
-3.40
-1.37
3.22
10.27
19.20
28.97
38.42
46.55
52.74
56.88
59.19
59.93
59.28
57.25
53.86
49.38
44.41
39.76
36.21
34.22
33.82
34.61
36.03
37.52
38.52
38.36
36.19
31.22
23.22
13.02
2.57
-5.70
-9.81
-9.22
-5.02
0.58
5.28
7.59
7.20
4.67
0.81
-3.85
-9.02
-14.45
-19.63
-23.71
-25.85
-25.59
-22.95
-18.47
-12.98
-7.33
-2.21
1.88
4.71
6.36
7.15
7.62
8.35
9.92
12.72
16.83
22.06
28.02
34.23
40.39
46.50
52.82
59.73
67.55
76.32
85.84
95.72
105.63
115.44
125.24
135.23
145.69
156.90
169.29
183.53
200.36
220.24
242.69
265.93
286.90
301.98
308.12
303.88
289.94
268.81
243.89
218.38
194.45
173.00
153.95
136.73
120.69
105.39
90.61
76.33
62.65
49.67
37.27
25.12
12.57
-1.10
-16.40
-33.37
-51.39
-69.40
-86.36
-101.79
-116.13
-130.64
-146.93
-166.12
-188.27
-212.22
-236.08
-257.99
-277.05
-293.70
-309.59
-327.13
-348.92
-377.14
-412.81
-454.69
-498.66
-537.58
-562.56
-565.54
-542.09
-493.48
-426.72
-352.35
-280.82
-218.97
-168.30
-125.85
-86.89
-48.04
-9.24
26.53
55.30
74.92
86.74
95.58
107.64
127.79
157.54
195.09
236.84
279.36
320.39
358.30
390.84
414.34
424.51
418.30
395.90
361.31
321.16
282.03
247.80
218.53
191.25
162.43
130.61
97.98
69.97
52.97
51.27
64.68
88.06
112.94
130.67
135.57
126.51
106.39
80.14
52.30
25.46
0.37
-23.28
-45.89
-67.48
-87.94
-107.45
-126.69
-146.65
-168.06
-191.02
-215.02
-239.32
-263.62
-288.61
-316.01
-347.79
-384.83
-425.72
-466.27
-500.52
-522.75
-529.63
-521.61
-502.63
-478.50
-454.61
-434.11
-417.16
-401.60
-384.18
-361.94
-333.13
-297.47
-255.85
-209.76
-160.63
-109.28
-55.65
0.68
59.42
118.50
173.56
218.74
248.56
259.97
253.84
234.67
209.06
183.38
161.95
146.56
136.92
131.84
129.93
129.85
130.05
128.76
124.37
116.02
104.13
90.32
76.77
65.43
57.30
52.07
48.48
44.93
40.17
33.74
25.96
17.52
9.02
0.74
-7.36
-15.39
-23.20
-30.34
-36.15
-39.98
-41.27
-39.66
-34.99
-27.45
-17.77
-7.30
2.24
9.41
13.61
15.39
16.15
17.37
19.89
23.56
27.39
30.24
31.42
31.03
29.79
28.61
28.21
28.91
30.74
33.59
37.13
40.85
43.88
45.13
43.48
38.31
29.74
18.82
7.31
-2.68
-9.22
-11.17
-8.48
-2.27
5.52
12.76
17.88
20.34
20.67
19.99
19.39
19.48
20.17
21.11
21.97
22.77
23.78
25.28
27.21
29.07
30.16
29.93
28.24
25.38
21.81
17.82
13.26
7.69
0.56
-8.45
-19.42
-32.16
-46.33
-61.29
-76.00
-88.87
-97.98
-101.49
-98.23
-88.08
-71.98
-51.56
-28.67
-5.04
17.80
38.56
56.08
69.47
78.24
82.38
82.26
78.60
72.34
64.62
56.72
49.90
45.13
42.89
42.96
44.48
46.25
47.07
46.10
42.93
37.64
30.47
21.67
11.40
-0.31
-13.35
-27.40
-41.87
-55.88
-68.34
-78.00
-83.59
-83.87
-77.96
-65.63
-47.66
-25.87
-2.88
18.50
35.95
48.09
54.59
56.03
53.55
48.52
42.32
36.03
30.35
25.43
21.02
16.60
11.69
5.94
-0.81
-8.56
-17.28
-26.95
-37.51
-48.93
-61.27
-74.67
-89.43
-105.92
-124.40
-144.92
-167.27
-191.00
-215.33
-239.29
-261.68
-281.34
-297.22
-308.69
-315.66
-318.62
-318.71
-317.48
-316.52
-316.73
-317.81
-318.18
-315.39
-307.23
-292.69
-272.60
-249.20
-225.27
-202.97
-183.27
-166.04
-150.67
-136.81
-124.59
-114.47
-106.73
-101.15
-96.82
-92.45
-86.80
-78.99
-68.81
-56.63
-43.14
-28.99
-14.47
0.73
17.33
36.24
58.02
82.59
109.04
135.92
161.68
185.23
206.31
225.45
243.80
262.62
283.11
306.12
331.93
359.77
387.47
411.46
427.53
432.19
424.03
404.45
377.19
346.94
317.54
290.88
266.71
243.65
220.46
197.05
174.54
154.58
138.30
125.70
115.66
106.60
97.36
87.73
78.46
70.57
64.55
59.88
55.16
48.71
39.34
26.87
12.16
-3.19
-17.29
-28.63
-36.40
-40.85
-43.11
-44.72
-46.96
-50.36
-54.67
-59.27
-63.59
-67.28
-69.87
-70.38
-67.18
-58.35
-42.35
-18.55
12.63
49.88
91.19
133.84
174.47
209.35
235.23
250.40
255.35
252.68
245.96
238.39
231.77
226.20
220.65
213.55
203.34
188.68
168.60
142.93
112.65
80.04
48.24
20.38
-1.38
-16.42
-25.57
-30.51
-33.02
-34.39
-35.36
-36.33
-37.58
-39.34
-41.74
-44.52
-47.08
-48.50
-48.01
-45.31
-40.76
-35.32
-30.19
-26.38
-24.37
-24.03
-24.84
-26.21
-27.75
-29.37
-31.22
-33.46
-36.08
-38.85
-41.36
-43.15
-43.83
-43.14
-40.99
-37.46
-32.82
-27.49
-21.96
-16.66
-11.82
-7.45
-3.46
0.18
3.30
5.51
6.43
5.90
4.17
1.86
-0.23
-1.50
-1.73
-1.05
0.14
1.40
2.44
3.13
3.38
3.10
2.13
0.33
-2.33
-5.73
-9.56
-13.42
-16.94
-19.85
-22.03
-23.48
-24.27
-24.44
-23.98
-22.79
-20.77
-17.85
-14.09
-9.76
-5.24
-1.00
2.53
5.10
6.69
7.46
7.62
7.37
6.81
5.94
4.68
3.00
0.92
-1.40
-3.70
-5.71
-7.22
-8.21
-8.85
-9.46
-10.41
-11.97
-14.16
-16.68
-18.97
-20.31
-20.08
-17.93
-13.91
-8.38
-1.95
4.70
10.94
16.27
20.27
22.68
23.41
22.64
20.78
18.33
15.76
13.37
11.23
9.28
7.45
5.70
4.04
2.44
0.81
-0.97
-3.05
-5.42
-8.03
-10.79
-13.72
-16.97
-20.73
-25.01
-29.54
-33.69
-36.62
-37.61
-36.27
-32.67
-27.33
-20.93
-14.11
-7.37
-1.03
4.63
9.29
12.68
14.60
15.12
14.52
13.32
11.93
10.62
9.44
8.27
7.00
5.60
4.16
2.82
1.62
0.45
-0.85
-2.52
-4.66
-7.27
-10.24
-13.34
-16.32
-18.85
-20.55
-21.06
-20.11
-17.72
-14.15
-9.89
-5.51
-1.50
1.81
4.29
5.87
6.50
6.15
4.88
2.91
0.67
-1.33
-2.63
-3.04
-2.69
-2.03
-1.51
-1.44
-1.81
-2.39
-2.88
-3.16
-3.32
-3.70
-4.68
-6.58
-9.51
-13.23
-17.21
-20.74
-23.05
-23.56
-22.08
-18.82
-14.32
-9.26
-4.26
0.17
3.64
5.86
6.68
6.12
4.51
2.39
0.38
-1.05
-1.75
-1.80
-1.52
-1.17
-0.95
-0.93
-1.13
-1.56
-2.19
-2.97
-3.78
-4.51
-5.19
-5.97
-7.00
-8.37
-9.88
-11.11
-11.52
-10.63
-8.25
-4.52
0.12
5.06
9.68
13.49
16.16
17.57
17.74
16.86
15.22
13.10
10.78
8.50
6.38
4.53
2.98
1.72
0.71
-0.10
-0.76
-1.32
-1.85
-2.40
-3.07
-3.98
-5.28
-7.07
-9.42
-12.29
-15.57
-19.06
-22.48
-25.48
-27.63
-28.45
-27.56
-24.80
-20.41
-14.99
-9.41
-4.46
-0.64
1.89
3.28
3.77
3.57
2.84
1.80
0.70
-0.17
-0.62
-0.70
-0.69
-0.89
-1.49
-2.45
-3.53
-4.49
-5.26
-5.99
-6.93
-8.36
-10.42
-13.08
-16.28
-19.93
-23.98
-28.27
-32.47
-36.02
-38.26
-38.66
-36.99
-33.56
-29.04
-24.34
-20.20
-17.03
-14.87
-13.50
-12.78
-12.69
-13.30
-14.53
-15.97
-16.87
-16.36
-13.85
-9.27
-3.12
3.85
10.85
17.46
23.55
29.20
34.56
39.77
44.98
50.40
56.14
62.01
67.44
71.50
73.20
71.89
67.48
60.53
51.98
42.83
33.83
25.40
17.71
10.87
5.04
0.36
-3.08
-5.47
-7.19
-8.66
-10.13
-11.57
-12.73
-13.29
-13.15
-12.46
-11.48
-10.45
-9.42
-8.27
-6.91
-5.44
-4.14
-3.37
-3.36
-4.12
-5.46
-7.12
-8.89
-10.71
-12.59
-14.63
-16.86
-19.26
-21.68
-23.85
-25.43
-26.13
-25.77
-24.43
-22.37
-19.98
-17.66
-15.74
-14.36
-13.56
-13.27
-13.41
-13.88
-14.63
-15.63
-16.87
-18.26
-19.61
-20.62
-21.03
-20.65
-19.58
-18.13
-16.77
-15.92
-15.83
-16.44
-17.51
-18.72
-19.86
-20.86
-21.77
-22.67
-23.60
-24.60
-25.67
-26.77
-27.83
-28.63
-28.79
-27.86
-25.50
-21.56
-16.25
-10.02
-3.52
2.59
7.69
11.30
13.10
13.10
11.58
9.17
6.68
4.83
4.07
4.42
5.50
6.67
7.41
7.46
6.95
6.31
6.03
6.40
7.24
7.98
7.79
6.03
2.41
-2.86
-9.13
-15.61
-21.61
-26.71
-30.77
-33.79
-35.79
-36.83
-36.90
-36.07
-34.44
-32.22
-29.71
-27.29
-25.29
-23.91
-23.00
-22.16
-20.79
-18.42
-14.91
-10.60
-6.17
-2.31
0.56
2.61
4.44
6.78
10.02
14.00
18.02
21.15
22.68
22.33
20.38
17.43
14.37
12.32
12.62
16.69
25.57
39.31
56.51
74.48
89.94
100.10
103.54
100.48
92.36
81.11
68.50
55.81
44.02
33.82
25.75
19.93
15.91
12.68
8.97
3.77
-3.37
-12.12
-21.62
-30.84
-38.98
-45.70
-51.14
-55.85
-60.49
-65.63
-71.49
-77.84
-83.94
-88.75
-91.20
-90.57
-86.65
-79.81
-70.83
-60.62
-50.07
-39.87
-30.59
-22.63
-16.26
-11.69
-8.88
-7.62
-7.44
-7.71
-7.78
-7.16
-5.74
-3.70
-1.46
0.57
2.18
3.38
4.38
5.29
6.06
6.37
5.79
4.00
0.91
-3.32
-8.29
-13.49
-18.36
-22.31
-24.82
-25.49
-24.08
-20.53
-15.02
-7.95
0.12
8.45
16.29
22.92
27.80
30.64
31.43
30.45
28.20
25.35
22.61
20.58
19.62
19.75
20.62
21.60
22.03
21.44
19.73
17.18
14.29
11.58
9.30
7.36
5.37
2.76
-0.91
-5.81
-11.70
-17.96
-23.70
-27.96
-29.86
-28.85
-24.79
-18.02
-9.34
0.24
9.66
18.06
24.84
29.68
32.45
33.20
32.13
29.62
26.29
22.91
20.21
18.65
18.23
18.52
18.82
18.49
17.18
15.03
12.53
10.30
8.84
8.27
8.25
8.07
6.90
4.03
-0.87
-7.59
-15.35
-22.93
-28.91
-31.97
-31.24
-26.52
-18.29
-7.61
4.11
15.56
25.71
33.93
39.94
43.72
45.35
45.01
43.03
39.92
36.35
33.03
30.57
29.32
29.36
30.40
31.87
33.06
33.24
31.88
28.85
24.45
19.27
13.99
9.10
4.77
0.91
-2.78
-6.67
-11.12
-16.36
-22.37
-28.77
-34.68
-38.89
-40.10
-37.43
-30.74
-20.76
-8.87
3.38
14.64
24.12
31.51
36.83
40.18
41.70
41.49
39.87
37.37
34.70
32.54
31.27
30.85
30.94
31.05
30.88
30.36
29.58
28.58
27.22
25.15
22.04
17.74
12.45
6.66
0.97
-4.13
-8.49
-12.24
-15.82
-19.73
-24.41
-30.00
-36.14
-41.93
-46.08
-47.25
-44.49
-37.62
-27.36
-15.08
-2.39
9.31
19.21
27.06
33.03
37.34
40.12
41.43
41.33
40.14
38.39
36.73
35.68
35.32
35.33
35.08
33.96
31.72
28.55
24.98
21.65
19.01
17.14
15.75
14.29
12.26
9.35
5.61
1.39
-2.82
-6.61
-9.92
-13.01
-16.45
-20.86
-26.65
-33.73
-41.50
-48.89
-54.53
-57.12
-55.70
-50.00
-40.49
-28.32
-15.01
-2.09
9.26
18.41
25.20
29.84
32.65
33.96
34.05
33.22
31.78
30.17
28.73
27.72
27.17
26.88
26.60
26.04
25.03
23.49
21.47
19.03
16.21
13.02
9.49
5.71
1.82
-1.94
-5.35
-8.21
-10.45
-12.07
-13.21
-14.13
-15.11
-16.45
-18.41
-21.13
-24.64
-28.72
-32.86
-36.28
-38.08
-37.47
-34.03
-27.86
-19.63
-10.34
-1.10
7.14
13.78
18.56
21.57
23.13
23.65
23.48
22.86
21.91
20.63
18.98
16.97
14.67
12.23
9.89
7.87
6.36
5.37
4.68
3.87
2.46
0.20
-2.80
-5.92
-8.38
-9.43
-8.80
-6.71
-3.84
-1.09
0.72
0.99
-0.51
-3.56
-7.56
-11.56
-14.49
-15.42
-13.85
-9.84
-4.03
2.62
9.08
14.52
18.45
20.69
21.30
20.47
18.46
15.53
11.99
8.17
4.37
0.87
-2.11
-4.37
-5.83
-6.46
-6.37
-5.78
-4.97
-4.28
-3.97
-4.18
-4.92
-6.04
-7.39
-8.83
-10.36
-12.06
-14.12
-16.74
-20.04
-23.96
-28.23
-32.28
-35.32
-36.54
-35.27
-31.24
-24.72
-16.47
-7.55
0.94
8.17
13.69
17.44
19.65
20.61
20.65
19.96
18.74
17.14
15.42
13.79
12.48
11.57
11.07
10.78
10.43
9.74
8.48
6.56
4.08
1.27
-1.54
-4.08
-6.27
-8.22
-10.28
-12.85
-16.32
-20.86
-26.40
-32.48
-38.34
-42.98
-45.40
-44.91
-41.33
-35.06
-27.04
-18.42
-10.25
-3.24
2.28
6.34
9.11
10.83
11.67
11.77
11.26
10.32
9.17
8.08
7.29
6.94
6.98
7.20
7.26
6.82
5.65
3.76
1.29
-1.48
-4.27
-6.93
-9.37
-11.61
-13.71
-15.83
-18.13
-20.87
-24.23
-28.25
-32.61
-36.63
-39.35
-39.84
-37.47
-32.17
-24.52
-15.54
-6.46
1.64
8.00
12.34
14.78
15.67
15.49
14.62
13.37
11.87
10.24
8.58
7.05
5.81
5.02
4.68
4.66
4.70
4.50
3.86
2.64
0.91
-1.18
-3.44
-5.68
-7.82
-9.87
-11.96
-14.27
-17.08
-20.56
-24.73
-29.34
-33.75
-37.10
-38.46
-37.16
-33.00
-26.38
-18.20
-9.58
-1.54
5.21
10.39
14.04
16.38
17.62
17.97
17.55
16.54
15.09
13.45
11.88
10.61
9.78
9.42
9.41
9.59
9.73
9.57
8.94
7.67
5.77
3.35
0.63
-2.13
-4.75
-7.19
-9.56
-12.12
-15.17
-18.93
-23.44
-28.42
-33.28
-37.09
-38.83
-37.69
-33.34
-26.17
-17.18
-7.69
1.12
8.45
14.00
17.82
20.10
20.96
20.49
18.87
16.45
13.77
11.47
10.02
9.61
10.11
11.11
12.11
12.68
12.53
11.57
9.87
7.61
5.06
2.45
-0.02
-2.30
-4.47
-6.81
-9.65
-13.28
-17.78
-22.89
-28.01
-32.22
-34.51
-34.07
-30.53
-24.12
-15.61
-6.16
3.05
11.08
17.33
21.59
23.94
24.58
23.74
21.74
18.97
15.97
13.31
11.44
10.57
10.58
11.02
11.31
10.97
9.77
7.82
5.44
3.02
0.80
-1.20
-3.20
-5.58
-8.70
-12.85
-18.11
-24.25
-30.74
-36.66
-40.90
-42.42
-40.60
-35.44
-27.60
-18.19
-8.39
0.79
8.79
15.28
20.20
23.46
25.01
24.88
23.26
20.62
17.60
14.88
12.94
11.90
11.55
11.44
11.10
10.25
8.89
7.14
5.20
3.12
0.82
-1.81
-4.84
-8.29
-12.11
-16.36
-21.15
-26.52
-32.21
-37.51
-41.36
-42.66
-40.62
-35.11
-26.72
-16.56
-5.91
4.10
12.73
19.60
24.64
27.91
29.49
29.51
28.20
25.90
23.12
20.40
18.22
16.82
16.18
15.95
15.71
15.07
13.87
12.12
10.04
7.78
5.47
3.04
0.40
-2.59
-6.02
-9.97
-14.50
-19.67
-25.37
-31.26
-36.65
-40.52
-41.80
-39.71
-34.07
-25.49
-15.18
-4.56
5.10
13.02
18.93
22.92
25.32
26.42
26.54
25.90
24.77
23.34
21.76
20.15
18.61
17.29
16.36
15.91
15.87
15.95
15.72
14.75
12.83
10.01
6.60
2.97
-0.57
-3.94
-7.26
-10.77
-14.75
-19.37
-24.68
-30.43
-36.09
-40.88
-43.83
-44.00
-40.80
-34.22
-24.88
-13.98
-3.00
6.70
14.19
19.09
21.52
21.93
20.91
19.05
16.90
14.89
13.34
12.31
11.61
10.84
9.58
7.68
5.45
3.71
3.40
5.19
9.09
14.38
19.87
24.31
26.82
27.10
25.31
21.85
17.12
11.33
4.52
-3.26
-11.76
-20.38
-28.14
-33.82
-36.32
-34.97
-29.85
-21.82
-12.24
-2.59
5.97
12.86
17.95
21.42
23.51
24.37
24.13
22.94
21.10
19.02
17.10
15.68
14.93
14.83
15.17
15.68
16.06
15.99
15.27
13.78
11.57
8.84
5.81
2.64
-0.59
-3.93
-7.39
-10.97
-14.58
-18.21
-21.91
-25.84
-30.06
-34.35
-38.02
-40.06
-39.45
-35.59
-28.63
-19.42
-9.35
0.19
8.21
14.28
18.46
21.06
22.37
22.54
21.64
19.80
17.39
15.01
13.26
12.54
12.86
13.83
14.87
15.45
15.31
14.45
13.03
11.16
8.90
6.24
3.25
0.13
-2.84
-5.50
-7.96
-10.61
-13.98
-18.39
-23.67
-29.09
-33.48
-35.68
-34.90
-30.99
-24.42
-16.10
-7.10
1.68
9.49
15.90
20.67
23.76
25.30
25.51
24.70
23.21
21.37
19.51
17.93
16.81
16.24
16.17
16.39
16.64
16.64
16.20
15.21
13.63
11.47
8.81
5.74
2.39
-1.07
-4.48
-7.75
-10.88
-14.09
-17.68
-22.00
-27.18
-33.01
-38.75
-43.32
-45.57
-44.59
-40.11
-32.53
-22.88
-12.48
-2.55
6.06
12.92
17.96
21.33
23.21
23.78
23.28
22.09
20.68
19.52
18.91
18.87
19.14
19.38
19.31
18.89
18.27
17.63
17.01
16.23
14.94
12.87
9.91
6.31
2.47
-1.15
-4.31
-7.04
-9.65
-12.55
-16.14
-20.64
-26.00
-31.83
-37.42
-41.82
-44.05
-43.35
-39.48
-32.75
-24.00
-14.30
-4.68
4.07
11.48
17.36
21.69
24.53
26.02
26.34
25.76
24.58
23.12
21.68
20.47
19.61
19.07
18.70
18.36
17.96
17.52
16.99
16.31
15.23
13.49
10.89
7.50
3.66
-0.21
-3.77
-6.88
-9.69
-12.53
-15.71
-19.51
-24.01
-29.04
-34.18
-38.65
-41.45
-41.62
-38.56
-32.32
-23.65
-13.77
-3.97
4.77
11.97
17.52
21.56
24.19
25.44
25.38
24.21
22.39
20.49
19.08
18.46
18.58
19.08
19.57
19.73
19.51
19.04
18.50
17.95
17.24
16.05
14.06
11.11
7.36
3.21
-0.84
-4.45
-7.52
-10.28
-13.13
-16.49
-20.61
-25.47
-30.73
-35.74
-39.66
-41.61
-40.92
-37.29
-30.97
-22.65
-13.35
-4.10
4.22
11.03
16.04
19.21
20.64
20.57
19.33
17.35
15.06
12.87
11.09
9.88
9.23
9.06
9.25
9.67
10.16
10.58
10.79
10.65
10.03
8.87
7.13
4.86
2.18
-0.77
-3.78
-6.77
-9.77
-12.99
-16.72
-21.09
-25.91
-30.62
-34.30
-35.99
-34.95
-30.96
-24.36
-15.99
-6.94
1.76
9.30
15.21
19.31
21.67
22.44
21.86
20.22
17.90
15.30
12.83
10.80
9.40
8.66
8.49
8.73
9.14
9.44
9.31
8.50
6.91
4.66
2.00
-0.78
-3.51
-6.22
-9.05
-12.28
-16.15
-20.76
-26.11
-31.93
-37.67
-42.50
-45.40
-45.42
-42.01
-35.28
-26.02
-15.49
-5.04
4.26
11.82
17.49
21.41
23.73
24.62
24.19
22.69
20.51
18.16
16.15
14.83
14.27
14.29
14.58
14.79
14.69
14.16
13.12
11.54
9.39
6.67
3.47
-0.07
-3.77
-7.48
-11.13
-14.78
-18.61
-22.90
-27.86
-33.48
-39.41
-44.81
-48.54
-49.41
-46.67
-40.20
-30.74
-19.55
-8.18
2.07
10.33
16.26
19.94
21.72
22.05
21.30
19.85
17.96
15.91
14.00
12.56
11.83
11.89
12.56
13.45
14.11
14.21
13.57
12.27
10.46
8.26
5.71
2.80
-0.44
-3.94
-7.58
-11.37
-15.41
-19.98
-25.29
-31.21
-37.12
-41.86
-44.09
-42.77
-37.56
-29.01
-18.44
-7.42
2.65
10.91
17.08
21.25
23.70
24.68
24.40
23.08
21.02
18.64
16.34
14.48
13.24
12.61
12.46
12.53
12.56
12.28
11.50
10.14
8.19
5.77
3.03
0.12
-2.85
-5.86
-9.01
-12.43
-16.32
-20.85
-26.06
-31.74
-37.29
-41.73
-43.92
-42.84
-38.06
-29.89
-19.39
-8.00
2.79
11.91
18.78
23.30
25.63
26.05
24.83
22.35
19.11
15.76
12.97
11.26
10.82
11.48
12.73
13.90
14.44
14.00
12.54
10.22
7.24
3.78
-0.04
-4.07
-8.04
-11.62
-14.49
-16.60
-18.22
-19.93
-22.36
-25.75
-29.69
-33.17
-34.94
-33.93
-29.75
-22.75
-13.91
-4.44
4.59
12.43
18.65
23.09
25.68
26.38
25.29
22.75
19.29
15.66
12.63
10.74
10.16
10.62
11.55
12.27
12.27
11.29
9.44
7.05
4.51
2.10
-0.12
-2.34
-4.89
-8.08
-12.15
-17.15
-22.89
-28.99
-34.78
-39.38
-41.77
-41.07
-36.82
-29.21
-19.16
-8.07
2.63
11.91
19.24
24.60
28.18
30.15
30.56
29.46
27.00
23.57
19.85
16.60
14.41
13.51
13.65
14.23
14.52
14.00
12.50
10.20
7.47
4.64
1.86
-0.91
-3.81
-6.97
-10.49
-14.49
-19.12
-24.51
-30.54
-36.74
-42.18
-45.67
-46.13
-42.97
-36.29
-26.86
-15.89
-4.67
5.73
14.60
21.59
26.63
29.76
31.13
30.97
29.67
27.67
25.51
23.67
22.44
21.94
22.02
22.36
22.57
22.27
21.21
19.32
16.73
13.63
10.28
6.85
3.37
-0.17
-3.84
-7.69
-11.82
-16.35
-21.45
-27.15
-33.16
-38.73
-42.77
-44.06
-41.70
-35.49
-26.04
-14.58
-2.60
8.51
17.78
24.76
29.43
32.07
33.12
33.04
32.18
30.80
29.08
27.19
25.34
23.79
22.73
22.21
22.07
21.98
21.60
20.72
19.25
17.25
14.80
11.97
8.81
5.46
2.04
-1.29
-4.54
-7.92
-11.81
-16.58
-22.38
-28.93
-35.45
-40.84
-43.89
-43.69
-39.89
-32.78
-23.25
-12.51
-1.80
7.88
15.88
21.85
25.69
27.53
27.67
26.62
25.03
23.53
22.59
22.38
22.77
23.48
24.19
24.66
24.82
24.68
24.31
23.69
22.73
21.26
19.13
16.22
12.59
8.42
3.99
-0.39
-4.50
-8.30
-11.97
-15.82
-20.19
-25.32
-31.08
-36.92
-41.87
-44.72
-44.44
-40.52
-33.20
-23.43
-12.60
-2.09
7.05
14.24
19.35
22.53
24.02
24.08
22.99
21.07
18.77
16.54
14.80
13.79
13.50
13.70
14.08
14.35
14.34
14.04
13.53
12.82
11.83
10.36
8.30
5.64
2.58
-0.60
-3.66
-6.55
-9.49
-12.80
-16.84
-21.74
-27.22
-32.57
-36.74
-38.61
-37.34
-32.61
-24.86
-15.05
-4.49
5.58
14.24
21.00
25.76
28.66
29.94
29.87
28.73
26.87
24.70
22.68
21.15
20.22
19.77
19.50
19.09
18.42
17.51
16.50
15.39
14.04
12.16
9.52
6.10
2.18
-1.79
-5.40
-8.47
-11.09
-13.56
-16.27
-19.62
-23.87
-29.12
-35.14
-41.25
-46.33
-49.06
-48.27
-43.46
-35.00
-24.11
-12.42
-1.42
7.94
15.38
21.07
25.28
28.15
29.68
29.88
28.93
27.25
25.39
23.83
22.80
22.26
22.02
21.84
21.59
21.21
20.75
20.19
19.47
18.47
16.98
14.81
11.83
8.07
3.73
-0.82
-5.12
-8.83
-11.86
-14.40
-16.94
-20.10
-24.30
-29.58
-35.43
-40.84
-44.53
-45.38
-42.77
-36.76
-28.10
-17.93
-7.46
2.31
10.75
17.55
22.60
25.89
27.49
27.64
26.68
25.10
23.44
22.11
21.30
20.97
20.94
20.91
20.69
20.23
19.58
18.87
18.18
17.44
16.42
14.85
12.46
9.18
5.15
0.71
-3.74
-7.84
-11.38
-14.31
-16.83
-19.24
-21.96
-25.31
-29.45
-34.11
-38.62
-42.02
-43.29
-41.74
-37.15
-29.89
-20.71
-10.65
-0.73
8.13
15.22
20.17
22.96
23.86
23.42
22.23
20.79
19.39
18.12
16.93
15.78
14.73
13.89
13.34
13.06
12.96
12.86
12.61
12.06
11.08
9.57
7.44
4.65
1.36
-2.16
-5.53
-8.45
-10.89
-13.04
-15.32
-18.20
-21.97
-26.62
-31.80
-36.86
-40.96
-43.20
-42.89
-39.67
-33.65
-25.40
-15.84
-6.07
2.92
10.35
15.83
19.31
20.95
21.12
20.16
18.44
16.29
14.05
12.04
10.47
9.49
9.08
9.13
9.48
9.93
10.29
10.34
9.82
8.54
6.43
3.59
0.27
-3.16
-6.43
-9.40
-12.17
-14.94
-18.00
-21.55
-25.71
-30.38
-35.20
-39.54
-42.56
-43.38
-41.38
-36.38
-28.74
-19.32
-9.27
0.30
8.52
14.89
19.28
21.80
22.76
22.51
21.39
19.73
17.80
15.86
14.07
12.57
11.38
10.48
9.80
9.25
8.79
8.37
7.86
7.11
5.86
3.94
1.29
-2.00
-5.63
-9.28
-12.67
-15.76
-18.75
-22.02
-25.97
-30.81
-36.40
-42.13
-47.04
-49.99
-50.02
-46.66
-40.08
-31.10
-20.91
-10.69
-1.42
6.34
12.43
16.88
19.85
21.47
21.91
21.45
20.41
19.17
17.99
16.95
16.00
15.05
14.11
13.30
12.77
12.56
12.51
12.25
11.33
9.45
6.58
2.95
-0.99
-4.77
-8.09
-10.84
-13.08
-15.08
-17.22
-19.88
-23.45
-28.07
-33.52
-39.08
-43.61
-45.81
-44.65
-39.73
-31.51
-21.17
-10.23
-0.06
8.42
14.87
19.36
22.15
23.48
23.59
22.73
21.26
19.62
18.19
17.21
16.65
16.34
16.01
15.49
14.81
14.11
13.57
13.24
12.95
12.35
11.09
8.93
5.88
2.22
-1.66
-5.37
-8.70
-11.64
-14.40
-17.31
-20.72
-24.91
-29.95
-35.55
-41.03
-45.38
-47.44
-46.29
-41.57
-33.61
-23.42
-12.37
-1.85
7.13
14.05
18.82
21.67
22.91
22.87
21.83
20.13
18.14
16.24
14.71
13.66
13.07
12.84
12.84
13.04
13.39
13.86
14.24
14.26
13.56
11.89
9.21
5.79
2.07
-1.46
-4.53
-7.15
-9.62
-12.43
-15.97
-20.45
-25.69
-31.17
-36.09
-39.43
-40.23
-37.82
-32.10
-23.58
-13.40
-2.93
6.59
14.37
20.15
24.05
26.33
27.17
26.69
25.02
22.44
19.42
16.51
14.21
12.82
12.34
12.54
13.08
13.62
13.87
13.63
12.73
11.10
8.74
5.77
2.38
-1.15
-4.62
-7.90
-11.06
-14.36
-18.17
-22.85
-28.57
-35.13
-41.83
-47.51
-50.87
-50.78
-46.77
-39.09
-28.75
-17.13
-5.61
4.72
13.22
19.58
23.79
25.98
26.44
25.57
23.85
21.75
19.71
18.03
16.83
16.12
15.82
15.79
15.93
16.14
16.31
16.30
15.88
14.81
12.97
10.36
7.15
3.64
0.14
-3.17
-6.27
-9.37
-12.80
-16.91
-21.96
-27.89
-34.21
-39.97
-43.93
-44.88
-42.12
-35.68
-26.35
-15.46
-4.40
5.69
14.12
20.61
25.08
27.65
28.49
27.95
26.46
24.55
22.66
21.09
19.97
19.34
19.16
19.42
20.00
20.70
21.25
21.36
20.84
19.59
17.62
14.97
11.74
8.11
4.34
0.75
-2.41
-5.07
-7.41
-9.85
-12.90
-16.96
-22.16
-28.16
-34.17
-39.03
-41.53
-40.70
-36.22
-28.46
-18.42
-7.44
3.18
12.51
20.00
25.49
28.96
30.49
30.17
28.24
25.13
21.57
18.37
16.22
15.46
15.92
17.06
18.23
18.96
19.14
18.96
18.72
18.50
18.12
17.18
15.28
12.27
8.32
3.89
-0.46
-4.31
-7.46
-10.02
-12.31
-14.71
-17.56
-21.05
-25.19
-29.75
-34.19
-37.69
-39.24
-37.92
-33.20
-25.31
-15.18
-4.25
6.06
14.73
21.31
25.87
28.64
29.83
29.54
27.97
25.56
22.97
20.88
19.76
19.62
20.07
20.55
20.61
20.13
19.27
18.33
17.53
16.90
16.19
15.05
13.20
10.50
7.04
3.13
-0.84
-4.51
-7.68
-10.37
-12.83
-15.46
-18.68
-22.81
-27.83
-33.35
-38.54
-42.34
-43.73
-41.98
-36.91
-28.97
-19.10
-8.47
1.79
10.79
18.02
23.27
26.56
28.09
28.19
27.35
26.15
25.17
24.81
25.17
26.06
27.04
27.68
27.78
27.40
26.89
26.59
26.62
26.82
26.77
26.03
24.30
21.58
18.20
14.70
11.75
9.87
9.19
9.33
9.32
7.85
3.63
-4.09
-15.17
-28.41
-41.80
-53.05
-60.22
-62.22
-59.02
-51.57
-41.35
-30.02
-19.00
-9.27
-1.36
4.54
8.50
10.71
11.52
11.40
10.88
10.45
10.45
10.98
11.94
13.10
14.16
14.91
15.27
15.28
15.13
15.03
15.10
15.25
15.28
14.80
13.53
11.33
8.37
5.03
1.77
-1.08
-3.44
-5.49
-7.63
-10.31
-13.89
-18.45
-23.77
-29.27
-34.09
-37.26
-37.98
-35.87
-31.03
-24.08
-15.85
-7.22
1.06
8.44
14.52
19.04
21.83
22.90
22.43
20.81
18.55
16.18
14.15
12.72
12.01
11.86
12.02
12.17
12.11
11.75
11.16
10.48
9.75
8.90
7.69
5.89
3.34
0.13
-3.39
-6.76
-9.55
-11.58
-13.00
-14.30
-16.11
-18.93
-22.90
-27.64
-32.31
-35.74
-36.78
-34.58
-28.96
-20.44
-10.22
0.15
9.19
15.93
20.04
21.84
21.96
21.08
19.65
17.93
16.02
14.04
12.16
10.59
9.47
8.82
8.55
8.55
8.72
8.97
9.24
9.35
9.07
8.10
6.26
3.52
0.14
-3.49
-6.96
-9.97
-12.53
-14.86
-17.39
-20.54
-24.54
-29.27
-34.20
-38.38
-40.73
-40.33
-36.76
-30.31
-21.91
-12.79
-4.14
3.28
9.20
13.68
16.86
18.85
19.70
19.53
18.61
17.34
16.09
15.05
14.21
13.46
12.68
11.88
11.16
10.62
10.22
9.82
9.17
8.05
6.35
4.06
1.26
-1.89
-5.28
-8.77
-12.27
-15.77
-19.31
-23.02
-27.02
-31.36
-35.84
-39.94
-42.87
-43.78
-42.04
-37.44
-30.38
-21.70
-12.45
-3.64
4.02
10.15
14.62
17.46
18.78
18.82
17.91
16.50
15.04
13.86
13.11
12.76
12.67
12.71
12.80
12.90
12.98
12.96
12.65
11.88
10.53
8.61
6.24
3.55
0.69
-2.25
-5.20
-8.15
-11.10
-14.15
-17.49
-21.35
-25.95
-31.19
-36.60
-41.26
-44.06
-44.01
-40.64
-34.19
-25.52
-15.82
-6.29
2.20
9.23
14.67
18.55
20.92
21.84
21.48
20.16
18.41
16.73
15.56
15.04
15.06
15.36
15.64
15.73
15.57
15.23
14.74
14.10
13.18
11.78
9.76
7.06
3.79
0.23
-3.34
-6.67
-9.69
-12.61
-15.76
-19.53
-24.15
-29.50
-35.06
-39.98
-43.23
-43.91
-41.52
-36.06
-28.12
-18.65
-8.78
0.47
8.29
14.21
18.06
19.91
20.10
19.07
17.33
15.34
13.47
11.95
10.95
10.55
10.75
11.46
12.43
13.33
13.83
13.66
12.74
11.15
9.10
6.82
4.50
2.23
0.02
-2.21
-4.59
-7.33
-10.66
-14.80
-19.84
-25.58
-31.45
-36.51
-39.61
-39.75
-36.41
-29.78
-20.76
-10.74
-1.13
6.92
12.83
16.54
18.35
18.71
18.02
16.58
14.60
12.32
10.01
8.03
6.65
5.99
5.93
6.18
6.41
6.39
6.04
5.41
4.62
3.69
2.59
1.18
-0.68
-3.10
-6.10
-9.67
-13.79
-18.40
-23.43
-28.65
-33.68
-37.90
-40.51
-40.79
-38.24
-32.82
-25.02
-15.77
-6.20
2.67
10.11
15.79
19.70
22.06
23.08
22.95
21.82
19.90
17.51
15.04
12.96
11.60
11.06
11.15
11.51
11.70
11.45
10.68
9.53
8.21
6.85
5.40
3.60
1.10
-2.40
-7.01
-12.63
-18.95
-25.50
-31.61
-36.46
-39.20
-39.10
-35.84
-29.60
-21.14
-11.56
-2.02
6.56
13.64
19.06
22.86
25.17
26.17
26.01
24.83
22.87
20.42
17.88
15.66
14.08
13.25
13.02
13.06
12.92
12.27
11.01
9.23
7.16
4.98
2.71
0.19
-2.86
-6.72
-11.54
-17.25
-23.47
-29.56
-34.64
-37.68
-37.84
-34.65
-28.31
-19.55
-9.52
0.60
9.90
17.91
24.44
29.46
32.92
34.72
34.81
33.30
30.62
27.37
24.22
21.65
19.84
18.68
17.85
16.99
15.80
14.13
12.00
9.49
6.76
3.92
1.04
-1.89
-4.92
-8.16
-11.75
-15.89
-20.77
-26.42
-32.58
-38.59
-43.44
-46.00
-45.35
-41.10
-33.59
-23.74
-12.84
-2.12
7.44
15.30
21.27
25.48
28.17
29.65
30.17
29.88
28.93
27.41
25.52
23.50
21.61
20.10
19.06
18.51
18.30
18.23
18.00
17.29
15.82
13.39
10.01
5.88
1.39
-3.10
-7.32
-11.27
-15.17
-19.39
-24.26
-29.81
-35.71
-41.13
-44.94
-46.04
-43.68
-37.77
-28.88
-18.10
-6.73
4.09
13.53
21.15
26.83
30.61
32.63
33.11
32.33
30.70
28.68
26.74
25.23
24.29
23.84
23.66
23.51
23.27
23.00
22.82
22.78
22.73
22.29
21.04
18.60
14.95
10.38
5.42
0.60
-3.75
-7.64
-11.35
-15.31
-19.94
-25.54
-32.08
-39.15
-45.90
-51.06
-53.33
-51.69
-45.86
-36.46
-24.85
-12.73
-1.55
7.81
15.14
20.67
24.72
27.47
28.96
29.24
28.53
27.30
26.13
25.52
25.63
26.34
27.22
27.84
27.88
27.26
26.15
24.81
23.44
22.14
20.79
19.20
17.09
14.26
10.63
6.31
1.59
-3.10
-7.36
-10.97
-13.98
-16.76
-19.84
-23.77
-28.84
-34.90
-41.24
-46.75
-50.16
-50.38
-46.85
-39.69
-29.72
-18.18
-6.37
4.60
14.02
21.52
27.04
30.61
32.34
32.39
31.08
28.85
26.28
23.95
22.36
21.77
22.07
22.90
23.76
24.20
24.01
23.25
22.12
20.88
19.60
18.20
16.43
14.08
11.02
7.29
3.12
-1.15
-5.15
-8.61
-11.44
-13.81
-16.07
-18.72
-22.15
-26.50
-31.60
-36.86
-41.45
-44.40
-44.82
-42.19
-36.46
-28.11
-18.05
-7.40
2.76
11.58
18.49
23.19
25.66
26.12
24.98
22.86
20.41
18.21
16.67
15.89
15.76
16.03
16.41
16.68
16.74
16.55
16.14
15.49
14.52
13.11
11.08
8.35
4.99
1.22
-2.64
-6.32
-9.70
-12.87
-16.06
-19.56
-23.57
-28.13
-33.04
-37.76
-41.54
-43.41
-42.55
-38.46
-31.25
-21.69
-11.00
-0.50
8.72
16.08
21.47
25.03
26.97
27.41
26.46
24.36
21.56
18.72
16.46
15.17
14.85
15.16
15.66
15.95
15.93
15.67
15.36
15.08
14.68
13.84
12.18
9.48
5.83
1.60
-2.67
-6.49
-9.64
-12.28
-14.86
-17.95
-21.96
-27.03
-32.92
-39.08
-44.69
-48.85
-50.59
-49.21
-44.43
-36.55
-26.47
-15.43
-4.68
4.84
12.63
18.59
22.76
25.24
26.09
25.45
23.66
21.23
18.83
16.98
16.00
15.84
16.21
16.71
17.01
16.98
16.66
16.23
15.78
15.28
14.50
13.15
11.06
8.24
4.95
1.52
-1.76
-4.79
-7.70
-10.72
-14.12
-18.08
-22.71
-27.97
-33.73
-39.59
-44.88
-48.70
-50.16
-48.55
-43.70
-35.99
-26.27
-15.63
-5.08
4.60
12.91
19.54
24.32
27.14
28.04
27.24
25.23
22.69
20.31
18.65
17.89
17.90
18.28
18.67
18.82
18.67
18.26
17.66
16.87
15.80
14.35
12.41
9.95
6.98
3.59
-0.08
-3.82
-7.41
-10.68
-13.60
-16.34
-19.23
-22.61
-26.70
-31.47
-36.54
-41.18
-44.49
-45.56
-43.71
-38.79
-31.18
-21.75
-11.56
-1.64
7.21
14.52
20.01
23.59
25.23
25.08
23.42
20.74
17.67
14.79
12.56
11.17
10.61
10.70
11.24
12.00
12.82
13.52
13.92
13.86
13.21
11.85
9.75
6.93
3.51
-0.24
-4.00
-7.47
-10.44
-12.94
-15.27
-17.87
-21.18
-25.44
-30.49
-35.72
-40.14
-42.64
-42.27
-38.56
-31.60
-22.16
-11.41
-0.68
8.75
16.00
20.61
22.59
22.36
20.51
17.70
14.40
10.97
7.64
4.68
2.42
1.15
0.92
1.59
2.69
3.73
4.35
4.43
4.01
3.21
2.05
0.49
-1.51
-3.91
-6.57
-9.35
-12.24
-15.35
-18.95
-23.29
-28.43
-34.10
-39.62
-43.95
-45.98
-44.76
-39.95
-31.90
-21.64
-10.57
-0.04
8.90
15.71
20.33
22.89
23.66
22.92
20.98
18.20
15.06
12.03
9.56
7.92
7.17
7.15
7.52
7.89
7.96
7.62
6.89
5.88
4.70
3.29
1.51
-0.76
-3.58
-6.85
-10.43
-14.26
-18.50
-23.38
-29.01
-35.01
-40.40
-43.73
-43.63
-39.30
-30.89
-19.47
-6.65
5.95
17.09
26.02
32.34
35.82
36.28
33.73
28.50
21.34
13.29
5.52
-1.02
-5.72
-8.42
-9.26
-8.64
-7.08
-5.16
-3.46
-2.40
-2.24
-2.98
-4.45
-6.39
-8.57
-10.89
-13.35
-16.12
-19.44
-23.63
-28.87
-35.02
-41.41
-46.90
-50.08
-49.74
-45.31
-37.06
-26.02
-13.62
-1.30
9.82
19.05
26.04
30.73
33.23
33.85
33.00
31.18
28.91
26.57
24.48
22.80
21.61
20.92
20.68
20.75
20.89
20.79
20.15
18.76
16.55
13.64
10.22
6.51
2.65
-1.31
-5.47
-10.00
-15.08
-20.83
-27.23
-33.94
-40.30
-45.27
-47.68
-46.50
-41.33
-32.52
-21.16
-8.78
3.18
13.63
22.04
28.28
32.46
34.75
35.34
34.47
32.50
29.93
27.33
25.20
23.83
23.28
23.37
23.80
24.28
24.61
24.74
24.64
24.20
23.15
21.17
18.01
13.73
8.67
3.41
-1.50
-5.78
-9.52
-13.10
-17.08
-21.99
-28.01
-34.89
-41.80
-47.46
-50.44
-49.55
-44.26
-34.92
-22.68
-9.21
3.85
15.21
24.16
30.50
34.36
36.03
35.86
34.27
31.81
29.07
26.64
24.93
24.08
23.95
24.21
24.51
24.63
24.51
24.22
23.83
23.29
22.41
20.88
18.41
14.94
10.59
5.74
0.87
-3.65
-7.66
-11.26
-14.79
-18.69
-23.35
-28.95
-35.24
-41.47
-46.45
-48.86
-47.62
-42.32
-33.34
-21.83
-9.25
2.97
13.79
22.60
29.19
33.53
35.67
35.77
34.20
31.50
28.35
25.34
22.89
21.11
19.91
19.13
18.62
18.29
18.02
17.68
17.08
16.02
14.33
11.99
9.06
5.69
2.05
-1.67
-5.34
-8.88
-12.33
-15.87
-19.81
-24.48
-29.97
-35.99
-41.76
-46.08
-47.68
-45.60
-39.57
-30.13
-18.50
-6.23
5.30
15.13
22.82
28.30
31.66
33.05
32.66
30.82
28.08
25.10
22.46
20.53
19.36
18.77
18.54
18.52
18.70
19.07
19.48
19.65
19.15
17.60
14.83
10.94
6.23
1.18
-3.76
-8.24
-12.16
-15.65
-19.11
-23.03
-27.86
-33.76
-40.38
-46.83
-51.81
-53.91
-52.04
-45.82
-35.77
-23.15
-9.65
3.11
14.01
22.53
28.71
32.77
34.99
35.55
34.66
32.68
30.17
27.70
25.77
24.57
23.95
23.63
23.28
22.80
22.19
21.54
20.81
19.81
18.25
15.86
12.52
8.34
3.57
-1.43
-6.30
-10.72
-14.51
-17.74
-20.73
-24.06
-28.40
-34.16
-41.16
-48.49
-54.61
-57.83
-56.87
-51.38
-42.00
-30.13
-17.39
-5.13
5.79
14.98
22.32
27.76
31.26
32.87
32.80
31.51
29.58
27.60
25.97
24.88
24.32
24.14
24.14
24.18
24.17
24.09
23.90
23.50
22.70
21.27
19.02
15.91
12.05
7.67
3.09
-1.41
-5.63
-9.57
-13.36
-17.33
-21.92
-27.56
-34.40
-42.08
-49.65
-55.71
-58.74
-57.61
-51.98
-42.44
-30.27
-17.11
-4.44
6.70
15.77
22.65
27.42
30.28
31.50
31.45
30.53
29.17
27.70
26.34
25.20
24.34
23.80
23.55
23.55
23.65
23.68
23.48
22.94
22.00
20.61
18.65
15.98
12.53
8.39
3.83
-0.79
-5.09
-8.93
-12.37
-15.78
-19.57
-24.18
-29.79
-36.28
-43.03
-49.04
-53.05
-53.88
-50.84
-43.94
-33.98
-22.27
-10.24
0.93
10.52
18.19
23.84
27.42
28.92
28.51
26.59
23.80
20.88
18.50
17.01
16.46
16.66
17.26
17.96
18.53
18.89
19.01
18.92
18.56
17.81
16.50
14.45
11.62
8.08
4.09
-0.08
-4.20
-8.19
-12.07
-15.95
-19.98
-24.35
-29.28
-34.89
-41.02
-47.03
-51.80
-53.97
-52.36
-46.53
-36.98
-25.00
-12.31
-0.46
9.52
17.19
22.53
25.71
26.90
26.24
24.00
20.62
16.72
12.94
9.80
7.61
6.32
5.70
5.41
5.22
5.12
5.35
6.22
7.89
10.15
12.38
13.87
14.07
12.95
10.90
8.55
6.25
3.84
0.69
-3.88
-10.16
-17.61
-24.91
-30.42
-32.65
-30.85
-25.20
-16.67
-6.70
3.30
12.28
19.66
25.26
29.15
31.35
31.88
30.72
27.99
24.04
19.46
14.96
11.17
8.54
7.20
7.01
7.67
8.74
9.80
10.47
10.48
9.72
8.19
6.00
3.28
0.18
-3.21
-6.86
-10.86
-15.34
-20.41
-25.94
-31.40
-35.80
-37.88
-36.45
-30.83
-21.15
-8.35
6.03
20.41
33.49
44.56
53.45
60.40
65.78
69.94
73.09
75.29
76.48
76.51
75.16
72.19
67.44
60.87
52.65
43.08
32.50
21.27
9.61
-2.29
-14.28
-26.15
-37.69
-48.77
-59.50
-70.15
-80.99
-91.99
-102.63
-111.91
-118.72
-122.23
-122.33
-119.56
-114.87
-109.12
-102.74
-95.71
-87.92
-79.51
-71.11
-63.67
-58.01
-54.37
-52.24
-50.63
-48.48
-45.10
-40.47
-35.06
-29.56
-24.54
-20.28
-16.81
-14.07
-12.03
-10.73
-10.34
-11.00
-12.83
-15.92
-20.19
-25.32
-30.62
-35.02
-37.26
-36.24
-31.43
-23.07
-12.16
-0.08
11.83
22.63
31.83
39.24
44.71
48.04
49.02
47.70
44.53
40.34
36.07
32.47
29.83
27.95
26.39
24.78
22.96
21.04
19.19
17.45
15.63
13.34
10.18
5.79
-0.07
-7.43
-16.07
-25.37
-34.20
-41.06
-44.46
-43.32
-37.48
-27.75
-15.67
-2.98
8.96
19.42
28.31
35.76
41.79
46.14
48.39
48.33
46.14
42.55
38.58
35.16
32.81
31.56
31.05
30.73
30.16
29.09
27.47
25.38
22.95
20.31
17.48
14.37
10.75
6.27
0.61
-6.36
-14.45
-22.97
-30.79
-36.49
-38.70
-36.54
-29.92
-19.65
-7.21
5.71
17.69
27.86
35.93
41.96
46.11
48.40
48.75
47.10
43.67
39.01
33.94
29.34
25.93
23.96
23.31
23.50
23.97
24.23
23.99
23.12
21.56
19.27
16.16
12.20
7.39
1.86
-4.22
-10.68
-17.45
-24.43
-31.33
-37.55
-42.11
-43.92
-42.10
-36.41
-27.38
-16.20
-4.30
7.09
17.16
25.59
32.27
37.14
40.10
41.07
40.24
38.09
35.34
32.74
30.75
29.48
28.70
28.00
27.02
25.59
23.74
21.65
19.49
17.34
15.14
12.71
9.79
6.13
1.53
-4.07
-10.59
-17.67
-24.70
-30.73
-34.72
-35.69
-33.07
-26.95
-18.07
-7.68
2.85
12.36
20.17
26.10
30.26
32.86
34.05
33.92
32.60
30.36
27.67
25.05
22.90
21.38
20.31
19.33
18.08
16.34
14.19
11.86
9.63
7.66
5.88
4.04
1.74
-1.35
-5.44
-10.52
-16.42
-22.75
-28.95
-34.23
-37.63
-38.23
-35.43
-29.19
-20.17
-9.57
1.17
10.83
18.66
24.41
28.21
30.34
31.07
30.62
29.19
27.09
24.66
22.25
20.17
18.58
17.51
16.83
16.32
15.73
14.82
13.40
11.39
8.80
5.68
2.22
-1.44
-5.05
-8.42
-11.38
-13.93
-16.26
-18.73
-21.81
-25.78
-30.55
-35.50
-39.57
-41.55
-40.49
-36.02
-28.57
-19.16
-9.12
0.30
8.25
14.35
18.59
21.14
22.22
22.02
20.74
18.66
16.16
13.69
11.64
10.25
9.52
9.25
9.16
9.00
8.70
8.30
7.86
7.36
6.60
5.27
3.10
0.06
-3.64
-7.51
-11.04
-13.81
-15.70
-16.94
-17.96
-19.34
-21.50
-24.61
-28.36
-31.98
-34.40
-34.56
-31.80
-26.13
-18.30
-9.49
-0.92
6.54
12.50
17.01
20.21
22.15
22.77
21.99
19.95
17.11
14.11
11.61
9.93
8.98
8.36
7.66
6.63
5.37
4.19
3.32
2.78
2.28
1.42
-0.04
-2.12
-4.55
-7.00
-9.23
-11.26
-13.23
-15.44
-18.09
-21.30
-24.99
-28.92
-32.67
-35.58
-36.96
-36.20
-32.99
-27.48
-20.27
-12.21
-4.23
2.91
8.69
12.84
15.38
16.43
16.27
15.22
13.65
11.87
10.15
8.66
7.49
6.65
6.15
5.92
5.85
5.75
5.40
4.67
3.56
2.17
0.70
-0.76
-2.27
-4.02
-6.23
-9.02
-12.33
-16.01
-19.86
-23.70
-27.31
-30.28
-32.01
-31.78
-29.06
-23.83
-16.66
-8.61
-0.86
5.65
10.47
13.59
15.31
15.97
15.81
14.97
13.52
11.60
9.39
7.20
5.30
3.91
3.09
2.68
2.37
1.80
0.75
-0.82
-2.69
-4.57
-6.22
-7.58
-8.78
-10.10
-11.77
-13.94
-16.65
-19.85
-23.46
-27.27
-30.90
-33.75
-35.05
-34.15
-30.68
-24.83
-17.25
-8.95
-1.03
5.64
10.58
13.71
15.24
15.52
14.89
13.58
11.81
9.76
7.63
5.65
3.99
2.68
1.70
0.96
0.37
-0.16
-0.67
-1.28
-2.11
-3.28
-4.80
-6.63
-8.62
-10.74
-13.05
-15.71
-18.94
-22.81
-27.16
-31.60
-35.48
-38.02
-38.50
-36.46
-31.83
-25.02
-16.89
-8.51
-0.92
5.20
9.53
12.25
13.73
14.32
14.23
13.49
12.12
10.17
7.94
5.80
4.13
3.14
2.75
2.70
2.68
2.42
1.80
0.83
-0.49
-2.10
-3.90
-5.75
-7.53
-9.21
-10.93
-13.07
-16.02
-20.05
-25.00
-30.26
-34.82
-37.48
-37.36
-34.06
-27.88
-19.66
-10.56
-1.74
5.87
11.72
15.60
17.59
17.93
16.97
15.17
12.96
10.73
8.76
7.18
5.98
5.13
4.58
4.35
4.45
4.79
5.19
5.29
4.76
3.43
1.34
-1.25
-4.01
-6.69
-9.24
-11.78
-14.55
-17.85
-21.85
-26.63
-31.98
-37.41
-42.09
-45.06
-45.37
-42.44
-36.31
-27.63
-17.52
-7.23
2.15
9.92
15.75
19.62
21.65
22.04
21.04
18.99
16.38
13.77
11.61
10.21
9.58
9.50
9.73
9.98
10.11
10.03
9.62
8.72
7.19
4.96
2.15
-1.04
-4.32
-7.47
-10.47
-13.46
-16.72
-20.60
-25.32
-30.91
-36.97
-42.70
-46.93
-48.45
-46.36
-40.37
-31.04
-19.57
-7.54
3.61
12.80
19.56
23.81
25.77
25.79
24.20
21.41
17.88
14.11
10.63
7.87
6.07
5.24
5.20
5.56
5.90
5.87
5.26
4.06
2.41
0.50
-1.61
-3.96
-6.72
-10.05
-14.11
-18.96
-24.54
-30.61
-36.62
-41.69
-44.71
-44.63
-40.88
-33.59
-23.61
-12.25
-0.90
9.34
17.74
23.94
27.75
29.13
28.22
25.36
21.18
16.45
12.03
8.56
6.39
5.44
5.28
5.32
4.99
3.94
2.21
0.09
-2.03
-3.95
-5.77
-7.90
-10.91
-15.24
-21.08
-28.21
-36.01
-43.49
-49.41
-52.54
-51.92
-47.11
-38.46
-27.02
-14.32
-1.88
9.10
17.98
24.55
28.83
30.92
30.91
29.06
25.85
22.02
18.34
15.42
13.48
12.31
11.50
10.59
9.34
7.75
6.00
4.29
2.70
1.09
-0.80
-3.38
-7.06
-12.19
-18.91
-27.03
-35.88
-44.34
-50.94
-54.26
-53.24
-47.57
-37.78
-25.11
-11.16
2.50
14.62
24.43
31.59
36.03
37.93
37.58
35.37
31.87
27.73
23.72
20.53
18.61
18.02
18.35
18.89
18.89
17.85
15.69
12.71
9.34
5.86
2.30
-1.58
-6.13
-11.66
-18.33
-26.04
-34.38
-42.55
-49.29
-53.13
-52.73
-47.33
-37.19
-23.54
-8.25
6.76
20.02
30.81
38.97
44.65
47.99
49.04
47.88
44.81
40.52
35.93
32.02
29.43
28.27
28.08
28.02
27.25
25.24
21.98
17.92
13.66
9.70
6.16
2.81
-0.86
-5.37
-11.15
-18.32
-26.61
-35.28
-43.06
-48.33
-49.52
-45.64
-36.70
-23.81
-8.84
6.15
19.56
30.54
38.93
44.95
48.81
50.61
50.37
48.25
44.67
40.32
36.01
32.41
29.94
28.65
28.28
28.29
28.12
27.26
25.49
22.87
19.68
16.24
12.76
9.20
5.31
0.74
-4.75
-11.25
-18.63
-26.52
-34.24
-40.75
-44.75
-45.00
-40.67
-31.81
-19.37
-5.03
9.34
22.18
32.50
39.97
44.65
46.80
46.80
45.08
42.19
38.72
35.27
32.28
30.02
28.61
27.97
27.93
28.14
28.19
27.67
26.32
24.07
21.12
17.72
14.13
10.48
6.73
2.79
-1.49
-6.20
-11.47
-17.34
-23.74
-30.32
-36.35
-40.76
-42.29
-39.93
-33.32
-23.02
-10.36
2.87
15.02
24.97
32.29
37.06
39.61
40.25
39.22
36.82
33.46
29.79
26.49
24.13
22.96
22.84
23.33
23.87
23.99
23.44
22.13
20.18
17.71
14.82
11.55
7.96
4.13
0.21
-3.65
-7.40
-11.19
-15.32
-20.10
-25.64
-31.61
-37.19
-41.13
-42.20
-39.54
-33.04
-23.41
-11.96
-0.21
10.52
19.43
26.18
30.83
33.59
34.66
34.28
32.69
30.25
27.41
24.61
22.23
20.47
19.38
18.83
18.61
18.47
18.17
17.50
16.28
14.41
11.82
8.53
4.69
0.53
-3.60
-7.38
-10.61
-13.31
-15.82
-18.68
-22.43
-27.34
-33.09
-38.80
-43.18
-44.88
-43.04
-37.48
-28.84
-18.32
-7.34
2.82
11.27
17.60
21.80
24.11
24.94
24.67
23.66
22.17
20.49
18.84
17.44
16.46
15.92
15.74
15.74
15.72
15.55
15.15
14.47
13.39
11.73
9.35
6.21
2.52
-1.37
-5.05
-8.24
-10.95
-13.47
-16.24
-19.71
-24.12
-29.35
-34.82
-39.58
-42.55
-42.74
-39.65
-33.42
-24.87
-15.21
-5.74
2.52
9.08
13.90
17.21
19.20
19.98
19.57
18.12
15.97
13.71
11.92
10.97
10.85
11.20
11.55
11.56
11.19
10.63
10.12
9.75
9.33
8.49
6.88
4.35
1.09
-2.51
-6.01
-9.06
-11.58
-13.70
-15.70
-17.93
-20.71
-24.34
-28.88
-34.12
-39.45
-43.84
-46.10
-45.26
-40.85
-33.23
-23.43
-12.91
-3.11
4.94
10.80
14.56
16.61
17.46
17.52
17.05
16.26
15.37
14.63
14.24
14.25
14.51
14.76
14.79
14.56
14.23
13.99
14.01
14.21
14.29
13.81
12.40
9.90
6.43
2.32
-1.97
-5.99
-9.48
-12.39
-14.88
-17.31
-20.09
-23.58
-27.88
-32.72
-37.46
-41.14
-42.72
-41.45
-37.09
-30.03
-21.19
-11.67
-2.53
5.52
12.07
17.03
20.39
22.20
22.57
21.67
19.83
17.53
15.29
13.56
12.56
12.25
12.39
12.65
12.75
12.55
12.07
11.36
10.45
9.24
7.56
5.29
2.41
-0.92
-4.44
-7.80
-10.74
-13.14
-15.09
-16.89
-18.94
-21.61
-25.09
-29.25
-33.57
-37.28
-39.48
-39.40
-36.67
-31.35
-23.99
-15.47
-6.79
1.17
7.80
12.81
16.19
18.10
18.77
18.43
17.31
15.68
13.84
12.07
10.61
9.55
8.85
8.42
8.15
7.98
7.88
7.82
7.68
7.28
6.43
5.01
3.05
0.67
-1.91
-4.46
-6.85
-9.08
-11.26
-13.63
-16.55
-20.33
-25.05
-30.39
-35.54
-39.41
-40.89
-39.29
-34.51
-27.15
-18.27
-9.09
-0.63
6.38
11.64
15.14
17.08
17.74
17.41
16.34
14.72
12.75
10.62
8.53
6.70
5.27
4.26
3.61
3.20
2.89
2.51
1.93
0.94
-0.59
-2.70
-5.32
-8.19
-11.04
-13.65
-16.02
-18.37
-21.05
-24.44
-28.77
-33.98
-39.71
-45.19
-49.46
-51.52
-50.68
-46.84
-40.49
-32.65
-24.43
-16.79
-10.30
-5.17
-1.43
0.84
1.49
0.39
-2.45
-6.58
-11.20
-15.10
-16.82
-15.04
-8.92
1.49
15.04
29.71
43.05
52.93
57.99
57.94
53.36
45.39
35.42
24.87
15.06
7.19
2.06
-0.10
0.30
2.25
4.50
5.95
5.87
4.18
1.31
-1.87
-4.27
-4.95
-3.42
0.25
5.36
10.83
15.55
18.69
19.90
19.34
17.49
14.93
12.24
9.78
7.76
6.26
5.24
4.64
4.36
4.29
4.20
3.82
2.85
1.11
-1.42
-4.51
-7.81
-10.92
-13.64
-16.02
-18.39
-21.19
-24.81
-29.46
-34.91
-40.59
-45.59
-48.89
-49.67
-47.50
-42.48
-35.21
-26.57
-17.48
-8.72
-0.84
5.82
11.04
14.69
16.76
17.31
16.62
15.10
13.24
11.52
10.28
9.67
9.64
9.97
10.37
10.59
10.41
9.75
8.58
6.89
4.73
2.16
-0.66
-3.56
-6.48
-9.49
-12.90
-17.04
-22.11
-27.92
-33.75
-38.48
-40.93
-40.32
-36.51
-30.06
-21.93
-13.20
-4.68
3.10
9.84
15.29
19.16
21.13
21.08
19.18
15.98
12.26
8.78
6.12
4.53
3.93
4.02
4.35
4.52
4.30
3.63
2.61
1.40
0.07
-1.42
-3.27
-5.73
-9.03
-13.31
-18.57
-24.60
-30.91
-36.68
-40.85
-42.25
-40.07
-34.18
-25.22
-14.55
-3.74
5.83
13.32
18.48
21.48
22.66
22.30
20.66
17.99
14.72
11.45
8.84
7.39
7.23
8.04
9.14
9.77
9.46
8.14
6.18
4.09
2.23
0.63
-1.01
-3.14
-6.09
-9.97
-14.68
-19.94
-25.38
-30.47
-34.46
-36.51
-35.89
-32.21
-25.70
-17.08
-7.46
2.08
10.70
17.88
23.33
26.93
28.64
28.51
26.84
24.16
21.17
18.61
17.00
16.55
17.05
18.00
18.71
18.61
17.40
15.10
12.04
8.65
5.24
1.91
-1.48
-5.20
-9.54
-14.68
-20.71
-27.46
-34.53
-41.14
-46.19
-48.49
-47.07
-41.57
-32.44
-20.86
-8.39
3.47
13.61
21.50
27.11
30.71
32.76
33.63
33.63
32.93
31.63
29.87
27.84
25.87
24.32
23.46
23.29
23.49
23.55
22.94
21.35
18.78
15.49
11.80
7.96
4.05
0.02
-4.20
-8.65
-13.37
-18.50
-24.16
-30.32
-36.58
-42.02
-45.27
-45.01
-40.46
-31.81
-20.23
-7.49
4.65
14.99
23.10
29.12
33.48
36.45
38.13
38.48
37.61
35.89
33.89
32.16
31.04
30.50
30.24
29.85
29.04
27.71
25.92
23.76
21.30
18.54
15.45
12.06
8.45
4.70
0.88
-3.04
-7.18
-11.73
-16.85
-22.64
-28.95
-35.27
-40.68
-44.05
-44.28
-40.74
-33.49
-23.41
-11.83
-0.23
10.22
18.89
25.59
30.46
33.69
35.47
35.94
35.31
33.92
32.11
30.27
28.63
27.32
26.36
25.67
25.21
24.86
24.53
24.00
23.00
21.30
18.75
15.39
11.44
7.32
3.45
0.12
-2.61
-4.95
-7.35
-10.31
-14.24
-19.20
-24.81
-30.26
-34.46
-36.29
-35.01
-30.38
-22.88
-13.51
-3.51
5.97
14.13
20.60
25.31
28.29
29.64
29.51
28.20
26.23
24.20
22.63
21.77
21.57
21.77
22.04
22.19
22.16
22.02
21.76
21.29
20.42
18.88
16.45
13.13
9.13
4.86
0.85
-2.49
-5.03
-6.97
-8.77
-11.03
-14.22
-18.49
-23.59
-28.77
-32.98
-35.05
-34.05
-29.62
-22.15
-12.65
-2.49
7.07
15.20
21.60
26.31
29.55
31.46
32.12
31.61
30.14
28.09
25.94
24.19
23.17
22.94
23.30
23.84
24.14
23.89
23.02
21.71
20.22
18.70
17.09
15.10
12.46
9.03
5.01
0.81
-3.10
-6.42
-9.15
-11.53
-14.01
-17.00
-20.86
-25.73
-31.48
-37.52
-42.89
-46.42
-47.04
-44.20
-38.08
-29.58
-20.01
-10.62
-2.26
4.70
10.26
14.62
17.90
20.14
21.37
21.70
21.36
20.70
20.05
19.64
19.55
19.69
19.88
19.90
19.59
18.90
17.92
16.77
15.61
14.46
13.21
11.67
9.63
6.98
3.81
0.33
-3.15
-6.36
-9.16
-11.56
-13.69
-15.73
-17.91
-20.46
-23.56
-27.30
-31.55
-35.90
-39.60
-41.74
-41.46
-38.23
-32.13
-23.83
-14.47
-5.29
2.76
9.13
13.79
17.00
19.03
20.08
20.29
19.72
18.56
17.14
15.84
14.97
14.66
14.80
15.14
15.39
15.38
15.07
14.51
13.76
12.85
11.73
10.35
8.67
6.72
4.52
2.06
-0.71
-3.79
-7.11
-10.49
-13.66
-16.43
-18.84
-21.05
-23.38
-26.08
-29.25
-32.75
-36.23
-39.14
-40.84
-40.73
-38.36
-33.59
-26.66
-18.19
-9.11
-0.38
7.21
13.21
17.48
20.08
21.17
20.93
19.59
17.45
14.98
12.68
10.96
10.04
9.80
9.90
9.92
9.61
8.93
8.05
7.20
6.51
5.95
5.33
4.37
2.81
0.53
-2.37
-5.58
-8.68
-11.27
-13.19
-14.57
-15.80
-17.40
-19.75
-22.98
-26.89
-30.95
-34.50
-36.83
-37.32
-35.53
-31.39
-25.15
-17.39
-8.94
-0.65
6.69
12.53
16.63
18.97
19.77
19.33
18.03
16.27
14.40
12.72
11.42
10.52
9.91
9.42
8.90
8.28
7.63
7.03
6.55
6.10
5.42
4.22
2.23
-0.58
-4.02
-7.74
-11.32
-14.48
-17.14
-19.44
-21.67
-24.21
-27.38
-31.35
-35.90
-40.46
-44.09
-45.75
-44.58
-40.26
-33.15
-24.19
-14.57
-5.39
2.59
9.06
13.98
17.42
19.52
20.40
20.32
19.59
18.54
17.42
16.27
15.02
13.53
11.79
9.93
8.25
7.05
6.47
6.38
6.39
6.01
4.84
2.72
-0.19
-3.52
-6.88
-9.95
-12.67
-15.15
-17.65
-20.49
-23.95
-28.26
-33.38
-38.98
-44.28
-48.19
-49.57
-47.60
-42.07
-33.55
-23.23
-12.52
-2.69
5.46
11.67
16.06
18.93
20.52
21.00
20.44
19.02
17.01
14.77
12.70
11.03
9.90
9.23
8.89
8.72
8.65
8.60
8.48
8.13
7.36
5.96
3.83
1.02
-2.25
-5.69
-9.03
-12.09
-14.88
-17.59
-20.50
-23.97
-28.23
-33.28
-38.84
-44.24
-48.55
-50.75
-50.03
-46.00
-38.87
-29.41
-18.65
-7.75
2.37
11.06
17.97
23.01
26.23
27.79
27.96
27.13
25.73
24.14
22.63
21.32
20.19
19.26
18.57
18.17
18.09
18.19
18.23
17.86
16.83
15.07
12.74
10.21
7.85
5.96
4.57
3.47
2.20
0.14
-3.35
-8.78
-16.30
-25.48
-35.22
-43.92
-49.85
-51.67
-48.94
-42.27
-33.08
-23.13
-13.93
-6.35
-0.60
3.57
6.53
8.51
9.59
9.74
9.03
7.75
6.30
5.17
4.66
4.89
5.70
6.76
7.71
8.26
8.26
7.65
6.43
4.56
2.01
-1.20
-5.01
-9.25
-13.70
-18.22
-22.86
-27.84
-33.40
-39.50
-45.66
-50.81
-53.64
-53.00
-48.34
-39.96
-28.90
-16.63
-4.60
6.12
14.92
21.63
26.35
29.31
30.73
30.81
29.76
27.84
25.45
23.09
21.23
20.18
19.93
20.24
20.63
20.70
20.17
18.98
17.22
14.93
12.10
8.69
4.70
0.28
-4.27
-8.68
-12.83
-16.89
-21.27
-26.40
-32.51
-39.31
-45.97
-51.22
-53.68
-52.27
-46.56
-36.97
-24.68
-11.33
1.46
12.52
21.26
27.69
32.07
34.74
35.90
35.78
34.63
32.87
31.08
29.79
29.29
29.55
30.22
30.82
31.00
30.60
29.67
28.34
26.65
24.50
21.64
17.89
13.26
8.04
2.70
-2.28
-6.69
-10.63
-14.54
-19.00
-24.51
-31.24
-38.83
-46.40
-52.70
-56.35
-56.26
-51.95
-43.76
-32.71
-20.27
-7.89
3.37
13.01
21.02
27.69
33.26
37.79
41.15
43.17
43.91
43.68
43.04
42.59
42.74
43.61
45.00
46.59
48.05
49.16
49.75
49.61
48.45
45.89
41.63
35.68
28.39
20.44
12.59
5.48
-0.62
-5.82
-10.54
-15.36
-20.80
-27.18
-34.45
-42.09
-49.08
-54.07
-55.70
-53.03
-45.87
-34.98
-21.85
-8.28
4.12
14.31
21.88
26.98
30.03
31.46
31.65
30.88
29.42
27.60
25.78
24.29
23.35
23.04
23.21
23.66
24.12
24.37
24.21
23.47
21.97
19.61
16.40
12.50
8.18
3.74
-0.56
-4.67
-8.64
-12.74
-17.27
-22.55
-28.66
-35.27
-41.58
-46.31
-48.09
-45.86
-39.32
-29.12
-16.66
-3.64
8.46
18.65
26.58
32.24
35.78
37.39
37.30
35.87
33.65
31.26
29.27
28.04
27.60
27.66
27.79
27.56
26.78
25.46
23.86
22.23
20.69
19.08
17.03
14.14
10.23
5.42
0.22
-4.77
-9.07
-12.52
-15.35
-18.10
-21.43
-25.93
-31.86
-39.02
-46.64
-53.47
-57.98
-58.83
-55.27
-47.46
-36.41
-23.70
-10.95
0.58
10.26
18.03
24.15
28.89
32.39
34.64
35.61
35.41
34.37
33.00
31.87
31.32
31.43
31.94
32.43
32.44
31.74
30.30
28.33
26.06
23.66
21.14
18.32
14.95
10.84
5.95
0.50
-5.09
-10.29
-14.72
-18.27
-21.19
-24.00
-27.32
-31.66
-37.20
-43.73
-50.60
-56.84
-61.24
-62.61
-60.07
-53.38
-43.06
-30.28
-16.54
-3.22
8.77
19.15
28.11
35.95
42.81
48.41
52.20
53.67
52.72
49.88
46.23
43.00
41.17
41.05
42.21
43.74
44.63
44.15
42.06
38.54
34.04
29.08
24.09
19.35
14.91
10.65
6.35
1.81
-2.99
-7.87
-12.45
-16.39
-19.56
-22.14
-24.60
-27.52
-31.39
-36.42
-42.37
-48.53
-53.81
-56.96
-56.93
-53.19
-45.94
-36.04
-24.79
-13.51
-3.22
5.50
12.43
17.58
21.04
22.93
23.48
23.06
22.15
21.23
20.57
20.27
20.25
20.33
20.38
20.30
20.06
19.63
19.05
18.33
17.53
16.60
15.35
13.46
10.67
6.88
2.38
-2.30
-6.55
-10.00
-12.65
-14.93
-17.48
-20.88
-25.49
-31.22
-37.46
-43.20
-47.21
-48.32
-45.81
-39.66
-30.57
-19.79
-8.71
1.47
10.02
16.65
21.34
24.21
25.39
25.09
23.65
21.59
19.48
17.81
16.82
16.47
16.51
16.64
16.64
16.41
15.98
15.39
14.64
13.65
12.28
10.39
7.86
4.66
0.83
-3.42
-7.82
-12.06
-15.84
-19.03
-21.67
-24.09
-26.77
-30.21
-34.70
-40.02
-45.41
-49.63
-51.39
-49.74
-44.45
-36.06
-25.67
-14.59
-3.95
5.52
13.40
19.47
23.64
25.88
26.35
25.45
23.76
21.94
20.50
19.71
19.53
19.69
19.87
19.81
19.37
18.53
17.40
16.07
14.61
12.99
11.03
8.51
5.22
1.12
-3.63
-8.69
-13.59
-17.95
-21.54
-24.36
-26.71
-29.09
-32.04
-35.96
-40.85
-46.09
-50.52
-52.68
-51.24
-45.42
-35.29
-21.78
-6.49
8.67
21.94
32.05
38.44
41.22
41.10
39.04
36.05
32.96
30.30
28.31
26.90
25.79
24.55
22.78
20.23
16.94
13.24
9.63
6.56
4.28
2.69
1.45
0.08
-1.80
-4.40
-7.69
-11.45
-15.32
-18.98
-22.19
-24.90
-27.30
-29.69
-32.48
-36.03
-40.49
-45.63
-50.78
-54.88
-56.76
-55.42
-50.44
-42.12
-31.42
-19.71
-8.35
1.66
9.78
15.93
20.22
22.83
23.87
23.45
21.81
19.40
16.82
14.65
13.23
12.52
12.19
11.83
11.23
10.41
9.54
8.75
7.98
6.96
5.36
2.96
-0.20
-3.85
-7.64
-11.25
-14.54
-17.59
-20.69
-24.24
-28.64
-34.00
-39.96
-45.57
-49.43
-50.14
-46.82
-39.48
-29.09
-17.23
-5.57
4.60
12.66
18.52
22.41
24.58
25.17
24.35
22.31
19.49
16.46
13.82
11.98
11.09
10.98
11.36
11.88
12.24
12.27
11.82
10.77
9.05
6.60
3.51
-0.12
-4.09
-8.27
-12.59
-17.04
-21.68
-26.61
-31.97
-37.71
-43.55
-48.79
-52.32
-52.96
-49.85
-42.86
-32.66
-20.59
-8.20
3.14
12.54
19.61
24.33
26.96
27.89
27.57
26.45
24.90
23.14
21.32
19.51
17.89
16.64
15.90
15.67
15.75
15.80
15.40
14.27
12.22
9.27
5.54
1.29
-3.21
-7.73
-12.09
-16.33
-20.64
-25.35
-30.81
-37.16
-44.14
-50.94
-56.32
-58.86
-57.46
-51.73
-42.17
-30.07
-17.07
-4.69
6.07
14.78
21.45
26.28
29.40
30.92
30.98
29.91
28.25
26.59
25.36
24.70
24.41
24.19
23.83
23.35
22.91
22.68
22.54
22.13
20.92
18.51
14.77
10.00
4.70
-0.56
-5.36
-9.52
-13.13
-16.51
-20.15
-24.66
-30.48
-37.70
-45.70
-53.18
-58.43
-59.83
-56.46
-48.41
-36.69
-22.94
-8.83
4.31
15.63
24.67
31.22
35.21
36.77
36.32
34.53
32.23
30.11
28.60
27.78
27.47
27.44
27.51
27.57
27.60
27.50
27.10
26.20
24.60
22.17
18.94
15.07
10.81
6.45
2.25
-1.65
-5.30
-9.00
-13.20
-18.34
-24.67
-32.00
-39.56
-46.10
-50.19
-50.59
-46.70
-38.73
-27.64
-14.87
-1.92
9.95
19.90
27.49
32.60
35.30
35.87
34.79
32.69
30.24
28.04
26.44
25.54
25.19
25.11
25.05
24.85
24.45
23.88
23.14
22.15
20.73
18.70
15.87
12.19
7.76
2.82
-2.30
-7.28
-11.93
-16.28
-20.60
-25.31
-30.76
-37.07
-43.88
-50.24
-54.82
-56.17
-53.21
-45.67
-34.23
-20.34
-5.83
7.64
18.99
27.80
34.17
38.39
40.74
41.45
40.74
38.99
36.77
34.68
33.23
32.64
32.79
33.31
33.75
33.70
33.00
31.68
29.93
28.02
26.11
24.19
22.02
19.27
15.66
11.10
5.80
0.19
-5.28
-10.29
-14.82
-19.05
-23.20
-27.50
-32.09
-37.13
-42.80
-49.15
-55.93
-62.28
-66.82
-67.93
-64.38
-55.90
-43.32
-28.24
-12.44
2.72
16.60
28.99
39.80
48.61
54.80
57.85
57.79
55.33
51.70
48.14
45.43
43.73
42.65
41.60
40.10
37.90
34.96
31.39
27.33
22.97
18.53
14.24
10.24
6.51
2.84
-1.00
-5.10
-9.42
-13.68
-17.63
-21.11
-24.16
-27.01
-29.99
-33.45
-37.69
-42.81
-48.64
-54.57
-59.53
-62.21
-61.37
-56.35
-47.34
-35.31
-21.73
-8.10
4.39
14.98
23.30
29.17
32.60
33.82
33.27
31.61
29.60
27.80
26.54
25.83
25.47
25.21
24.85
24.32
23.60
22.77
21.81
20.67
19.17
17.07
14.18
10.43
6.01
1.31
-3.19
-7.13
-10.42
-13.33
-16.38
-20.18
-25.17
-31.40
-38.40
-45.18
-50.45
-52.87
-51.47
-45.95
-36.76
-25.05
-12.31
0.01
10.78
19.36
25.54
29.44
31.29
31.39
30.10
27.83
25.08
22.38
20.21
18.81
18.17
18.03
18.06
17.99
17.73
17.32
16.78
16.04
14.85
12.89
9.94
6.02
1.38
-3.58
-8.45
-13.00
-17.21
-21.26
-25.53
-30.44
-36.28
-42.97
-49.91
-55.90
-59.45
-59.17
-54.37
-45.27
-33.04
-19.40
-6.05
5.83
15.69
23.51
29.49
33.74
36.25
36.96
36.00
33.84
31.24
29.06
27.91
27.93
28.70
29.46
29.55
28.60
26.79
24.62
22.65
21.12
19.84
18.25
15.72
11.91
6.91
1.24
-4.42
-9.48
-13.73
-17.34
-20.86
-24.98
-30.23
-36.90
-44.83
-53.47
-61.85
-68.72
-72.72
-72.72
-68.10
-59.00
-46.39
-31.79
-16.93
-3.29
8.21
17.23
23.89
28.48
31.28
32.51
32.40
31.31
29.77
28.33
27.38
27.07
27.19
27.38
27.24
26.60
25.54
24.29
23.08
21.94
20.60
18.64
15.64
11.42
6.19
0.49
-4.99
-9.72
-13.56
-16.83
-20.14
-24.22
-29.61
-36.48
-44.48
-52.72
-59.82
-64.23
-64.57
-60.11
-51.06
-38.55
-24.30
-10.14
2.52
12.88
20.74
26.29
29.80
31.52
31.69
30.61
28.68
26.39
24.19
22.41
21.21
20.57
20.37
20.47
20.74
21.09
21.41
21.51
21.11
19.84
17.40
13.68
8.87
3.42
-2.05
-6.92
-10.90
-14.06
-16.91
-20.19
-24.64
-30.70
-38.19
-46.20
-53.24
-57.57
-57.70
-52.99
-43.80
-31.44
-17.70
-4.32
7.50
17.17
24.57
29.78
32.90
34.04
33.42
31.44
28.72
25.85
23.37
21.53
20.39
19.81
19.57
19.49
19.42
19.26
18.94
18.30
17.17
15.28
12.44
8.66
4.17
-0.63
-5.37
-9.88
-14.32
-19.05
-24.50
-30.95
-38.29
-46.02
-53.14
-58.32
-60.14
-57.51
-50.05
-38.39
-24.05
-9.00
4.89
16.38
24.99
30.91
34.56
36.33
36.48
35.20
32.85
30.00
27.37
25.50
24.62
24.46
24.54
24.37
23.69
22.61
21.44
20.43
19.55
18.47
16.65
13.68
9.44
4.25
-1.35
-6.78
-11.65
-15.95
-19.93
-24.09
-28.94
-34.95
-42.29
-50.71
-59.38
-66.88
-71.49
-71.65
-66.57
-56.53
-42.85
-27.50
-12.43
0.95
11.97
20.59
27.07
31.68
34.58
35.90
35.87
34.87
33.41
31.97
30.86
30.15
29.67
29.17
28.45
27.46
26.31
25.15
24.06
22.88
21.26
18.78
15.20
10.57
5.32
0.03
-4.79
-8.94
-12.61
-16.26
-20.52
-25.93
-32.75
-40.88
-49.69
-58.02
-64.34
-67.04
-64.91
-57.60
-45.72
-30.79
-14.79
0.35
13.18
23.03
29.84
34.03
36.19
36.82
36.28
34.81
32.68
30.26
27.96
26.17
25.05
24.50
24.25
24.02
23.64
23.14
22.56
21.75
20.44
18.22
14.79
10.15
4.67
-1.07
-6.50
-11.31
-15.58
-19.77
-24.51
-30.36
-37.46
-45.33
-52.82
-58.37
-60.43
-57.92
-50.65
-39.36
-25.55
-10.97
2.78
14.57
23.86
30.50
34.56
36.29
35.96
34.03
31.02
27.54
24.14
21.27
19.18
17.96
17.53
17.71
18.19
18.59
18.46
17.43
15.29
12.09
8.10
3.68
-0.84
-5.33
-9.82
-14.50
-19.66
-25.60
-32.45
-40.12
-48.03
-55.09
-59.83
-60.78
-56.93
-48.21
-35.55
-20.65
-5.49
8.27
19.56
28.00
33.67
36.88
37.96
37.22
35.04
31.88
28.35
25.11
22.68
21.32
20.94
21.13
21.46
21.51
21.02
19.87
17.99
15.32
11.84
7.66
3.02
-1.79
-6.47
-10.91
-15.23
-19.65
-24.52
-30.12
-36.59
-43.79
-51.15
-57.57
-61.57
-61.73
-57.10
-47.67
-34.39
-18.94
-3.21
11.19
23.22
32.42
38.72
42.33
43.58
42.91
40.88
38.14
35.32
32.93
31.25
30.30
29.87
29.63
29.27
28.57
27.51
26.16
24.59
22.75
20.43
17.36
13.35
8.44
2.89
-2.84
-8.29
-13.21
-17.59
-21.81
-26.47
-32.24
-39.55
-48.32
-57.80
-66.46
-72.41
-73.81
-69.57
-59.69
-45.38
-28.67
-11.75
3.60
16.32
26.12
33.20
37.88
40.48
41.27
40.57
38.90
36.87
35.06
33.85
33.27
33.05
32.79
32.18
31.19
30.04
28.99
28.20
27.43
26.15
23.72
19.75
14.29
7.88
1.31
-4.69
-9.78
-14.05
-17.98
-22.20
-27.27
-33.56
-41.11
-49.45
-57.59
-63.96
-66.80
-64.71
-57.16
-44.80
-29.32
-12.87
2.65
15.99
26.74
34.96
40.81
44.35
45.54
44.52
41.79
38.25
34.94
32.70
31.91
32.33
33.28
33.98
33.85
32.76
30.99
29.01
27.18
25.49
23.54
20.73
16.54
10.87
4.15
-2.81
-9.15
-14.31
-18.26
-21.45
-24.57
-28.28
-33.02
-38.93
-45.80
-53.07
-59.75
-64.45
-65.61
-61.97
-53.14
-39.83
-23.80
-7.27
7.78
20.09
29.23
35.39
38.95
40.26
39.62
37.46
34.41
31.27
28.75
27.28
26.85
27.06
27.39
27.42
27.02
26.30
25.52
24.81
24.02
22.70
20.32
16.50
11.28
5.14
-1.18
-6.95
-11.77
-15.69
-19.17
-22.92
-27.62
-33.74
-41.28
-49.64
-57.58
-63.38
-65.34
-62.24
-53.92
-41.32
-26.25
-10.75
3.51
15.58
25.20
32.47
37.54
40.43
41.16
39.94
37.33
34.14
31.25
29.28
28.42
28.46
28.90
29.22
29.00
28.10
26.63
24.85
23.05
21.28
19.39
16.96
13.56
8.96
3.37
-2.65
-8.37
-13.23
-17.13
-20.48
-23.99
-28.42
-34.30
-41.71
-50.23
-58.88
-66.29
-70.92
-71.46
-67.19
-58.22
-45.58
-30.86
-15.78
-1.79
10.19
19.80
27.02
31.95
34.66
35.30
34.16
31.82
29.06
26.71
25.29
24.90
25.22
25.68
25.80
25.41
24.64
23.72
22.77
21.66
20.03
17.50
13.82
9.09
3.71
-1.75
-6.77
-11.12
-14.99
-18.87
-23.44
-29.26
-36.48
-44.74
-53.05
-60.05
-64.24
-64.39
-59.89
-51.00
-38.81
-24.96
-11.21
1.09
11.14
18.76
24.10
27.46
29.06
29.09
27.78
25.53
22.81
20.17
18.03
16.62
15.93
15.77
15.87
15.93
15.71
14.97
13.56
11.36
8.35
4.68
0.59
-3.58
-7.60
-11.38
-15.07
-18.97
-23.46
-28.91
-35.44
-42.78
-50.16
-56.31
-59.70
-59.00
-53.55
-43.67
-30.62
-16.25
-2.42
9.42
18.50
24.62
27.97
28.96
28.07
25.86
22.94
19.92
17.31
15.51
14.77
15.17
16.63
18.86
21.40
23.65
25.02
25.09
23.77
21.17
17.68
13.73
9.69
5.87
2.37
-0.80
-3.79
-6.85
-10.31
-14.48
-19.47
-25.03
-30.37
-34.32
-35.59
-33.23
-27.07
-17.80
-6.79
4.36
14.33
22.41
28.45
32.61
35.09
35.97
35.23
32.90
29.31
24.98
20.58
16.63
13.38
10.89
8.99
7.59
6.61
6.02
5.71
5.34
4.42
2.49
-0.67
-4.94
-9.87
-14.94
-19.70
-23.99
-27.91
-31.77
-35.97
-40.91
-46.81
-53.57
-60.54
-66.51
-69.92
-69.33
-63.88
-53.77
-40.16
-24.90
-9.89
3.45
14.45
23.04
29.53
34.20
37.21
38.61
38.55
37.35
35.59
33.82
32.45
31.54
30.86
30.07
28.97
27.59
26.17
24.93
23.90
22.80
21.12
18.42
14.47
9.44
3.81
-1.85
-7.13
-11.93
-16.44
-21.08
-26.30
-32.45
-39.63
-47.56
-55.43
-62.01
-65.81
-65.55
-60.56
-51.12
-38.34
-23.87
-9.38
3.84
15.05
23.98
30.60
35.01
37.39
38.06
37.51
36.35
35.15
34.26
33.78
33.55
33.32
32.88
32.16
31.15
29.90
28.39
26.49
24.02
20.78
16.63
11.62
5.97
0.08
-5.57
-10.61
-14.90
-18.63
-22.27
-26.40
-31.51
-37.82
-45.02
-52.28
-58.30
-61.60
-60.90
-55.58
-45.94
-33.16
-19.00
-5.18
7.07
17.19
25.15
31.15
35.28
37.50
37.80
36.39
33.82
30.84
28.18
26.28
25.24
24.83
24.72
24.63
24.39
23.93
23.18
22.01
20.19
17.45
13.67
8.93
3.57
-1.92
-7.05
-11.53
-15.38
-18.91
-22.69
-27.30
-33.12
-40.12
-47.67
-54.53
-59.11
-59.86
-55.86
-47.13
-34.70
-20.30
-5.77
7.42
18.48
27.18
33.62
37.96
40.29
40.73
39.56
37.29
34.59
32.17
30.56
29.98
30.27
31.01
31.63
31.63
30.79
29.18
27.11
24.90
22.73
20.42
17.61
13.93
9.24
3.78
-1.98
-7.46
-12.27
-16.33
-19.84
-23.21
-26.95
-31.54
-37.38
-44.52
-52.57
-60.46
-66.63
-69.38
-67.45
-60.49
-49.20
-35.15
-20.22
-6.04
6.39
16.70
24.94
31.29
35.82
38.54
39.50
38.98
37.53
35.80
34.38
33.52
33.16
32.96
32.52
31.69
30.52
29.27
28.14
27.14
25.99
24.25
21.49
17.44
12.17
6.05
-0.33
-6.31
-11.38
-15.39
-18.61
-21.65
-25.32
-30.31
-36.93
-44.88
-53.18
-60.34
-64.69
-64.84
-60.15
-50.94
-38.39
-24.23
-10.12
2.66
13.44
22.06
28.58
33.08
35.54
36.03
34.76
32.23
29.17
26.33
24.30
23.26
23.05
23.24
23.40
23.25
22.79
22.14
21.41
20.53
19.21
17.04
13.70
9.16
3.72
-2.08
-7.68
-12.74
-17.21
-21.35
-25.54
-30.21
-35.67
-41.94
-48.68
-55.04
-59.82
-61.65
-59.48
-52.92
-42.48
-29.46
-15.49
-2.14
9.48
18.79
25.64
30.08
32.26
32.49
31.20
29.00
26.53
24.31
22.63
21.55
20.98
20.80
20.98
21.59
22.69
24.28
26.17
27.96
29.09
28.99
27.23
23.74
18.81
13.09
7.34
2.18
-2.17
-5.96
-9.86
-14.70
-20.98
-28.61
-36.66
-43.55
-47.56
-47.34
-42.43
-33.45
-21.82
-9.30
2.55
12.71
20.66
26.22
29.36
30.12
28.70
25.62
21.64
17.67
14.43
12.26
11.10
10.58
10.34
10.13
9.87
9.57
9.17
8.44
7.09
4.86
1.69
-2.32
-6.88
-11.65
-16.33
-20.73
-24.78
-28.65
-32.69
-37.39
-43.18
-50.03
-57.26
-63.44
-66.75
-65.64
-59.42
-48.62
-34.78
-19.96
-5.98
5.97
15.45
22.55
27.54
30.68
32.14
32.10
30.89
28.92
26.66
24.48
22.59
21.06
19.87
19.03
18.53
18.32
18.21
17.83
16.68
14.37
10.77
6.12
0.97
-4.08
-8.61
-12.56
-16.18
-19.92
-24.24
-29.49
-35.79
-42.91
-50.16
-56.37
-60.06
-59.91
-55.19
-46.13
-33.91
-20.25
-6.86
4.98
14.65
22.01
27.15
30.20
31.31
30.71
28.80
26.13
23.29
20.75
18.82
17.63
17.11
17.10
17.26
17.25
16.72
15.47
13.49
10.93
8.01
4.88
1.64
-1.76
-5.32
-9.06
-12.89
-16.79
-20.90
-25.53
-31.06
-37.68
-45.07
-52.21
-57.54
-59.40
-56.60
-48.89
-37.10
-22.91
-8.31
4.97
15.76
23.62
28.62
31.09
31.44
30.03
27.25
23.54
19.45
15.58
12.46
10.47
9.78
10.24
11.49
13.03
14.24
14.62
13.91
12.09
9.44
6.34
3.11
-0.13
-3.48
-7.17
-11.46
-16.53
-22.50
-29.33
-36.73
-44.08
-50.27
-53.98
-53.95
-49.49
-40.79
-28.94
-15.55
-2.33
9.40
18.88
25.84
30.37
32.68
33.06
31.78
29.20
25.77
22.02
18.55
15.89
14.40
14.13
14.74
15.60
15.99
15.36
13.50
10.52
6.80
2.76
-1.32
-5.31
-9.28
-13.45
-18.12
-23.62
-30.22
-37.90
-46.18
-54.02
-59.92
-62.25
-59.83
-52.32
-40.47
-25.89
-10.60
3.57
15.41
24.52
31.03
35.38
37.94
38.92
38.41
36.57
33.70
30.34
27.10
24.46
22.65
21.53
20.68
19.63
18.02
15.73
12.89
9.76
6.54
3.28
-0.14
-3.94
-8.35
-13.48
-19.42
-26.24
-33.95
-42.31
-50.53
-57.29
-60.90
-59.83
-53.40
-42.06
-27.41
-11.62
3.24
15.78
25.45
32.35
36.85
39.32
40.00
39.12
37.03
34.22
31.26
28.62
26.59
25.21
24.36
23.79
23.25
22.53
21.46
19.87
17.61
14.55
10.71
6.19
1.26
-3.78
-8.74
-13.62
-18.67
-24.35
-31.11
-39.07
-47.79
-56.12
-62.34
-64.63
-61.71
-53.34
-40.47
-24.99
-9.08
5.40
17.38
26.54
33.02
37.10
38.96
38.71
36.65
33.33
29.50
26.02
23.51
22.24
22.09
22.63
23.34
23.67
23.20
21.69
19.09
15.51
11.27
6.69
2.07
-2.47
-7.02
-11.85
-17.31
-23.65
-30.88
-38.54
-45.65
-50.79
-52.36
-49.15
-40.75
-27.80
-11.95
4.64
19.92
32.43
41.59
47.52
50.78
52.01
51.68
50.12
47.55
44.17
40.27
36.18
32.25
28.72
25.69
23.07
20.58
17.88
14.70
10.91
6.55
1.77
-3.25
-8.39
-13.62
-18.96
-24.39
-29.89
-35.57
-41.66
-48.41
-55.81
-63.33
-69.70
-73.22
-72.27
-65.97
-54.60
-39.55
-22.89
-6.69
7.54
19.02
27.60
33.47
36.98
38.49
38.47
37.41
35.86
34.29
33.00
32.11
31.58
31.28
31.08
30.87
30.53
29.94
28.90
27.17
24.50
20.73
15.89
10.21
4.11
-1.96
-7.62
-12.82
-17.78
-23.00
-29.09
-36.38
-44.69
-53.12
-60.16
-64.05
-63.30
-57.21
-46.20
-31.72
-15.77
-0.37
13.03
23.74
31.78
37.50
41.30
43.41
43.96
43.18
41.48
39.50
37.89
37.06
36.99
37.32
37.50
37.09
35.98
34.35
32.57
30.86
29.20
27.22
24.44
20.47
15.24
9.07
2.56
-3.58
-8.85
-13.12
-16.66
-20.08
-24.08
-29.34
-36.17
-44.46
-53.46
-61.87
-68.06
-70.42
-67.86
-60.18
-48.18
-33.46
-17.95
-3.36
9.21
19.31
27.03
32.58
36.14
37.81
37.73
36.24
33.95
31.58
29.71
28.64
28.29
28.34
28.44
28.33
27.94
27.34
26.56
25.55
24.12
21.99
18.92
14.87
10.09
5.00
0.14
-4.18
-7.89
-11.27
-14.78
-18.91
-24.09
-30.47
-37.85
-45.51
-52.22
-56.44
-56.76
-52.37
-43.45
-31.15
-17.24
-3.50
8.73
18.77
26.45
31.88
35.19
36.54
36.14
34.45
32.02
29.47
27.24
25.54
24.36
23.60
23.14
22.90
22.81
22.72
22.38
21.47
19.65
16.74
12.77
7.98
2.77
-2.45
-7.30
-11.60
-15.41
-19.06
-23.07
-27.97
-34.09
-41.24
-48.54
-54.58
-57.70
-56.53
-50.56
-40.34
-27.34
-13.46
-0.45
10.58
19.21
25.52
29.78
32.25
33.06
32.42
30.65
28.17
25.48
22.98
20.91
19.38
18.37
17.75
17.37
17.01
16.39
15.26
13.41
10.73
7.27
3.20
-1.22
-5.66
-9.89
-13.79
-17.40
-20.97
-24.89
-29.58
-35.30
-41.94
-48.78
-54.58
-57.77
-56.97
-51.47
-41.56
-28.52
-14.23
-0.58
11.03
19.98
26.32
30.52
33.06
34.25
34.25
33.19
31.30
28.98
26.65
24.59
22.89
21.48
20.18
18.95
17.85
16.97
16.23
15.34
13.81
11.18
7.26
2.26
-3.22
-8.48
-12.97
-16.58
-19.64
-22.88
-27.06
-32.67
-39.62
-47.09
-53.70
-57.85
-58.20
-54.07
-45.68
-34.07
-20.77
-7.41
4.70
14.71
22.34
27.62
30.81
32.17
31.96
30.44
27.95
24.93
21.87
19.25
17.35
16.28
15.87
15.87
15.98
15.94
15.52
14.51
12.70
10.00
6.43
2.19
-2.36
-6.85
-10.99
-14.70
-18.16
-21.76
-26.01
-31.32
-37.73
-44.65
-50.86
-54.75
-54.80
-50.17
-41.08
-28.74
-14.98
-1.68
9.78
18.70
25.01
28.98
30.93
31.14
29.87
27.44
24.32
21.08
18.25
16.26
15.24
15.09
15.42
15.74
15.61
14.74
13.07
10.74
7.93
4.79
1.34
-2.42
-6.49
-10.77
-15.16
-19.64
-24.40
-29.81
-36.22
-43.66
-51.51
-58.49
-62.96
-63.39
-58.95
-49.86
-37.33
-23.20
-9.33
2.83
12.53
19.63
24.39
27.15
28.22
27.81
26.17
23.68
20.81
18.12
16.12
15.09
15.02
15.61
16.36
16.77
16.44
15.19
13.03
10.12
6.65
2.85
-1.14
-5.21
-9.38
-13.78
-18.73
-24.65
-31.81
-40.14
-49.01
-57.09
-62.67
-64.15
-60.54
-51.92
-39.42
-24.87
-10.27
2.84
13.57
21.71
27.40
30.90
32.45
32.28
30.71
28.20
25.32
22.60
20.42
18.96
18.18
17.87
17.73
17.42
16.64
15.24
13.14
10.38
7.05
3.26
-0.88
-5.29
-9.95
-14.90
-20.37
-26.63
-33.85
-41.82
-49.77
-56.35
-59.97
-59.29
-53.71
-43.65
-30.45
-15.93
-1.90
10.30
19.95
26.85
31.11
32.97
32.71
30.69
27.42
23.51
19.62
16.32
13.98
12.70
12.33
12.50
12.75
12.65
11.91
10.44
8.32
5.71
2.73
-0.57
-4.24
-8.34
-12.96
-18.20
-24.19
-31.02
-38.51
-46.08
-52.58
-56.50
-56.41
-51.48
-41.85
-28.73
-13.91
0.71
13.75
24.52
32.92
39.17
43.52
46.15
47.19
46.80
45.23
42.81
39.95
37.08
34.58
32.72
31.55
30.83
30.06
28.59
25.86
21.66
16.11
9.67
2.95
-3.56
-9.59
-15.13
-20.45
-25.96
-32.09
-39.13
-46.93
-54.81
-61.55
-65.65
-65.75
-61.14
-51.99
-39.38
-24.92
-10.31
3.06
14.35
23.19
29.55
33.59
35.55
35.77
34.71
32.92
31.02
29.44
28.42
27.88
27.55
27.12
26.42
25.44
24.30
23.09
21.70
19.84
17.16
13.43
8.73
3.40
-2.03
-7.14
-11.79
-16.17
-20.73
-26.09
-32.67
-40.52
-49.05
-57.00
-62.71
-64.55
-61.51
-53.55
-41.68
-27.58
-13.05
0.46
12.16
21.82
29.53
35.41
39.53
41.87
42.53
41.82
40.27
38.54
37.20
36.52
36.48
36.72
36.85
36.52
35.69
34.47
33.13
31.74
30.18
28.10
25.02
20.71
15.25
9.06
2.79
-2.96
-7.84
-11.93
-15.59
-19.33
-23.65
-28.88
-35.19
-42.50
-50.38
-57.94
-63.82
-66.42
-64.44
-57.38
-45.85
-31.46
-16.26
-2.07
10.03
19.77
27.44
33.44
37.94
40.92
42.39
42.61
42.16
41.72
41.82
42.63
43.88
45.06
45.77
45.79
45.17
44.05
42.54
40.58
38.02
34.75
30.85
26.51
21.97
17.33
12.54
7.48
2.07
-3.55
-9.12
-14.29
-18.84
-22.81
-26.48
-30.28
-34.66
-39.94
-46.07
-52.57
-58.47
-62.50
-63.37
-60.20
-52.82
-41.90
-28.75
-14.98
-2.02
9.13
18.03
24.71
29.43
32.47
34.01
34.16
33.08
31.12
28.82
26.80
25.58
25.37
26.00
27.02
27.92
28.31
28.10
27.39
26.33
24.94
23.03
20.29
16.47
11.61
6.09
0.49
-4.56
-8.74
-12.12
-15.15
-18.45
-22.56
-27.78
-34.02
-40.80
-47.26
-52.26
-54.59
-53.31
-47.99
-39.00
-27.41
-14.68
-2.26
8.78
17.90
24.95
30.02
33.17
34.52
34.21
32.59
30.15
27.54
25.31
23.85
23.28
23.43
23.95
24.43
24.51
24.04
23.03
21.64
19.97
17.95
15.35
11.83
7.25
1.74
-4.21
-9.93
-14.84
-18.67
-21.61
-24.22
-27.27
-31.43
-37.04
-43.92
-51.29
-57.89
-62.25
-63.06
-59.57
-51.86
-40.78
-27.75
-14.31
-1.74
9.19
18.21
25.31
30.58
34.01
35.64
35.61
34.32
32.41
30.58
29.34
28.79
28.71
28.63
28.19
27.27
26.05
24.81
23.68
22.58
21.17
19.05
15.92
11.77
6.86
1.58
-3.63
-8.44
-12.73
-16.59
-20.28
-24.26
-29.00
-34.86
-41.86
-49.52
-56.79
-62.29
-64.54
-62.51
-55.97
-45.58
-32.75
-19.14
-6.24
4.99
14.13
21.15
26.11
29.12
30.23
29.69
27.94
25.65
23.49
21.93
21.13
20.90
20.92
20.93
20.79
20.58
20.37
20.11
19.63
18.57
16.63
13.66
9.77
5.28
0.60
-3.87
-7.96
-11.67
-15.27
-19.11
-23.60
-29.02
-35.40
-42.34
-49.00
-54.13
-56.44
-54.93
-49.28
-40.00
-28.31
-15.75
-3.78
6.60
14.91
21.11
25.35
27.75
28.44
27.68
26.10
24.81
25.12
28.05
33.87
41.80
50.38
57.99
63.60
67.09
69.05
70.19
70.82
70.56
68.51
63.85
56.20
45.92
33.80
20.78
7.57
-5.42
-17.98
-29.98
-41.24
-51.60
-60.94
-69.18
-76.08
-81.13
-83.55
-82.48
-77.42
-68.56
-56.88
-43.92
-31.25
-20.07
-10.90
-3.80
1.43
4.98
6.96
7.52
6.97
5.78
4.46
3.42
2.85
2.74
2.98
3.44
4.05
4.63
4.99
4.85
3.99
2.38
0.14
-2.47
-5.17
-7.82
-10.43
-13.12
-16.06
-19.51
-23.75
-29.02
-35.34
-42.27
-48.76
-53.32
-54.38
-50.95
-42.99
-31.53
-18.38
-5.39
6.00
15.11
21.93
26.73
29.80
31.33
31.47
30.47
28.73
26.74
24.91
23.42
22.25
21.29
20.44
19.71
19.15
18.77
18.42
17.80
16.56
14.46
11.45
7.73
3.64
-0.44
-4.23
-7.62
-10.68
-13.68
-17.01
-21.10
-26.33
-32.77
-40.03
-47.14
-52.71
-55.19
-53.43
-47.08
-36.79
-24.03
-10.64
1.71
11.93
19.63
24.89
28.05
29.44
29.38
28.17
26.21
24.00
22.02
20.61
19.85
19.64
19.67
19.64
19.37
18.83
18.15
17.46
16.77
15.88
14.43
12.03
8.51
4.03
-0.92
-5.73
-9.94
-13.39
-16.32
-19.23
-22.70
-27.20
-32.96
-39.90
-47.52
-54.85
-60.59
-63.34
-62.00
-56.10
-46.09
-33.15
-18.93
-5.03
7.32
17.45
25.15
30.46
33.53
34.56
33.80
31.70
28.87
25.97
23.58
22.03
21.37
21.36
21.61
21.75
21.54
20.89
19.88
18.63
17.21
15.53
13.42
10.65
7.12
2.93
-1.57
-5.93
-9.78
-13.00
-15.85
-18.88
-22.72
-27.80
-34.13
-41.15
-47.75
-52.54
-54.15
-51.70
-45.05
-34.91
-22.58
-9.62
2.59
13.13
21.51
27.60
31.44
33.18
33.06
31.52
29.12
26.46
23.99
21.92
20.22
18.80
17.55
16.57
15.98
15.89
16.16
16.38
16.03
14.57
11.77
7.71
2.81
-2.35
-7.20
-11.44
-15.07
-18.45
-22.18
-26.87
-32.91
-40.12
-47.66
-54.04
-57.50
-56.51
-50.32
-39.33
-25.01
-9.54
4.90
16.69
25.15
30.47
33.30
34.39
34.21
32.99
30.89
28.16
25.20
22.46
20.26
18.71
17.71
17.01
16.38
15.59
14.48
12.91
10.76
8.02
4.72
0.99
-3.02
-7.18
-11.43
-15.84
-20.58
-25.94
-32.15
-39.29
-46.97
-54.23
-59.65
-61.67
-59.12
-51.71
-40.11
-25.84
-10.79
3.29
15.20
24.32
30.67
34.54
36.40
36.69
35.84
34.20
32.10
29.82
27.63
25.75
24.28
23.23
22.50
21.90
21.24
20.35
19.13
17.44
15.10
11.97
7.98
3.27
-1.81
-6.86
-11.54
-15.84
-20.08
-24.83
-30.61
-37.63
-45.54
-53.35
-59.58
-62.61
-61.15
-54.66
-43.60
-29.36
-13.87
0.99
13.77
23.83
31.13
36.03
38.93
40.13
39.80
38.20
35.78
33.18
31.02
29.73
29.31
29.42
29.49
29.01
27.77
25.97
24.02
22.33
21.03
19.82
18.17
15.53
11.68
6.82
1.47
-3.73
-8.37
-12.38
-15.94
-19.42
-23.22
-27.71
-33.15
-39.69
-47.10
-54.66
-61.08
-64.78
-64.36
-59.13
-49.42
-36.51
-22.15
-8.05
4.58
15.08
23.22
29.01
32.46
33.69
32.99
30.92
28.24
25.72
23.92
23.08
23.03
23.44
23.86
23.99
23.73
23.21
22.58
21.92
21.10
19.77
17.49
13.94
9.12
3.38
-2.67
-8.34
-13.18
-17.10
-20.43
-23.86
-28.11
-33.71
-40.61
-48.09
-54.77
-58.95
-59.10
-54.43
-45.17
-32.56
-18.45
-4.69
7.35
16.98
24.15
29.07
32.05
33.25
32.83
31.07
28.44
25.58
23.06
21.26
20.29
19.96
19.99
20.09
20.03
19.61
18.66
17.01
14.55
11.27
7.34
3.02
-1.37
-5.60
-9.62
-13.61
-17.91
-22.94
-28.96
-35.94
-43.34
-50.13
-54.94
-56.42
-53.65
-46.43
-35.43
-21.96
-7.68
5.83
17.40
26.33
32.44
35.88
37.10
36.63
35.08
33.03
30.90
28.95
27.29
25.88
24.66
23.60
22.71
22.01
21.49
20.96
20.15
18.68
16.25
12.74
8.29
3.25
-1.92
-6.83
-11.29
-15.35
-19.36
-23.80
-29.23
-36.01
-44.14
-52.96
-61.16
-66.91
-68.42
-64.49
-55.08
-41.36
-25.42
-9.55
4.48
15.81
24.45
30.94
35.81
39.32
41.40
41.97
41.10
39.31
37.29
35.77
35.15
35.30
35.73
35.79
35.04
33.47
31.38
29.24
27.39
25.82
24.15
21.85
18.44
13.75
8.00
1.71
-4.45
-9.94
-14.50
-18.19
-21.42
-24.73
-28.69
-33.77
-40.17
-47.75
-55.80
-63.12
-68.09
-69.11
-65.12
-56.04
-42.90
-27.55
-12.10
1.74
13.00
21.50
27.58
31.66
34.08
35.03
34.72
33.46
31.78
30.20
29.08
28.59
28.61
28.94
29.39
29.83
30.19
30.41
30.38
29.93
28.88
27.02
24.21
20.36
15.52
9.93
4.05
-1.57
-6.49
-10.54
-13.93
-17.15
-20.83
-25.53
-31.51
-38.74
-46.73
-54.54
-60.89
-64.34
-63.70
-58.41
-48.79
-36.02
-21.79
-7.82
4.59
14.77
22.58
28.18
31.78
33.56
33.69
32.47
30.37
27.94
25.70
23.93
22.63
21.67
20.91
20.26
19.74
19.33
18.89
18.12
16.69
14.36
11.11
7.16
2.85
-1.51
-5.74
-9.84
-13.95
-18.32
-23.29
-29.18
-36.05
-43.49
-50.44
-55.34
-56.54
-52.90
-44.30
-31.74
-17.12
-2.54
10.24
20.29
27.36
31.77
33.99
34.45
33.51
31.54
28.93
26.07
23.30
20.85
18.80
17.17
15.94
15.14
14.75
14.64
14.58
14.15
12.95
10.72
7.42
3.32
-1.21
-5.78
-10.15
-14.30
-18.44
-22.93
-28.27
-34.82
-42.58
-50.90
-58.42
-63.33
-63.91
-59.21
-49.41
-35.80
-20.32
-4.90
9.03
20.70
29.90
36.57
40.71
42.36
41.74
39.37
36.10
32.88
30.48
29.22
28.93
29.04
28.89
28.07
26.52
24.60
22.81
21.53
20.70
19.89
18.41
15.64
11.35
5.73
-0.67
-7.16
-13.20
-18.54
-23.30
-27.84
-32.65
-38.19
-44.81
-52.51
-60.81
-68.68
-74.62
-76.99
-74.54
-66.80
-54.36
-38.71
-21.84
-5.66
8.42
19.69
28.05
33.75
37.11
38.52
38.37
37.20
35.56
34.02
32.94
32.37
32.07
31.67
30.86
29.60
28.14
26.89
26.11
25.76
25.34
24.13
21.52
17.28
11.68
5.38
-0.86
-6.49
-11.38
-15.79
-20.20
-25.17
-31.11
-38.18
-46.09
-54.03
-60.67
-64.40
-63.83
-58.27
-48.09
-34.61
-19.67
-5.08
7.84
18.47
26.66
32.50
36.10
37.62
37.30
35.59
33.11
30.50
28.22
26.50
25.28
24.45
23.87
23.46
23.18
22.98
22.69
22.01
20.57
18.02
14.22
9.33
3.79
-1.76
-6.79
-11.03
-14.63
-18.14
-22.30
-27.77
-34.84
-43.21
-51.92
-59.40
-63.85
-63.69
-58.12
-47.46
-33.13
-17.27
-2.06
10.84
20.64
27.35
31.44
33.47
33.87
32.92
30.89
28.17
25.24
22.61
20.67
19.60
19.27
19.40
19.65
19.68
19.30
18.43
17.02
15.04
12.46
9.21
5.27
0.76
-4.14
-9.23
-14.45
-19.98
-26.14
-33.23
-41.15
-49.16
-55.86
-59.51
-58.60
-52.46
-41.49
-27.12
-11.29
4.05
17.49
28.32
36.35
41.74
44.75
45.58
44.54
42.10
39.00
36.06
34.04
33.28
33.60
34.38
34.88
34.54
33.27
31.34
29.18
27.07
24.94
22.42
19.10
14.74
9.40
3.45
-2.70
-8.72
-14.55
-20.32
-26.25
-32.65
-39.77
-47.77
-56.58
-65.68
-73.96
-79.78
-81.32
-77.21
-67.11
-52.01
-33.97
-15.47
1.36
15.27
26.01
34.00
39.86
43.99
46.53
47.54
47.22
46.10
44.87
44.20
44.38
45.26
46.36
47.24
47.67
47.82
48.02
48.51
49.18
49.54
49.03
47.29
44.40
40.84
37.27
34.12
31.40
28.61
24.89
19.35
11.29
0.41
-13.13
-28.76
-45.47
-61.95
-76.58
-87.67
-93.73
-93.88
-88.16
-77.61
-64.01
-49.34
-35.27
-22.80
-12.23
-3.48
3.54
8.77
12.00
13.08
12.20
9.92
7.11
4.56
2.84
2.05
2.04
2.55
3.41
4.59
6.07
7.72
9.19
10.04
9.92
8.75
6.84
4.67
2.70
1.06
-0.43
-2.20
-4.70
-8.16
-12.49
-17.29
-22.04
-26.22
-29.58
-32.21
-34.62
-37.57
-41.88
-48.03
-55.72
-63.76
-70.21
-72.93
-70.34
-61.96
-48.61
-32.17
-14.89
1.23
14.92
25.66
33.51
38.71
41.53
42.22
41.15
38.94
36.40
34.34
33.34
33.56
34.70
36.21
37.51
38.20
38.19
37.61
36.67
35.52
34.16
32.37
29.86
26.35
21.76
16.30
10.42
4.76
-0.19
-4.20
-7.45
-10.45
-13.84
-18.26
-24.02
-30.96
-38.35
-44.87
-48.86
-48.74
-43.55
-33.35
-19.28
-3.17
13.02
27.73
40.06
49.66
56.47
60.52
61.98
61.21
58.89
55.89
52.91
50.18
47.42
44.00
39.33
33.29
26.24
18.93
12.12
6.25
1.26
-3.35
-8.27
-14.02
-20.72
-28.03
-35.27
-41.74
-46.97
-51.01
-54.35
-57.82
-62.26
-68.24
-75.71
-83.87
-91.14
-95.44
-94.82
-88.06
-75.20
-57.60
-37.53
-17.37
1.00
16.55
28.99
38.40
44.93
48.71
50.03
49.45
47.93
46.60
46.38
47.72
50.53
54.23
58.10
61.53
64.25
66.32
68.04
69.80
71.86
74.31
77.00
79.53
81.34
81.83
80.58
77.49
72.86
67.23
61.18
55.02
48.71
42.00
34.63
26.62
18.36
10.48
3.59
-1.96
-6.16
-9.30
-11.76
-13.95
-16.15
-18.57
-21.34
-24.59
-28.43
-32.88
-37.91
-43.37
-49.08
-54.85
-60.53
-66.00
-71.18
-76.06
-80.62
-84.82
-88.52
-91.51
-93.50
-94.29
-93.87
-92.47
-90.55
-88.60
-87.00
-85.92
-85.42
-85.51
-86.30
-87.99
-90.87
-95.08
-100.53
-106.69
-112.55
-116.64
-117.26
-112.91
-102.74
-86.92
-66.70
-44.14
-21.52
-0.80
16.74
30.58
40.78
47.65
51.60
53.09
52.59
50.71
48.08
45.33
42.98
41.37
40.66
40.78
41.50
42.42
43.05
42.93
41.70
39.20
35.47
30.71
25.22
19.27
13.12
6.96
0.88
-5.16
-11.37
-18.12
-25.76
-34.28
-43.01
-50.53
-54.96
-54.58
-48.50
-37.09
-21.96
-5.34
10.59
24.29
35.02
42.71
47.60
49.96
50.07
48.20
44.81
40.47
35.89
31.76
28.59
26.70
26.06
26.37
27.02
27.39
26.92
25.30
22.53
18.82
14.47
9.74
4.75
-0.50
-6.11
-12.25
-19.16
-27.06
-36.01
-45.60
-54.80
-61.97
-65.25
-63.15
-55.13
-41.92
-25.28
-7.44
9.57
24.36
36.29
45.24
51.27
54.52
55.17
53.65
50.64
46.96
43.41
40.46
38.24
36.57
35.16
33.80
32.47
31.25
30.20
29.23
27.99
25.94
22.59
17.67
11.36
4.20
-3.02
-9.62
-15.26
-20.14
-24.97
-30.69
-38.13
-47.57
-58.44
-69.25
-77.83
-81.88
-79.71
-70.79
-56.01
-37.41
-17.57
1.23
17.46
30.56
40.66
48.14
53.27
56.19
56.96
55.85
53.44
50.56
48.06
46.52
46.03
46.25
46.52
46.25
45.10
43.12
40.69
38.27
36.11
34.11
31.78
28.51
23.81
17.63
10.40
2.88
-4.07
-9.92
-14.53
-18.33
-22.02
-26.42
-32.21
-39.76
-48.96
-59.06
-68.64
-75.77
-78.45
-75.14
-65.46
-50.33
-31.85
-12.57
5.18
19.94
31.26
39.41
45.01
48.62
50.53
50.87
49.77
47.59
44.83
42.16
40.18
39.23
39.30
40.05
41.02
41.74
41.95
41.52
40.44
38.68
36.18
32.91
28.92
24.37
19.45
14.37
9.24
4.08
-1.10
-6.31
-11.52
-16.70
-21.86
-27.04
-32.34
-37.95
-44.13
-51.12
-58.95
-67.18
-74.67
-79.76
-80.63
-75.95
-65.41
-49.96
-31.57
-12.62
4.75
19.16
30.05
37.53
41.94
43.69
43.16
40.81
37.22
33.15
29.37
26.49
24.78
24.20
24.41
25.03
25.68
26.12
26.17
25.67
24.43
22.21
18.87
14.42
9.09
3.30
-2.54
-8.15
-13.47
-18.74
-24.40
-30.93
-38.58
-47.11
-55.53
-62.19
-65.15
-62.79
-54.45
-40.76
-23.59
-5.40
11.48
25.48
35.94
42.99
47.07
48.67
48.16
45.90
42.33
38.04
33.62
29.59
26.25
23.71
21.94
20.87
20.39
20.39
20.65
20.78
20.26
18.55
15.27
10.41
4.36
-2.18
-8.49
-14.03
-18.76
-23.05
-27.68
-33.47
-41.00
-50.25
-60.38
-69.75
-76.25
-77.89
-73.43
-62.86
-47.40
-29.14
-10.43
6.77
21.15
32.14
39.72
44.17
45.91
45.45
43.39
40.35
36.95
33.63
30.67
28.12
25.90
23.90
22.15
20.81
20.06
19.95
20.20
20.22
19.30
16.89
12.81
7.39
1.21
-5.13
-11.25
-17.10
-22.85
-28.81
-35.29
-42.53
-50.56
-59.03
-67.03
-73.11
-75.51
-72.77
-64.30
-50.76
-33.90
-16.05
0.69
14.94
26.17
34.52
40.29
43.72
44.94
44.15
41.81
38.61
35.33
32.58
30.60
29.27
28.27
27.33
26.37
25.53
25.01
24.92
25.03
24.82
23.60
20.84
16.38
10.53
3.95
-2.58
-8.54
-13.73
-18.34
-22.85
-27.86
-33.90
-41.32
-49.91
-58.78
-66.36
-70.69
-70.01
-63.46
-51.40
-35.40
-17.73
-0.66
14.14
25.79
34.14
39.41
41.90
41.92
39.87
36.32
32.02
27.77
24.18
21.59
20.06
19.42
19.48
19.99
20.66
21.14
20.98
19.82
17.44
13.90
9.52
4.71
-0.14
-4.77
-9.06
-13.11
-17.18
-21.76
-27.46
-34.71
-43.38
-52.45
-60.08
-64.06
-62.65
-55.23
-42.68
-27.00
-10.67
4.23
16.44
25.61
31.95
35.77
37.24
36.43
33.48
28.85
23.36
18.03
13.74
11.04
9.93
9.93
10.38
10.63
10.29
9.21
7.47
5.18
2.44
-0.72
-4.33
-8.46
-13.21
-18.78
-25.39
-33.12
-41.76
-50.58
-58.37
-63.52
-64.58
-60.67
-51.84
-39.18
-24.42
-9.48
4.11
15.44
24.24
30.53
34.40
35.85
34.84
31.61
26.73
21.15
15.93
11.88
9.36
8.20
7.81
7.51
6.76
5.32
3.24
0.76
-1.90
-4.60
-7.41
-10.58
-14.44
-19.39
-25.75
-33.66
-42.88
-52.62
-61.50
-67.72
-69.55
-65.88
-56.65
-42.96
-26.73
-10.03
5.41
18.58
29.12
37.00
42.24
44.79
44.66
42.08
37.68
32.42
27.34
23.28
20.61
19.20
18.55
18.03
17.13
15.61
13.47
10.83
7.80
4.39
0.48
-4.03
-9.19
-14.98
-21.42
-28.60
-36.66
-45.49
-54.49
-62.34
-67.25
-67.43
-61.78
-50.44
-34.80
-17.09
0.42
15.98
28.76
38.59
45.65
50.06
51.95
51.53
49.30
46.06
42.67
39.77
37.50
35.66
33.86
31.87
29.76
27.80
26.18
24.84
23.35
21.09
17.57
12.62
6.57
0.03
-6.32
-12.09
-17.26
-22.18
-27.42
-33.61
-41.24
-50.49
-60.96
-71.52
-80.32
-85.17
-84.18
-76.50
-62.70
-44.69
-24.98
-5.96
10.84
24.82
36.09
44.91
51.45
55.68
57.63
57.60
56.24
54.35
52.61
51.37
50.64
50.14
49.62
49.02
48.50
48.25
48.35
48.52
48.22
46.79
43.75
39.10
33.27
27.01
21.06
15.83
11.28
6.96
2.34
-3.02
-9.17
-15.78
-22.31
-28.26
-33.42
-37.92
-42.23
-47.00
-52.88
-60.35
-69.56
-80.07
-90.71
-99.58
-104.36
-103.06
-94.69
-79.74
-60.15
-38.62
-17.74
0.73
16.16
28.67
38.65
46.30
51.51
54.13
54.31
52.69
50.28
48.11
46.83
46.51
46.76
47.07
47.11
46.92
46.75
46.83
47.13
47.27
46.73
45.06
42.07
37.96
33.11
27.93
22.66
17.26
11.57
5.35
-1.43
-8.61
-15.84
-22.66
-28.73
-33.97
-38.57
-42.99
-47.89
-53.85
-61.27
-69.98
-79.06
-86.84
-91.20
-90.22
-82.85
-69.40
-51.52
-31.69
-12.39
4.58
18.40
29.03
36.79
41.97
44.72
45.18
43.72
41.04
38.01
35.49
34.04
33.79
34.47
35.59
36.66
37.32
37.39
36.93
36.06
34.95
33.66
32.08
29.92
26.81
22.53
17.08
10.79
4.18
-2.20
-7.98
-13.08
-17.66
-22.04
-26.58
-31.58
-37.31
-43.95
-51.44
-59.31
-66.46
-71.35
-72.29
-68.05
-58.33
-44.02
-26.92
-9.21
7.16
20.91
31.49
38.85
43.19
44.72
43.73
40.71
36.39
31.70
27.51
24.34
22.30
21.16
20.54
20.13
19.82
19.68
19.83
20.27
20.77
20.88
19.98
17.51
13.21
7.24
0.22
-6.90
-13.25
-18.35
-22.27
-25.63
-29.31
-34.15
-40.63
-48.69
-57.55
-65.85
-71.78
-73.57
-69.94
-60.59
-46.31
-28.85
-10.40
7.00
21.92
33.66
42.13
47.49
49.96
49.79
47.32
43.15
38.10
33.12
29.00
26.14
24.49
23.62
23.03
22.34
21.47
20.62
19.99
19.62
19.23
18.27
16.15
12.50
7.34
1.08
-5.60
-12.04
-17.84
-22.95
-27.70
-32.62
-38.29
-45.17
-53.46
-62.92
-72.77
-81.61
-87.57
-88.78
-83.96
-72.90
-56.71
-37.50
-17.73
0.53
16.06
28.52
38.06
44.89
49.05
50.49
49.37
46.25
42.08
37.91
34.56
32.36
31.16
30.49
29.87
29.04
28.00
26.95
26.11
25.46
24.71
23.34
20.77
16.63
10.89
3.96
-3.50
-10.78
-17.35
-23.05
-28.11
-33.06
-38.56
-45.26
-53.52
-63.16
-73.29
-82.27
-88.11
-88.93
-83.66
-72.35
-56.25
-37.40
-18.02
0.02
15.54
27.97
37.24
43.44
46.77
47.49
46.06
43.10
39.36
35.63
32.52
30.42
29.32
28.96
28.90
28.72
28.25
27.54
26.76
26.01
25.04
23.35
20.37
15.73
9.57
2.49
-4.65
-11.08
-16.44
-20.94
-25.18
-29.98
-36.04
-43.73
-52.96
-63.09
-72.85
-80.49
-84.11
-82.17
-74.04
-60.29
-42.64
-23.37
-4.80
11.39
24.30
33.69
39.72
42.68
42.94
41.04
37.73
33.85
30.24
27.41
25.56
24.53
24.02
23.76
23.65
23.64
23.75
23.88
23.75
22.97
21.12
17.90
13.27
7.47
0.98
-5.60
-11.74
-17.24
-22.22
-27.24
-33.04
-40.25
-49.03
-58.71
-67.81
-74.30
-76.19
-72.20
-62.19
-47.28
-29.49
-11.14
5.75
19.84
30.55
37.85
41.99
43.33
42.27
39.35
35.28
30.86
26.87
23.88
22.12
21.46
21.57
22.06
22.61
23.02
23.08
22.50
20.98
18.25
14.20
8.98
3.02
-3.15
-9.01
-14.33
-19.19
-24.05
-29.62
-36.55
-45.19
-55.16
-65.25
-73.55
-77.87
-76.46
-68.62
-54.95
-37.19
-17.72
1.20
17.85
31.33
41.38
48.08
51.66
52.46
50.94
47.82
43.96
40.25
37.31
35.38
34.26
33.55
32.88
32.06
31.15
30.31
29.62
28.92
27.75
25.55
21.85
16.50
9.75
2.16
-5.56
-12.84
-19.43
-25.44
-31.30
-37.67
-45.19
-54.23
-64.55
-75.13
-84.10
-89.24
-88.56
-81.08
-67.23
-48.77
-28.20
-8.01
10.01
24.96
36.65
45.30
51.20
54.55
55.61
54.77
52.61
49.90
47.37
45.59
44.75
44.73
45.08
45.30
44.99
44.01
42.47
40.59
38.51
36.12
33.09
29.01
23.52
16.65
8.78
0.58
-7.22
-14.08
-19.88
-24.90
-29.75
-35.13
-41.66
-49.67
-59.05
-69.11
-78.48
-85.30
-87.57
-83.78
-73.50
-57.61
-38.16
-17.72
1.37
17.55
30.25
39.64
46.21
50.37
52.38
52.42
50.77
47.99
44.86
42.24
40.75
40.60
41.51
42.81
43.77
43.81
42.77
40.83
38.43
35.95
33.55
31.09
28.20
24.53
19.88
14.32
8.17
1.80
-4.44
-10.37
-15.94
-21.21
-26.35
-31.60
-37.34
-43.95
-51.68
-60.30
-68.92
-75.89
-79.27
-77.39
-69.44
-55.90
-38.36
-19.06
-0.21
16.51
30.13
40.33
47.18
50.90
51.79
50.33
47.16
43.12
39.15
36.01
34.18
33.67
34.09
34.81
35.20
34.86
33.81
32.36
30.92
29.72
28.59
26.97
24.16
19.69
13.59
6.43
-0.87
-7.45
-12.83
-17.09
-20.76
-24.55
-29.14
-34.98
-42.19
-50.51
-59.18
-66.90
-71.99
-72.77
-68.11
-57.83
-42.93
-25.29
-7.13
9.69
23.97
35.21
43.40
48.60
50.86
50.28
47.20
42.40
36.98
32.15
28.80
27.25
27.18
27.84
28.45
28.45
27.74
26.58
25.32
24.18
23.04
21.41
18.66
14.28
8.19
0.82
-7.00
-14.36
-20.64
-25.75
-30.15
-34.68
-40.21
-47.32
-56.05
-65.75
-75.06
-82.11
-84.99
-82.22
-73.31
-58.96
-40.97
-21.62
-3.11
13.06
26.15
36.13
43.25
47.76
49.84
49.69
47.67
44.42
40.72
37.37
34.88
33.43
32.82
32.65
32.48
32.04
31.23
30.12
28.83
27.39
25.65
23.31
19.99
15.38
9.46
2.54
-4.79
-11.85
-18.11
-23.39
-27.96
-32.41
-37.45
-43.72
-51.51
-60.65
-70.40
-79.40
-85.86
-87.98
-84.44
-74.92
-60.24
-42.25
-23.20
-5.15
10.55
23.37
33.35
40.76
45.80
48.56
49.18
47.97
45.50
42.51
39.71
37.61
36.38
35.87
35.71
35.45
34.76
33.52
31.85
30.03
28.29
26.62
24.73
22.12
18.32
13.14
6.84
-0.01
-6.72
-12.76
-17.98
-22.58
-27.01
-31.76
-37.31
-44.00
-51.94
-60.79
-69.61
-76.83
-80.56
-79.14
-71.79
-58.95
-42.24
-23.90
-6.18
9.36
21.93
31.46
38.21
42.46
44.41
44.23
42.28
39.15
35.64
32.52
30.35
29.30
29.15
29.49
29.81
29.80
29.30
28.40
27.22
25.89
24.36
22.42
19.68
15.83
10.73
4.56
-2.21
-8.90
-14.95
-20.07
-24.31
-28.08
-31.92
-36.40
-41.94
-48.75
-56.61
-64.86
-72.29
-77.31
-78.37
-74.39
-65.15
-51.41
-34.76
-17.12
-0.32
14.30
25.95
34.36
39.64
42.07
42.05
40.11
36.87
33.02
29.22
26.03
23.72
22.33
21.64
21.30
21.05
20.78
20.49
20.16
19.68
18.66
16.70
13.46
8.92
3.39
-2.59
-8.45
-13.76
-18.44
-22.68
-26.97
-31.92
-38.04
-45.52
-53.90
-61.95
-67.85
-69.64
-65.95
-56.48
-42.28
-25.37
-8.09
7.55
20.35
29.91
36.39
40.13
41.47
40.72
38.30
34.81
30.93
27.27
24.17
21.70
19.77
18.24
17.07
16.36
16.12
16.19
16.16
15.39
13.34
9.68
4.53
-1.62
-8.08
-14.20
-19.64
-24.42
-28.94
-33.86
-39.90
-47.53
-56.75
-66.77
-76.06
-82.58
-84.36
-80.13
-69.82
-54.59
-36.48
-17.76
-0.30
14.68
26.67
35.55
41.46
44.57
45.21
43.87
41.22
38.00
34.86
32.20
30.15
28.64
27.54
26.72
26.12
25.68
25.26
24.59
23.33
21.14
17.80
13.31
7.88
1.85
-4.40
-10.58
-16.55
-22.44
-28.56
-35.44
-43.60
-53.20
-63.78
-73.97
-81.67
-84.65
-81.30
-71.28
-55.74
-36.93
-17.49
0.42
15.51
27.40
36.26
42.41
46.12
47.59
47.13
45.21
42.46
39.52
36.84
34.64
32.94
31.62
30.58
29.77
29.17
28.76
28.35
27.60
26.01
23.13
18.75
13.02
6.44
-0.28
-6.57
-12.20
-17.38
-22.69
-28.88
-36.56
-45.94
-56.60
-67.38
-76.43
-81.61
-81.06
-73.92
-60.64
-43.01
-23.55
-4.73
11.67
24.83
34.73
41.74
46.23
48.42
48.50
46.78
43.86
40.50
37.48
35.37
34.33
34.13
34.28
34.26
33.76
32.76
31.49
30.13
28.65
26.69
23.72
19.34
13.52
6.73
-0.23
-6.60
-11.96
-16.43
-20.57
-25.26
-31.30
-39.15
-48.65
-58.82
-67.91
-73.72
-74.25
-68.35
-56.23
-39.42
-20.36
-1.63
14.81
27.85
37.27
43.29
46.30
46.71
44.92
41.50
37.16
32.68
28.72
25.73
23.88
23.10
23.22
23.96
25.00
25.90
26.24
25.60
23.77
20.73
16.70
12.00
6.94
1.70
-3.69
-9.31
-15.32
-21.93
-29.38
-37.78
-46.98
-56.18
-63.96
-68.45
-67.89
-61.31
-49.02
-32.53
-14.19
3.67
19.25
31.59
40.45
45.96
48.43
48.23
45.87
42.07
37.74
33.77
30.80
29.07
28.40
28.38
28.56
28.63
28.48
28.04
27.22
25.78
23.37
19.71
14.74
8.75
2.26
-4.16
-10.08
-15.44
-20.53
-25.88
-32.12
-39.72
-48.76
-58.69
-68.20
-75.38
-78.17
-74.95
-65.19
-49.70
-30.45
-9.95
9.45
26.18
39.56
49.58
56.52
60.71
62.32
61.66
59.26
56.02
52.95
50.88
50.15
50.52
51.25
51.49
50.62
48.53
45.63
42.56
39.86
37.67
35.64
33.14
29.56
24.57
18.37
11.53
4.80
-1.24
-6.41
-10.94
-15.37
-20.40
-26.67
-34.67
-44.54
-55.88
-67.59
-77.94
-84.86
-86.61
-82.31
-72.40
-58.49
-42.90
-27.90
-15.08
-5.17
1.88
6.54
9.36
10.80
11.21
10.98
10.51
10.25
10.55
11.59
13.35
15.62
18.11
20.48
22.51
24.07
25.09
25.52
25.32
24.38
22.66
20.16
16.95
13.18
9.00
4.53
-0.14
-4.91
-9.67
-14.30
-18.70
-22.87
-26.92
-31.08
-35.66
-40.96
-47.19
-54.34
-61.92
-68.91
-73.69
-74.50
-69.98
-59.70
-44.48
-26.17
-7.15
10.45
25.24
36.61
44.59
49.46
51.50
51.01
48.42
44.40
39.83
35.59
32.32
30.25
29.20
28.75
28.42
27.92
27.17
26.24
25.23
24.08
22.53
20.24
16.90
12.46
7.16
1.50
-3.95
-8.81
-13.01
-16.85
-20.88
-25.77
-32.00
-39.63
-48.06
-56.02
-61.71
-63.34
-59.70
-50.61
-37.05
-20.85
-4.16
11.22
24.09
33.95
40.77
44.75
46.17
45.36
42.81
39.11
34.90
30.79
27.19
24.27
22.01
20.27
18.91
17.85
17.11
16.69
16.43
15.94
14.62
11.94
7.62
1.86
-4.77
-11.48
-17.65
-22.96
-27.54
-31.79
-36.30
-41.62
-48.15
-55.85
-64.07
-71.47
-76.21
-76.47
-71.09
-60.10
-44.75
-27.13
-9.48
6.44
19.65
29.88
37.23
41.89
43.96
43.66
41.36
37.76
33.74
30.12
27.43
25.77
24.86
24.27
23.61
22.75
21.79
20.91
20.23
19.58
18.54
16.62
13.39
8.74
2.86
-3.77
-10.55
-16.96
-22.69
-27.68
-32.16
-36.63
-41.69
-47.81
-55.11
-63.02
-70.27
-75.10
-75.72
-71.00
-60.81
-46.20
-29.01
-11.32
5.08
19.06
30.14
38.30
43.70
46.52
46.98
45.40
42.33
38.55
34.89
32.00
30.18
29.25
28.73
28.12
27.11
25.69
24.15
22.76
21.59
20.38
18.62
15.80
11.64
6.29
0.25
-5.84
-11.44
-16.34
-20.70
-24.91
-29.42
-34.62
-40.77
-47.94
-55.95
-64.15
-71.41
-76.15
-76.77
-72.15
-62.08
-47.51
-30.20
-12.26
4.38
18.40
29.07
36.23
40.05
40.92
39.45
36.38
32.46
28.38
24.60
21.39
18.81
16.88
15.60
14.97
14.89
15.18
15.43
15.16
13.91
11.40
7.63
2.93
-2.17
-7.10
-11.48
-15.22
-18.55
-21.95
-26.02
-31.29
-37.98
-45.79
-53.77
-60.37
-63.81
-62.58
-55.99
-44.46
-29.47
-13.03
2.84
16.66
27.66
35.62
40.64
42.89
42.52
39.86
35.43
30.03
24.57
19.86
16.42
14.38
13.57
13.56
13.85
13.92
13.40
12.05
9.84
6.89
3.41
-0.37
-4.33
-8.47
-12.93
-17.99
-24.01
-31.33
-40.06
-49.85
-59.66
-67.83
-72.40
-71.70
-64.93
-52.53
-36.06
-17.81
-0.10
15.30
27.40
35.97
41.27
43.77
43.93
42.25
39.21
35.36
31.27
27.47
24.34
22.07
20.69
20.03
19.83
19.68
19.13
17.81
15.49
12.16
7.98
3.23
-1.80
-6.92
-12.07
-17.37
-23.07
-29.52
-37.07
-45.89
-55.68
-65.46
-73.57
-78.08
-77.30
-70.44
-57.95
-41.39
-22.94
-4.77
11.48
24.90
35.18
42.36
46.60
48.13
47.31
44.71
41.12
37.37
34.12
31.71
30.17
29.28
28.75
28.45
28.28
28.21
28.02
27.38
25.81
22.94
18.61
13.04
6.71
0.20
-6.02
-11.72
-17.00
-22.27
-28.18
-35.37
-44.14
-54.16
-64.23
-72.45
-76.67
-75.21
-67.49
-54.25
-37.35
-19.12
-1.66
13.62
26.04
35.48
42.03
45.81
46.93
45.69
42.66
38.68
34.73
31.66
29.91
29.53
30.13
31.19
32.23
32.97
33.32
33.27
32.67
31.20
28.51
24.31
18.68
12.03
5.01
-1.70
-7.66
-12.77
-17.27
-21.70
-26.67
-32.77
-40.30
-49.00
-57.98
-65.58
-69.80
-68.80
-61.59
-48.48
-31.11
-11.92
6.62
22.67
35.36
44.59
50.66
53.88
54.50
52.81
49.43
45.29
41.45
38.72
37.41
37.28
37.81
38.53
39.27
40.08
41.06
42.09
42.72
42.34
40.57
37.45
33.49
29.42
25.85
22.94
20.42
17.66
14.03
9.04
2.67
-4.58
-11.51
-16.22
-16.47
-10.27
3.27
23.27
47.03
70.60
89.91
101.96
105.42
100.69
89.35
73.29
54.26
33.68
12.72
-7.45
-25.66
-40.95
-52.83
-61.46
-67.53
-71.95
-75.36
-77.98
-79.58
-79.83
-78.64
-76.36
-73.64
-71.16
-69.36
-68.22
-67.40
-66.45
-65.08
-63.31
-61.54
-60.42
-60.65
-62.65
-66.20
-70.19
-72.72
-71.57
-64.93
-52.12
-33.97
-12.60
9.30
29.30
45.83
58.30
66.80
71.52
72.46
69.42
62.28
51.46
37.98
23.37
9.25
-3.09
-13.05
-20.59
-26.09
-29.86
-32.01
-32.39
-30.84
-27.45
-22.69
-17.38
-12.36
-8.19
-4.95
-2.31
0.09
2.46
4.49
5.60
5.15
2.75
-1.66
-7.82
-15.27
-23.30
-30.89
-36.72
-39.28
-37.39
-30.62
-19.65
-6.08
8.04
20.90
31.40
39.19
44.49
47.68
49.07
48.92
47.59
45.62
43.71
42.55
42.60
43.96
46.34
49.24
52.09
54.46
56.16
57.20
57.67
57.67
57.07
55.60
52.89
48.72
43.07
36.30
28.97
21.75
15.10
9.17
3.67
-1.97
-8.53
-16.69
-26.71
-38.17
-49.78
-59.66
-65.77
-66.55
-61.53
-51.44
-38.07
-23.64
-10.18
0.93
9.09
14.32
17.01
17.67
16.81
14.94
12.60
10.27
8.30
6.86
5.93
5.37
5.06
4.94
5.01
5.24
5.46
5.32
4.41
2.39
-0.82
-4.99
-9.63
-14.18
-18.22
-21.63
-24.64
-27.82
-31.83
-37.24
-44.13
-51.91
-59.27
-64.44
-65.69
-61.90
-52.93
-39.78
-24.19
-8.16
6.59
18.97
28.57
35.37
39.61
41.56
41.53
39.93
37.33
34.41
31.78
29.82
28.61
27.94
27.44
26.79
25.85
24.62
23.19
21.52
19.41
16.58
12.80
8.09
2.74
-2.81
-8.10
-12.90
-17.28
-21.51
-26.08
-31.44
-37.93
-45.54
-53.68
-61.15
-66.24
-67.23
-63.01
-53.58
-40.13
-24.68
-9.32
4.40
15.80
24.80
31.66
36.47
39.23
39.91
38.80
36.53
33.94
31.75
30.31
29.49
28.83
27.90
26.48
24.69
22.86
21.25
19.90
18.52
16.67
13.95
10.20
5.60
0.58
-4.34
-8.76
-12.52
-15.77
-18.87
-22.35
-26.73
-32.39
-39.36
-47.08
-54.40
-59.67
-61.24
-57.95
-49.61
-37.18
-22.39
-7.30
6.37
17.61
26.07
31.85
35.20
36.35
35.54
33.21
30.02
26.75
24.09
22.37
21.49
21.06
20.61
19.78
18.54
17.04
15.46
13.83
11.98
9.58
6.35
2.21
-2.59
-7.58
-12.27
-16.35
-19.80
-22.95
-26.33
-30.50
-35.84
-42.35
-49.51
-56.20
-60.91
-62.10
-58.66
-50.33
-37.84
-22.76
-6.97
7.76
20.17
29.56
35.75
38.90
39.34
37.54
34.07
29.53
24.56
19.74
15.57
12.36
10.30
9.33
9.23
9.64
10.12
10.23
9.60
8.01
5.44
2.08
-1.75
-5.64
-9.31
-12.68
-15.96
-19.60
-24.14
-30.08
-37.52
-45.98
-54.34
-60.88
-63.81
-61.69
-54.05
-41.56
-25.91
-9.30
6.23
19.24
29.12
35.93
40.07
41.95
41.92
40.27
37.35
33.65
29.76
26.26
23.57
21.86
21.03
20.83
20.94
21.04
20.81
19.95
18.21
15.44
11.63
6.94
1.64
-3.93
-9.50
-14.91
-20.16
-25.42
-31.03
-37.36
-44.62
-52.57
-60.32
-66.38
-68.96
-66.61
-58.70
-45.78
-29.48
-12.00
4.53
18.55
29.31
36.75
41.22
43.20
43.22
41.76
39.35
36.49
33.64
31.07
28.88
26.99
25.31
23.81
22.57
21.74
21.37
21.30
21.06
20.03
17.62
13.57
8.07
1.76
-4.56
-10.23
-14.95
-18.91
-22.66
-26.90
-32.26
-39.05
-47.07
-55.44
-62.69
-67.00
-66.71
-60.96
-50.00
-35.19
-18.59
-2.29
12.13
23.83
32.63
38.65
42.12
43.27
42.40
40.04
36.92
33.82
31.33
29.66
28.58
27.65
26.43
24.80
22.91
21.16
19.83
18.92
18.03
16.51
13.80
9.66
4.32
-1.61
-7.39
-12.46
-16.63
-20.10
-23.37
-27.04
-31.65
-37.53
-44.63
-52.42
-59.77
-65.09
-66.68
-63.33
-54.75
-41.77
-26.15
-10.03
4.72
16.87
25.96
32.13
35.73
37.14
36.69
34.72
31.71
28.25
25.00
22.48
20.94
20.31
20.32
20.63
20.98
21.25
21.33
21.01
19.97
17.95
14.84
10.83
6.32
1.68
-2.91
-7.48
-12.23
-17.41
-23.22
-29.65
-36.49
-43.09
-48.32
-50.75
-49.00
-42.32
-31.04
-16.60
-1.17
13.10
24.73
33.15
38.57
41.46
42.23
41.03
37.95
33.23
27.47
21.58
16.49
12.87
10.91
10.33
10.53
10.84
10.74
9.89
8.26
5.94
3.13
0.03
-3.27
-6.75
-10.49
-14.62
-19.35
-24.95
-31.67
-39.58
-48.28
-56.74
-63.32
-66.19
-63.94
-56.16
-43.69
-28.40
-12.54
1.98
14.01
23.19
29.69
33.78
35.69
35.57
33.70
30.55
26.79
23.11
20.03
17.80
16.40
15.63
15.19
14.78
14.13
13.01
11.28
8.93
6.02
2.68
-0.98
-4.87
-9.01
-13.47
-18.36
-23.83
-30.05
-37.08
-44.65
-52.05
-58.05
-61.13
-59.94
-53.76
-42.91
-28.62
-12.76
2.77
16.51
27.62
35.83
41.25
44.19
45.03
44.30
42.67
40.92
39.78
39.72
40.85
42.86
45.11
46.84
47.41
46.48
44.04
40.36
35.80
30.61
24.93
18.80
12.38
5.95
-0.11
-5.54
-10.42
-15.26
-20.85
-27.95
-36.96
-47.61
-58.90
-69.13
-76.34
-78.76
-75.39
-66.39
-53.05
-37.45
-21.77
-7.62
4.24
13.77
21.24
26.84
30.53
32.26
32.18
30.79
28.86
27.05
25.73
24.86
24.17
23.42
22.52
21.58
20.70
19.81
18.53
16.38
12.95
8.16
2.35
-3.84
-9.72
-14.76
-18.84
-22.23
-25.52
-29.41
-34.52
-41.10
-48.78
-56.53
-62.72
-65.53
-63.61
-56.48
-44.86
-30.40
-15.12
-0.78
11.47
21.17
28.29
32.99
35.39
35.68
34.23
31.61
28.54
25.70
23.49
22.03
21.21
20.78
20.55
20.35
20.02
19.36
18.11
16.08
13.17
9.45
5.21
0.79
-3.57
-7.79
-12.01
-16.49
-21.53
-27.36
-33.98
-41.10
-48.04
-53.74
-56.93
-56.36
-51.28
-41.69
-28.52
-13.41
1.66
14.97
25.37
32.46
36.45
37.86
37.26
35.14
31.93
28.09
24.19
20.84
18.56
17.62
17.87
18.85
19.91
20.48
20.21
19.01
16.94
14.15
10.74
6.80
2.43
-2.25
-7.10
-12.03
-17.06
-22.33
-28.09
-34.60
-41.96
-49.85
-57.38
-63.12
-65.43
-62.97
-55.25
-42.92
-27.67
-11.66
3.15
15.56
25.25
32.52
37.81
41.38
43.24
43.34
41.83
39.17
36.05
33.12
30.82
29.23
28.17
27.41
26.79
26.24
25.72
25.04
23.83
21.68
18.26
13.52
7.77
1.57
-4.45
-9.82
-14.39
-18.33
-22.07
-26.22
-31.37
-37.96
-46.00
-54.87
-63.29
-69.49
-71.66
-68.56
-60.01
-46.91
-31.06
-14.53
0.93
14.22
24.92
33.04
38.79
42.39
44.03
43.97
42.56
40.20
37.33
34.30
31.40
28.82
26.71
25.14
24.00
23.07
21.99
20.37
17.91
14.49
10.18
5.20
-0.09
-5.30
-10.09
-14.26
-17.89
-21.33
-25.14
-29.93
-36.04
-43.28
-50.83
-57.26
-60.88
-60.30
-54.82
-44.72
-31.18
-15.89
-0.61
13.28
24.90
33.83
40.02
43.56
44.74
43.97
41.83
38.92
35.82
32.96
30.61
28.88
27.70
26.92
26.27
25.49
24.36
22.72
20.50
17.66
14.20
10.15
5.59
0.75
-4.12
-8.75
-13.10
-17.34
-21.90
-27.29
-33.81
-41.20
-48.57
-54.38
-56.88
-54.68
-47.25
-35.26
-20.35
-4.68
9.74
21.55
30.23
35.93
39.17
40.50
40.31
38.79
36.16
32.69
28.84
25.18
22.27
20.44
19.70
19.69
19.86
19.67
18.75
16.95
14.32
10.92
6.85
2.23
-2.76
-7.84
-12.72
-17.24
-21.50
-25.91
-31.04
-37.27
-44.43
-51.61
-57.22
-59.50
-57.07
-49.52
-37.53
-22.73
-7.13
7.44
19.74
29.17
35.64
39.33
40.56
39.71
37.36
34.19
30.91
28.07
25.93
24.41
23.27
22.25
21.29
20.46
19.86
19.44
18.92
17.83
15.75
12.49
8.20
3.24
-1.93
-6.95
-11.65
-16.04
-20.35
-24.96
-30.34
-36.88
-44.55
-52.65
-59.78
-64.11
-63.99
-58.57
-48.21
-34.36
-19.07
-4.34
8.45
18.68
26.34
31.72
35.13
36.79
36.86
35.55
33.20
30.24
27.10
24.20
21.81
20.08
19.04
18.55
18.39
18.21
17.64
16.36
14.20
11.17
7.44
3.29
-0.99
-5.19
-9.21
-13.11
-17.11
-21.54
-26.72
-32.79
-39.39
-45.61
-49.98
-50.92
-47.32
-38.91
-26.60
-12.13
2.42
15.26
25.32
32.34
36.56
38.46
38.48
36.90
34.03
30.25
26.10
22.15
18.90
16.62
15.34
14.89
14.98
15.24
15.30
14.83
13.60
11.54
8.78
5.54
2.01
-1.71
-5.62
-9.81
-14.41
-19.52
-25.23
-31.50
-38.08
-44.33
-49.20
-51.39
-49.76
-43.75
-33.76
-21.08
-7.46
5.28
15.87
23.65
28.55
30.79
30.72
28.70
25.17
20.70
16.01
11.88
8.97
7.60
7.70
8.81
10.22
11.20
11.19
9.95
7.62
4.57
1.28
-1.89
-4.82
-7.65
-10.68
-14.26
-18.69
-24.13
-30.54
-37.55
-44.42
-50.02
-53.03
-52.27
-47.10
-37.76
-25.37
-11.61
1.77
13.39
22.49
28.86
32.65
34.13
33.61
31.43
28.08
24.14
20.25
16.91
14.45
12.98
12.37
12.38
12.65
12.78
12.41
11.30
9.38
6.73
3.55
0.03
-3.70
-7.61
-11.74
-16.15
-20.97
-26.38
-32.54
-39.40
-46.52
-52.90
-57.10
-57.68
-53.68
-45.08
-32.93
-19.00
-5.22
6.84
16.42
23.48
28.41
31.62
33.35
33.54
32.15
29.35
25.67
21.86
18.70
16.68
15.85
15.90
16.26
16.39
15.92
14.66
12.59
9.82
6.52
2.88
-0.94
-4.87
-8.93
-13.21
-17.86
-23.04
-28.86
-35.32
-42.16
-48.74
-53.97
-56.46
-54.97
-48.85
-38.42
-24.93
-10.24
3.75
15.64
24.74
31.00
34.78
36.53
36.62
35.41
33.30
30.68
28.01
25.61
23.69
22.28
21.29
20.61
20.09
19.61
18.99
18.03
16.46
14.09
10.84
6.83
2.33
-2.31
-6.78
-10.97
-14.92
-18.92
-23.35
-28.63
-35.00
-42.31
-49.91
-56.63
-60.91
-61.26
-56.79
-47.49
-34.37
-19.20
-3.92
9.89
21.29
29.95
35.95
39.44
40.60
39.71
37.27
34.08
31.04
28.85
27.79
27.63
27.84
27.87
27.40
26.43
25.13
23.75
22.37
20.90
19.07
16.55
13.06
8.55
3.22
-2.50
-8.12
-13.20
-17.56
-21.35
-24.95
-28.91
-33.73
-39.68
-46.62
-53.91
-60.41
-64.70
-65.36
-61.49
-52.96
-40.60
-25.94
-10.84
3.06
14.67
23.51
29.55
33.04
34.30
33.74
31.87
29.37
26.99
25.31
24.63
24.83
25.51
26.16
26.40
26.10
25.33
24.27
23.06
21.70
20.01
17.78
14.77
10.92
6.41
1.59
-3.04
-7.10
-10.41
-13.12
-15.62
-18.41
-21.90
-26.16
-30.90
-35.38
-38.57
-39.40
-37.00
-30.89
-21.19
-8.67
5.37
19.30
31.44
40.41
45.41
46.41
44.13
39.83
34.98
30.81
28.04
26.77
26.57
26.73
26.55
25.56
23.57
20.68
17.10
13.09
8.89
4.70
0.59
-3.44
-7.48
-11.67
-16.12
-20.82
-25.63
-30.29
-34.68
-38.87
-43.22
-48.23
-54.20
-60.86
-67.19
-71.52
-72.04
-67.45
-57.49
-43.15
-26.39
-9.45
5.70
17.87
26.69
32.36
35.35
36.18
35.26
33.00
29.85
26.29
22.81
19.82
17.60
16.23
15.60
15.44
15.35
14.92
13.88
12.07
9.50
6.28
2.54
-1.58
-5.93
-10.29
-14.40
-18.14
-21.60
-25.19
-29.51
-35.06
-41.83
-49.05
-55.28
-58.78
-58.03
-52.40
-42.30
-29.09
-14.61
-0.61
11.67
21.62
29.16
34.37
37.43
38.49
37.82
35.91
33.42
31.01
29.11
27.77
26.70
25.56
24.15
22.64
21.33
20.48
20.04
19.54
18.28
15.67
11.52
6.16
0.29
-5.34
-10.26
-14.49
-18.53
-23.11
-28.87
-36.07
-44.31
-52.55
-59.20
-62.58
-61.40
-55.15
-44.38
-30.50
-15.36
-0.78
11.93
22.07
29.49
34.33
36.87
37.43
36.46
34.44
31.94
29.43
27.19
25.33
23.85
22.68
21.82
21.27
20.96
20.79
20.59
20.12
19.16
17.48
14.91
11.36
6.95
1.97
-3.14
-7.96
-12.27
-16.22
-20.32
-25.31
-31.69
-39.45
-47.74
-55.00
-59.33
-59.13
-53.62
-43.20
-29.31
-13.97
0.76
13.35
22.99
29.56
33.40
35.06
35.06
33.84
31.74
29.12
26.36
23.85
21.94
20.80
20.38
20.42
20.60
20.54
20.03
18.94
17.26
15.00
12.14
8.68
4.64
0.15
-4.61
-9.41
-14.12
-18.79
-23.72
-29.23
-35.45
-41.98
-47.79
-51.41
-51.43
-46.97
-38.11
-25.88
-11.93
1.95
14.30
24.21
31.31
35.60
37.30
36.73
34.38
30.84
26.81
22.97
19.83
17.65
16.38
15.79
15.50
15.14
14.44
13.17
11.24
8.59
5.24
1.28
-3.13
-7.74
-12.33
-16.78
-21.15
-25.72
-30.93
-37.14
-44.34
-51.97
-58.74
-63.01
-63.16
-58.26
-48.40
-34.74
-19.19
-3.77
9.90
20.91
29.07
34.60
37.87
39.23
39.00
37.53
35.20
32.41
29.56
26.94
24.75
23.09
21.96
21.23
20.70
20.04
18.92
17.06
14.34
10.78
6.52
1.76
-3.28
-8.43
-13.49
-18.39
-23.21
-28.28
-34.08
-40.99
-48.91
-57.04
-63.79
-67.27
-65.87
-58.90
-46.95
-31.72
-15.45
-0.24
12.50
22.24
29.09
33.50
35.96
36.85
36.53
35.33
33.65
31.80
30.01
28.37
26.90
25.62
24.61
23.94
23.59
23.42
23.08
22.16
20.26
17.16
12.92
7.81
2.24
-3.36
-8.71
-13.73
-18.62
-23.75
-29.58
-36.36
-43.88
-51.29
-57.19
-59.94
-58.22
-51.47
-40.23
-25.90
-10.41
4.41
17.20
27.26
34.45
38.90
40.93
40.85
39.08
36.19
32.83
29.69
27.30
25.87
25.32
25.30
25.42
25.41
25.20
24.82
24.31
23.51
22.11
19.72
16.12
11.38
5.93
0.33
-4.85
-9.34
-13.22
-16.89
-20.90
-25.78
-31.80
-38.82
-46.16
-52.65
-56.85
-57.40
-53.46
-45.04
-33.05
-19.10
-4.99
7.74
18.13
25.85
30.97
33.75
34.50
33.53
31.28
28.33
25.34
22.88
21.31
20.60
20.52
20.71
20.87
20.87
20.62
20.10
19.23
17.89
15.93
13.32
10.14
6.59
2.91
-0.70
-4.15
-7.56
-11.19
-15.45
-20.72
-27.11
-34.32
-41.47
-47.23
-50.11
-48.93
-43.19
-33.35
-20.67
-6.94
6.10
17.13
25.49
31.09
34.21
35.24
34.56
32.58
29.74
26.60
23.72
21.54
20.26
19.83
19.98
20.39
20.76
20.95
20.85
20.38
19.36
17.58
14.87
11.12
6.46
1.19
-4.24
-9.32
-13.69
-17.20
-20.11
-23.00
-26.58
-31.48
-37.86
-45.22
-52.37
-57.71
-59.63
-57.00
-49.57
-38.06
-23.94
-9.12
4.62
16.04
24.58
30.36
33.91
35.84
36.57
36.33
35.15
33.19
30.74
28.24
26.17
24.81
24.17
24.05
24.06
23.92
23.49
22.80
21.94
20.94
19.67
17.83
15.08
11.20
6.24
0.59
-5.16
-10.40
-14.72
-18.09
-20.85
-23.60
-26.97
-31.50
-37.35
-44.21
-51.26
-57.25
-60.79
-60.64
-56.13
-47.40
-35.39
-21.60
-7.68
5.01
15.57
23.70
29.50
33.22
35.17
35.62
34.90
33.41
31.59
29.88
28.58
27.74
27.23
26.78
26.15
25.25
24.14
22.94
21.75
20.55
19.17
17.41
15.05
11.97
8.17
3.73
-1.13
-6.08
-10.78
-14.92
-18.43
-21.46
-24.47
-28.02
-32.63
-38.48
-45.26
-52.12
-57.75
-60.71
-59.78
-54.41
-44.88
-32.33
-18.38
-4.69
7.43
17.28
24.67
29.80
32.91
34.23
33.97
32.40
29.93
27.13
24.52
22.49
21.20
20.51
20.19
19.95
19.64
19.23
18.84
18.52
18.15
17.42
15.94
13.35
9.51
4.65
-0.71
-5.94
-10.50
-14.12
-16.93
-19.36
-22.02
-25.52
-30.28
-36.35
-43.30
-50.12
-55.38
-57.52
-55.41
-48.68
-37.97
-24.78
-11.00
1.65
12.00
19.63
24.68
27.58
28.74
28.50
27.13
24.94
22.32
19.67
17.30
15.38
13.92
12.87
12.19
11.89
11.96
12.29
12.66
12.69
11.98
10.20
7.26
3.31
-1.28
-6.01
-10.41
-14.21
-17.40
-20.29
-23.43
-27.42
-32.71
-39.37
-46.84
-53.97
-59.12
-60.64
-57.42
-49.33
-37.38
-23.31
-9.07
3.84
14.59
22.98
29.09
32.99
34.72
34.40
32.39
29.38
26.13
23.27
21.04
19.36
17.96
16.61
15.26
14.00
12.96
12.19
11.55
10.73
9.35
7.10
3.90
-0.08
-4.50
-8.91
-13.03
-16.77
-20.35
-24.22
-28.94
-35.00
-42.57
-51.33
-60.23
-67.67
-71.82
-71.15
-64.99
-53.84
-39.18
-23.08
-7.53
6.00
16.75
24.60
29.81
32.73
33.78
33.34
31.84
29.70
27.33
25.10
23.23
21.81
20.85
20.28
20.03
19.97
19.95
19.71
18.88
17.12
14.19
10.07
5.04
-0.44
-5.89
-10.99
-15.69
-20.27
-25.21
-31.03
-38.13
-46.54
-55.78
-64.75
-71.82
-75.23
-73.60
-66.44
-54.45
-39.34
-23.31
-8.38
4.17
13.87
20.94
25.78
28.71
29.83
29.23
27.19
24.24
21.13
18.57
16.96
16.41
16.70
17.47
18.37
19.04
19.16
18.47
16.72
13.84
9.93
5.25
0.20
-4.87
-9.73
-14.42
-19.23
-24.66
-31.26
-39.38
-48.84
-58.73
-67.46
-73.11
-73.98
-69.14
-58.76
-44.15
-27.28
-10.24
5.21
17.98
27.64
34.21
37.95
39.18
38.26
35.62
31.85
27.65
23.76
20.80
19.13
18.72
19.22
20.06
20.63
20.48
19.39
17.35
14.53
11.06
7.10
2.70
-2.06
-7.12
-12.48
-18.30
-24.81
-32.24
-40.46
-48.78
-55.84
-59.92
-59.42
-53.46
-42.29
-27.28
-10.49
5.94
20.36
31.90
40.43
46.22
49.61
50.86
50.13
47.67
43.98
39.79
35.94
33.11
31.55
31.07
31.14
31.11
30.44
28.88
26.46
23.34
19.77
15.89
11.77
7.40
2.73
-2.31
-7.82
-13.96
-21.01
-29.12
-38.12
-47.22
-54.94
-59.35
-58.73
-52.14
-39.98
-23.87
-6.17
10.77
25.37
36.95
45.66
51.95
56.24
58.77
59.62
59.01
57.33
55.15
53.07
51.59
51.02
51.50
53.04
55.55
58.74
62.08
64.85
66.30
65.87
63.32
58.82
52.76
45.52
37.36
28.30
18.23
7.05
-5.29
-18.75
-33.22
-48.35
-63.30
-76.57
-86.18
-90.22
-87.56
-78.48
-64.72
-48.97
-33.83
-21.06
-11.22
-3.88
1.70
6.06
9.28
11.23
11.87
11.50
10.70
10.06
9.99
10.58
11.66
12.98
14.29
15.38
16.08
16.22
15.62
14.18
11.88
8.79
5.06
0.89
-3.48
-7.83
-12.00
-16.05
-20.29
-25.23
-31.26
-38.27
-45.40
-51.06
-53.43
-51.06
-43.55
-31.70
-17.25
-2.27
11.53
23.13
32.26
39.02
43.64
46.26
47.00
46.04
43.80
40.87
37.86
35.28
33.38
32.22
31.62
31.29
30.89
30.09
28.66
26.52
23.73
20.42
16.73
12.77
8.57
4.17
-0.34
-4.92
-9.60
-14.58
-20.25
-26.88
-34.34
-41.90
-48.19
-51.56
-50.71
-45.07
-35.21
-22.52
-8.85
4.11
15.16
23.78
29.93
33.84
35.78
36.05
34.97
32.99
30.68
28.57
27.08
26.29
26.03
25.95
25.72
25.18
24.35
23.30
22.05
20.44
18.24
15.23
11.38
6.88
2.09
-2.66
-7.17
-11.39
-15.45
-19.61
-24.17
-29.36
-35.24
-41.41
-46.98
-50.68
-51.23
-47.83
-40.50
-30.10
-18.04
-5.80
5.53
15.33
23.40
29.69
34.14
36.64
37.19
36.05
33.82
31.28
29.15
27.87
27.41
27.38
27.15
26.30
24.73
22.71
20.70
19.03
17.74
16.48
14.74
12.08
8.32
3.66
-1.46
-6.46
-10.90
-14.53
-17.44
-19.97
-22.61
-25.90
-30.21
-35.59
-41.73
-47.84
-52.75
-55.21
-54.16
-49.12
-40.42
-29.16
-16.84
-4.91
5.61
14.28
21.15
26.39
30.14
32.43
33.32
33.08
32.18
31.22
30.70
30.90
31.81
33.28
35.13
37.25
39.48
41.66
43.49
44.66
44.84
43.78
41.39
37.70
32.82
26.96
20.40
13.51
6.69
0.29
-5.60
-11.12
-16.66
-22.66
-29.35
-36.63
-44.15
-51.40
-57.92
-63.28
-67.07
-68.70
-67.54
-63.16
-55.60
-45.62
-34.49
-23.62
-14.08
-6.43
-0.67
3.41
6.05
7.45
7.85
7.62
7.26
7.24
7.78
8.75
9.83
10.68
11.12
11.12
10.84
10.38
9.72
8.73
7.19
4.98
2.10
-1.28
-4.84
-8.24
-11.20
-13.61
-15.61
-17.58
-20.00
-23.34
-27.70
-32.75
-37.62
-41.12
-42.11
-39.84
-34.25
-25.97
-16.15
-6.02
3.34
11.21
17.25
21.41
23.80
24.61
24.08
22.52
20.29
17.74
15.19
12.83
10.77
9.01
7.61
6.60
6.06
5.96
6.16
6.34
6.11
5.11
3.20
0.45
-2.82
-6.20
-9.34
-12.08
-14.48
-16.82
-19.50
-22.94
-27.37
-32.64
-38.16
-42.93
-45.77
-45.68
-42.16
-35.37
-26.11
-15.55
-4.95
4.64
12.57
18.50
22.40
24.40
24.73
23.67
21.59
18.92
16.09
13.48
11.33
9.68
8.38
7.25
6.16
5.14
4.28
3.63
3.07
2.32
1.01
-1.07
-3.89
-7.17
-10.49
-13.50
-16.05
-18.28
-20.62
-23.58
-27.67
-33.13
-39.72
-46.64
-52.60
-56.09
-55.86
-51.34
-42.84
-31.49
-18.86
-6.58
4.14
12.66
18.88
23.11
25.79
27.31
27.88
27.55
26.29
24.16
21.35
18.23
15.27
12.83
11.11
10.05
9.47
9.16
8.88
8.43
7.58
6.13
3.90
0.88
-2.79
-6.79
-10.76
-14.39
-17.65
-20.71
-24.02
-28.12
-33.37
-39.80
-46.79
-53.13
-57.27
-57.78
-53.85
-45.52
-33.76
-20.12
-6.30
6.27
16.61
24.29
29.30
31.92
32.56
31.69
29.84
27.43
24.84
22.33
20.07
18.14
16.56
15.34
14.42
13.80
13.38
13.02
12.45
11.35
9.46
6.62
2.93
-1.29
-5.57
-9.52
-12.93
-15.96
-19.00
-22.58
-27.14
-32.78
-39.07
-45.10
-49.57
-51.18
-48.97
-42.68
-32.87
-20.80
-8.09
3.68
13.33
20.25
24.40
26.11
25.88
24.23
21.58
18.29
14.72
11.29
8.44
6.58
5.85
6.08
6.85
7.59
7.85
7.37
6.17
4.37
2.11
-0.55
-3.59
-6.97
-10.62
-14.40
-18.26
-22.38
-27.14
-33.00
-40.12
-48.00
-55.35
-60.30
-60.98
-56.22
-46.04
-31.80
-15.70
-0.07
13.37
23.80
31.25
36.20
39.10
40.23
39.67
37.51
34.04
29.80
25.52
21.86
19.25
17.78
17.19
16.96
16.52
15.39
13.36
10.48
7.00
3.25
-0.56
-4.38
-8.36
-12.79
-18.01
-24.38
-32.08
-40.94
-50.25
-58.63
-64.30
-65.52
-61.21
-51.41
-37.33
-20.97
-4.54
10.24
22.41
31.76
38.52
43.01
45.38
45.70
44.10
40.91
36.85
32.71
29.22
26.74
25.18
24.16
23.16
21.81
19.96
17.62
14.93
11.96
8.72
5.19
1.34
-2.86
-7.48
-12.66
-18.66
-25.77
-34.15
-43.48
-52.82
-60.54
-64.73
-63.70
-56.69
-44.19
-27.90
-10.22
6.49
20.53
31.13
38.34
42.64
44.60
44.65
43.08
40.17
36.34
32.16
28.29
25.29
23.43
22.63
22.51
22.52
22.16
21.09
19.16
16.39
12.87
8.74
4.20
-0.60
-5.48
-10.39
-15.43
-20.97
-27.45
-35.10
-43.65
-52.03
-58.49
-61.01
-58.08
-49.32
-35.70
-19.33
-2.72
12.00
23.62
31.92
37.31
40.27
41.13
39.92
36.72
31.92
26.38
21.19
17.38
15.53
15.52
16.67
18.02
18.68
