1703087442.00
64.000000
-0.00
-0.00
-0.00
-0.00
-0.00
-0.00
-0.00
-0.00
-0.00
-0.00
0.00
0.01
0.01
-0.00
-0.03
-0.05
-0.05
0.00
0.13
0.36
0.66
1.01
1.37
1.72
2.06
2.40
2.79
3.24
3.80
4.42
5.06
5.66
6.20
6.68
7.15
7.68
8.31
9.14
10.09
11.04
11.88
12.56
13.14
13.76
14.65
15.96
17.91
20.32
22.90
25.38
27.58
29.57
31.68
34.32
37.81
42.54
48.15
54.10
59.83
64.97
69.58
74.14
79.34
85.71
93.76
103.00
112.62
121.73
129.77
136.75
143.30
150.75
157.77
166.64
177.95
191.79
206.97
220.57
228.25
225.36
208.53
176.87
132.76
80.05
23.07
-34.94
-92.44
-149.16
-205.23
-260.37
-313.74
-363.87
-409.83
-450.91
-486.50
-515.74
-537.23
-549.22
-549.96
-538.37
-514.21
-478.67
-433.88
-382.45
-327.02
-269.84
-212.63
-156.66
-102.95
-52.37
-5.90
35.58
71.43
101.35
125.50
144.38
158.69
169.15
176.37
180.75
182.57
182.07
179.51
175.23
169.65
163.18
156.15
148.81
141.30
133.69
126.02
118.33
110.69
103.16
95.80
88.68
81.83
75.25
68.95
62.95
57.25
51.86
46.78
42.03
37.59
33.45
29.61
26.07
22.81
19.83
17.11
14.67
12.48
10.54
8.83
7.35
6.07
4.97
4.05
3.27
2.62
2.09
1.65
1.30
1.01
0.79
0.61
0.47
0.37
0.29
0.23
0.19
0.16
0.15
0.14
0.15
0.17
0.19
0.21
0.25
0.29
0.33
0.37
0.41
0.46
0.51
0.56
0.61
0.66
0.71
0.77
0.84
0.92
1.01
1.12
1.22
1.31
1.37
1.40
1.43
1.49
1.60
1.79
2.03
2.30
2.57
2.83
3.07
3.32
3.62
4.01
4.49
5.05
5.64
6.19
6.68
7.10
7.52
8.03
8.70
9.58
10.58
11.60
12.49
13.14
13.56
13.92
14.40
15.22
16.40
17.75
18.87
19.32
18.75
17.05
14.42
11.24
7.89
4.57
1.07
-2.95
-7.90
-13.96
-20.90
-28.03
-34.47
-39.50
-42.78
-44.54
-45.38
-46.02
-47.06
-48.95
-51.90
-55.80
-59.93
-62.72
-62.11
-56.18
-44.24
-27.48
-8.79
8.25
20.85
27.97
30.46
30.22
28.98
27.59
25.93
23.58
20.46
17.13
14.50
13.22
13.34
14.17
14.70
14.03
11.84
8.49
4.84
1.86
0.19
-0.05
0.68
1.53
1.65
0.58
-1.70
-4.68
-7.67
-10.07
-11.55
-12.22
-12.50
-12.97
-14.10
-16.18
-19.24
-23.04
-27.11
-30.85
-33.20
-33.20
-30.20
-24.12
-15.52
-5.47
4.79
14.18
21.98
27.88
31.83
33.97
34.57
34.05
32.92
31.69
30.76
30.31
30.31
30.58
30.85
30.93
30.71
30.20
29.49
28.72
27.98
27.27
26.43
25.29
23.69
21.59
18.99
15.95
12.46
8.58
4.48
0.47
-3.00
-5.62
-7.37
-8.64
-10.07
-12.20
-15.27
-19.03
-22.91
-26.32
-28.93
-30.76
-32.18
-33.74
-35.93
-39.21
-43.81
-49.67
-56.27
-62.58
-67.12
-68.36
-65.21
-57.48
-46.05
-32.54
-18.85
-6.47
3.79
11.80
17.89
22.44
25.75
28.00
29.40
30.19
30.70
31.21
31.89
32.76
33.72
34.63
35.34
35.77
35.85
35.60
35.04
34.18
33.06
31.64
29.88
27.74
25.22
22.38
19.32
16.15
12.98
9.90
6.97
4.25
1.77
-0.49
-2.58
-4.57
-6.61
-8.85
-11.41
-14.33
-17.53
-20.80
-23.93
-26.81
-29.54
-32.47
-36.03
-40.62
-46.38
-52.96
-59.55
-64.93
-67.77
-66.99
-62.09
-53.42
-42.12
-29.81
-18.04
-7.91
0.22
6.59
11.73
16.10
19.94
23.22
25.87
27.90
29.50
30.88
32.18
33.42
34.44
35.10
35.35
35.30
35.15
35.11
35.28
35.56
35.64
35.13
33.77
31.49
28.50
25.20
21.98
19.11
16.58
14.22
11.79
9.18
6.36
3.42
0.40
-2.70
-5.89
-9.15
-12.35
-15.37
-18.11
-20.68
-23.32
-26.41
-30.28
-35.09
-40.71
-46.64
-51.99
-55.67
-56.59
-54.01
-47.77
-38.42
-27.03
-14.98
-3.54
6.39
14.38
20.47
25.00
28.46
31.33
34.05
36.87
39.96
43.26
46.63
49.75
52.19
53.49
53.31
51.52
48.34
44.26
39.89
35.67
31.80
28.24
24.83
21.52
18.42
15.69
13.45
11.58
9.79
7.73
5.19
2.22
-0.88
-3.80
-6.38
-8.71
-11.12
-13.90
-17.18
-20.82
-24.53
-27.98
-31.02
-33.71
-36.21
-38.79
-41.67
-45.09
-49.30
-54.40
-60.20
-66.02
-70.60
-72.47
-70.35
-63.72
-53.06
-39.80
-25.83
-12.97
-2.46
5.30
10.61
14.24
17.08
19.79
22.68
25.69
28.52
30.81
32.38
33.25
33.63
33.82
34.02
34.36
34.83
35.42
36.01
36.54
36.83
36.70
35.95
34.47
32.29
29.58
26.66
23.81
21.23
18.90
16.68
14.34
11.75
8.92
5.94
2.95
0.01
-2.95
-6.03
-9.35
-12.87
-16.48
-20.00
-23.30
-26.38
-29.44
-32.83
-36.98
-42.22
-48.51
-55.26
-61.28
-65.07
-65.24
-61.07
-52.84
-41.74
-29.50
-17.78
-7.70
0.34
6.53
11.35
15.22
18.42
21.03
23.07
24.59
25.71
26.59
27.36
28.12
28.86
29.57
30.21
30.73
31.13
31.36
31.41
31.24
30.85
30.19
29.23
27.88
26.07
23.74
20.93
17.79
14.56
11.52
8.85
6.62
4.72
2.88
0.80
-1.81
-5.08
-8.94
-13.11
-17.20
-20.84
-23.87
-26.44
-28.99
-32.13
-36.39
-41.98
-48.52
-55.06
-60.23
-62.55
-60.98
-55.23
-45.90
-34.33
-22.16
-10.86
-1.38
5.96
11.36
15.26
18.16
20.45
22.41
24.21
25.93
27.51
28.85
29.85
30.44
30.70
30.82
31.00
31.38
31.91
32.47
32.80
32.67
31.98
30.67
28.82
26.52
23.90
21.09
18.22
15.43
12.83
10.46
8.35
6.48
4.82
3.30
1.79
0.15
-1.87
-4.42
-7.53
-11.08
-14.78
-18.36
-21.61
-24.54
-27.36
-30.45
-34.23
-39.02
-44.86
-51.36
-57.65
-62.51
-64.62
-63.02
-57.45
-48.46
-37.32
-25.55
-14.51
-5.09
2.43
8.18
12.59
16.07
18.98
21.54
23.83
25.80
27.40
28.63
29.53
30.25
30.86
31.37
31.67
31.65
31.25
30.60
29.89
29.34
29.00
28.65
27.96
26.61
24.42
21.52
18.23
14.97
12.09
9.75
7.88
6.27
4.59
2.62
0.20
-2.63
-5.70
-8.74
-11.55
-14.01
-16.14
-18.09
-20.05
-22.19
-24.71
-27.79
-31.64
-36.31
-41.59
-46.77
-50.73
-52.21
-50.26
-44.66
-36.08
-25.82
-15.40
-6.02
1.73
7.84
12.60
16.32
19.16
21.13
22.27
22.78
22.99
23.29
23.92
24.92
26.10
27.20
27.99
28.39
28.45
28.31
28.09
27.81
27.37
26.68
25.62
24.21
22.50
20.56
18.45
16.15
13.63
10.89
8.04
5.29
2.82
0.75
-1.01
-2.66
-4.47
-6.60
-9.08
-11.77
-14.50
-17.14
-19.67
-22.15
-24.66
-27.32
-30.25
-33.66
-37.76
-42.66
-48.15
-53.61
-58.00
-60.10
-58.90
-53.95
-45.62
-34.98
-23.57
-12.83
-3.77
3.22
8.35
12.12
15.06
17.51
19.63
21.43
22.95
24.21
25.27
26.13
26.71
26.97
26.90
26.61
26.30
26.13
26.13
26.24
26.24
25.92
25.10
23.77
22.01
20.00
17.96
16.05
14.32
12.72
11.14
9.45
7.59
5.55
3.37
1.08
-1.32
-3.85
-6.55
-9.40
-12.33
-15.19
-17.88
-20.34
-22.60
-24.84
-27.33
-30.41
-34.32
-39.08
-44.26
-48.94
-51.91
-51.97
-48.43
-41.39
-31.79
-21.12
-10.87
-2.09
4.84
10.13
14.26
17.64
20.39
22.50
23.91
24.78
25.42
26.16
27.17
28.35
29.37
29.90
29.78
29.10
28.19
27.35
26.80
26.45
26.04
25.18
23.59
21.14
17.97
14.40
10.88
7.84
5.49
3.75
2.29
0.69
-1.38
-4.00
-7.04
-10.19
-13.18
-15.89
-18.33
-20.63
-22.97
-25.53
-28.49
-32.05
-36.40
-41.53
-47.15
-52.54
-56.65
-58.32
-56.71
-51.57
-43.50
-33.68
-23.53
-14.26
-6.52
-0.41
4.36
8.17
11.30
13.90
16.05
17.84
19.43
20.92
22.37
23.76
25.01
26.06
26.93
27.65
28.33
29.02
29.70
30.24
30.44
30.09
29.05
27.40
25.36
23.22
21.17
19.23
17.30
15.26
13.07
10.85
8.73
6.81
5.01
3.16
1.04
-1.49
-4.47
-7.76
-11.15
-14.37
-17.20
-19.59
-21.71
-24.01
-27.04
-31.21
-36.55
-42.51
-48.08
-52.02
-53.21
-51.02
-45.47
-37.19
-27.26
-16.86
-7.06
1.39
8.13
13.15
16.74
19.35
21.42
23.29
25.13
26.91
28.50
29.74
30.50
30.79
30.71
30.41
29.98
29.45
28.80
27.99
27.01
25.89
24.64
23.30
21.85
20.24
18.43
16.40
14.18
11.80
9.31
6.78
4.29
1.94
-0.23
-2.23
-4.16
-6.16
-8.36
-10.81
-13.39
-15.95
-18.28
-20.30
-22.09
-23.89
-26.06
-28.93
-32.76
-37.55
-42.98
-48.30
-52.45
-54.28
-52.84
-47.80
-39.51
-29.06
-17.92
-7.54
1.05
7.49
11.99
15.11
17.43
19.30
20.85
21.99
22.69
22.99
23.03
23.00
23.01
23.08
23.17
23.20
23.15
23.02
22.81
22.44
21.78
20.65
18.94
16.65
13.92
11.00
8.10
5.36
2.74
0.08
-2.76
-5.81
-8.90
-11.77
-14.21
-16.24
-18.15
-20.40
-23.46
-27.53
-32.47
-37.73
-42.42
-45.47
-45.95
-43.29
-37.51
-29.28
-19.76
-10.22
-1.66
5.38
10.90
15.21
18.63
21.34
23.34
24.63
25.29
25.54
25.70
26.00
26.53
27.23
27.96
28.55
28.90
28.92
28.58
27.85
26.72
25.24
23.53
21.73
19.97
18.29
16.63
14.82
12.65
10.01
6.91
3.57
0.31
-2.58
-4.94
-6.92
-8.85
-11.18
-14.21
-17.97
-22.20
-26.50
-30.52
-34.22
-37.82
-41.76
-46.51
-52.42
-59.64
-68.03
-77.09
-85.89
-93.18
-97.61
-98.19
-94.72
-87.90
-79.20
-70.31
-62.65
-56.99
-53.55
-52.17
-52.57
-54.49
-57.55
-61.17
-64.44
-66.23
-65.32
-60.67
-51.61
-38.11
-20.79
-0.89
20.04
40.39
58.98
75.14
88.76
100.02
109.11
116.17
121.18
124.16
125.22
124.67
122.82
120.07
116.61
112.50
107.59
101.65
94.50
86.10
76.67
66.65
56.53
46.75
37.52
28.90
20.80
13.20
6.11
-0.39
-6.29
-11.70
-16.91
-22.30
-28.20
-34.70
-41.50
-47.85
-52.68
-54.85
-53.49
-48.40
-40.08
-29.65
-18.51
-7.86
1.47
9.13
15.08
19.46
22.41
24.17
25.03
25.38
25.62
26.09
26.94
28.13
29.43
30.56
31.22
31.26
30.70
29.78
28.77
27.90
27.14
26.27
24.93
22.83
19.95
16.53
12.99
9.65
6.61
3.69
0.56
-3.07
-7.28
-11.90
-16.56
-20.85
-24.50
-27.48
-29.96
-32.24
-34.65
-37.47
-40.87
-44.91
-49.52
-54.33
-58.70
-61.70
-62.39
-60.07
-54.60
-46.46
-36.61
-26.17
-16.07
-6.89
1.14
7.98
13.70
18.28
21.71
24.02
25.35
25.95
26.15
26.23
26.42
26.82
27.37
27.94
28.41
28.64
28.60
28.30
27.74
26.94
25.88
24.56
22.96
21.10
19.01
16.70
14.24
11.72
9.26
6.96
4.85
2.82
0.65
-1.90
-4.95
-8.43
-12.09
-15.61
-18.79
-21.58
-24.17
-26.81
-29.78
-33.28
-37.43
-42.20
-47.31
-52.16
-55.83
-57.26
-55.62
-50.63
-42.73
-32.97
-22.64
-12.88
-4.36
2.72
8.44
13.01
16.53
19.03
20.54
21.21
21.36
21.36
21.58
22.18
23.11
24.09
24.79
24.98
24.60
23.81
22.85
21.89
20.93
19.85
18.47
16.70
14.55
12.12
9.53
6.79
3.89
0.78
-2.50
-5.85
-9.09
-12.05
-14.70
-17.12
-19.51
-22.16
-25.28
-28.92
-32.91
-36.72
-39.64
-40.87
-39.78
-36.12
-30.12
-22.38
-13.73
-5.04
2.99
9.89
15.44
19.63
22.64
24.71
26.13
27.15
27.96
28.64
29.27
29.89
30.56
31.31
32.12
32.90
33.55
34.02
34.28
34.35
34.27
34.02
33.50
32.63
31.35
29.64
27.57
25.19
22.54
19.69
16.68
13.62
10.61
7.73
4.93
2.13
-0.77
-3.80
-6.91
-10.04
-13.16
-16.39
-19.88
-23.84
-28.46
-33.80
-39.80
-46.15
-52.27
-57.30
-60.29
-60.36
-57.09
-50.65
-41.78
-31.59
-21.18
-11.40
-2.70
4.79
11.15
16.46
20.71
23.82
25.69
26.40
26.17
25.39
24.45
23.66
23.15
22.88
22.73
22.54
22.22
21.73
21.10
20.40
19.67
18.89
17.92
16.58
14.72
12.37
9.73
7.16
4.95
3.17
1.66
0.12
-1.73
-3.99
-6.58
-9.33
-12.13
-14.94
-17.81
-20.79
-23.94
-27.27
-30.76
-34.40
-38.14
-41.97
-45.93
-50.08
-54.45
-58.88
-62.80
-65.39
-65.68
-62.99
-57.20
-48.85
-38.92
-28.49
-18.39
-9.07
-0.66
6.84
13.32
18.61
22.55
25.13
26.61
27.42
28.01
28.67
29.46
30.26
30.89
31.24
31.32
31.25
31.13
30.95
30.52
29.53
27.66
24.79
21.07
16.96
13.05
9.81
7.40
5.60
3.92
1.80
-1.06
-4.64
-8.61
-12.51
-15.94
-18.74
-20.96
-22.87
-24.85
-27.33
-30.70
-35.17
-40.59
-46.36
-51.49
-54.78
-55.19
-52.18
-45.92
-37.19
-27.12
-16.80
-7.02
1.84
9.68
16.50
22.25
26.80
30.04
31.99
32.86
33.02
32.85
32.64
32.46
32.24
31.86
31.28
30.56
29.83
29.16
28.51
27.71
26.57
25.01
23.05
20.80
18.32
15.61
12.63
9.42
6.15
3.10
0.48
-1.71
-3.69
-5.84
-8.48
-11.72
-15.39
-19.20
-22.81
-26.01
-28.81
-31.32
-33.83
-36.63
-40.01
-44.18
-49.10
-54.45
-59.52
-63.29
-64.69
-62.86
-57.54
-49.12
-38.58
-27.15
-15.98
-5.77
3.19
10.93
17.56
23.05
27.25
30.05
31.48
31.88
31.76
31.58
31.64
31.90
32.10
31.89
31.06
29.63
27.89
26.24
25.04
24.34
23.93
23.39
22.29
20.45
17.94
15.11
12.37
9.92
7.69
5.34
2.56
-0.82
-4.61
-8.42
-11.85
-14.70
-17.11
-19.45
-22.13
-25.47
-29.54
-34.24
-39.34
-44.42
-48.84
-51.75
-52.23
-49.55
-43.51
-34.64
-24.10
-13.32
-3.54
4.59
11.06
16.26
20.65
24.45
27.56
29.75
30.90
31.16
30.91
30.58
30.39
30.31
30.11
29.61
28.76
27.71
26.69
25.81
25.02
24.05
22.63
20.58
17.93
14.88
11.71
8.61
5.68
2.91
0.20
-2.54
-5.38
-8.34
-11.42
-14.52
-17.51
-20.24
-22.55
-24.42
-25.99
-27.58
-29.51
-32.07
-35.33
-39.28
-43.78
-48.66
-53.65
-58.26
-61.77
-63.26
-61.87
-57.11
-49.05
-38.41
-26.32
-14.09
-2.78
6.92
14.76
20.81
25.27
28.45
30.64
32.15
33.27
34.26
35.24
36.22
37.10
37.71
37.96
37.85
37.42
36.75
35.87
34.77
33.42
31.79
29.81
27.38
24.42
20.91
17.03
13.11
9.55
6.63
4.35
2.45
0.51
-1.81
-4.63
-7.79
-11.02
-14.09
-16.92
-19.64
-22.41
-25.38
-28.64
-32.28
-36.42
-41.13
-46.29
-51.42
-55.66
-57.91
-57.17
-52.96
-45.44
-35.50
-24.35
-13.26
-3.12
5.60
12.79
18.54
22.99
26.19
28.26
29.38
29.87
30.12
30.41
30.86
31.35
31.62
31.46
30.85
29.97
29.12
28.55
28.32
28.25
27.99
27.16
25.49
22.93
19.68
16.04
12.38
8.90
5.64
2.49
-0.74
-4.18
-7.83
-11.58
-15.19
-18.48
-21.34
-23.85
-26.21
-28.76
-31.87
-35.85
-40.79
-46.46
-52.16
-56.84
-59.29
-58.48
-53.94
-45.99
-35.61
-24.21
-13.14
-3.32
4.91
11.67
17.26
21.95
25.78
28.70
30.66
31.80
32.42
32.88
33.36
33.89
34.34
34.53
34.47
34.27
34.13
34.23
34.54
34.91
35.05
34.67
33.54
31.54
28.70
25.22
21.42
17.69
14.32
11.41
8.80
6.18
3.25
-0.16
-3.98
-7.99
-11.90
-15.52
-18.78
-21.78
-24.73
-27.91
-31.65
-36.31
-42.13
-49.10
-56.74
-64.05
-69.66
-72.21
-70.81
-65.28
-56.29
-45.03
-32.88
-21.01
-10.21
-0.84
7.01
13.43
18.56
22.54
25.54
27.73
29.24
30.24
30.85
31.19
31.37
31.47
31.56
31.70
31.88
32.09
32.17
31.96
31.26
29.95
28.02
25.54
22.64
19.46
16.08
12.55
8.89
5.14
1.36
-2.40
-6.05
-9.53
-12.79
-15.84
-18.79
-21.86
-25.37
-29.69
-35.03
-41.30
-47.89
-53.73
-57.52
-58.16
-55.11
-48.65
-39.71
-29.52
-19.18
-9.38
-0.40
7.72
14.95
21.14
26.08
29.59
31.76
32.89
33.39
33.69
34.07
34.65
35.46
36.46
37.58
38.67
39.52
39.87
39.51
38.35
36.49
34.09
31.33
28.26
24.85
21.03
16.89
12.62
8.52
4.83
1.60
-1.34
-4.27
-7.49
-11.11
-15.07
-19.14
-23.09
-26.74
-30.03
-33.06
-36.02
-39.17
-42.80
-47.18
-52.50
-58.68
-65.27
-71.34
-75.57
-76.60
-73.46
-65.98
-54.91
-41.72
-28.09
-15.39
-4.34
4.97
12.82
19.52
25.17
29.70
33.03
35.24
36.66
37.72
38.85
40.20
41.64
42.79
43.25
42.78
41.46
39.68
37.98
36.78
36.16
35.83
35.26
33.93
31.55
28.21
24.27
20.23
16.54
13.39
10.73
8.33
5.88
3.07
-0.22
-3.99
-8.01
-12.01
-15.74
-19.10
-22.17
-25.18
-28.41
-32.09
-36.39
-41.41
-47.09
-53.11
-58.81
-63.17
-65.05
-63.54
-58.31
-49.83
-39.16
-27.65
-16.48
-6.40
2.33
9.76
16.00
21.08
24.96
27.60
29.15
29.96
30.48
31.09
31.96
32.99
33.90
34.41
34.36
33.79
32.90
31.84
30.66
29.24
27.38
24.92
21.83
18.29
14.64
11.19
8.09
5.26
2.40
-0.86
-4.72
-9.08
-13.55
-17.70
-21.20
-24.00
-26.37
-28.70
-31.40
-34.76
-38.89
-43.66
-48.68
-53.16
-56.01
-56.08
-52.51
-45.18
-34.84
-22.92
-11.10
-0.74
7.47
13.60
18.21
22.01
25.50
28.83
31.88
34.42
36.32
37.61
38.45
38.98
39.32
39.50
39.50
39.34
39.09
38.85
38.70
38.60
38.41
37.91
36.86
35.10
32.58
29.40
25.78
21.96
18.18
14.56
11.13
7.85
4.67
1.54
-1.60
-4.83
-8.19
-11.73
-15.43
-19.24
-23.10
-26.95
-30.80
-34.74
-39.00
-43.82
-49.43
-55.82
-62.57
-68.80
-73.21
-74.50
-71.75
-64.79
-54.30
-41.60
-28.21
-15.44
-4.16
5.26
12.82
18.69
23.12
26.37
28.71
30.42
31.72
32.71
33.37
33.70
33.73
33.65
33.71
34.06
34.65
35.20
35.31
34.62
33.02
30.62
27.74
24.70
21.72
18.86
16.00
13.01
9.71
6.09
2.17
-1.88
-5.87
-9.63
-13.08
-16.23
-19.17
-22.12
-25.35
-29.19
-33.79
-38.96
-44.02
-47.81
-49.05
-46.70
-40.45
-30.81
-19.03
-6.58
5.23
15.64
24.45
31.80
37.94
43.00
46.97
49.80
51.54
52.33
52.47
52.24
51.86
51.41
50.89
50.22
49.35
48.35
47.28
46.24
45.29
44.29
43.08
41.42
39.13
36.19
32.72
28.91
24.99
21.06
17.14
13.27
9.42
5.62
1.86
-1.99
-6.13
-10.71
-15.75
-21.00
-26.07
-30.56
-34.28
-37.36
-40.21
-43.33
-47.20
-52.09
-58.05
-64.94
-72.33
-79.49
-85.33
-88.57
-88.05
-83.11
-73.89
-61.32
-46.83
-31.92
-17.66
-4.61
7.07
17.41
26.27
33.44
38.68
42.00
43.77
44.63
45.16
45.75
46.40
46.91
47.02
46.65
45.96
45.19
44.46
43.69
42.59
40.85
38.28
34.90
30.96
26.80
22.71
18.86
15.32
12.07
9.06
6.23
3.45
0.59
-2.51
-5.98
-9.89
-14.17
-18.63
-23.03
-27.13
-30.79
-34.01
-36.93
-39.77
-42.79
-46.24
-50.34
-55.23
-60.90
-67.02
-72.86
-77.26
-78.91
-76.74
-70.36
-60.25
-47.65
-34.16
-21.16
-9.44
0.81
9.80
17.77
24.72
30.39
34.56
37.16
38.51
39.13
39.57
40.10
40.67
40.99
40.81
40.12
39.25
38.61
38.50
38.79
38.95
38.29
36.28
32.80
28.26
23.31
18.61
14.57
11.24
8.38
5.57
2.46
-1.18
-5.38
-9.95
-14.59
-18.92
-22.70
-25.84
-28.47
-30.91
-33.54
-36.72
-40.68
-45.40
-50.48
-55.11
-58.14
-58.34
-54.73
-46.97
-35.47
-21.36
-6.09
8.90
22.57
34.44
44.51
53.07
60.44
66.84
72.43
77.45
82.20
86.98
91.92
96.83
101.20
104.43
106.13
106.32
105.37
103.73
101.58
98.59
93.97
86.79
76.38
62.74
46.64
29.60
13.37
-0.74
-12.50
-23.01
-34.19
-47.82
-64.43
-82.86
-100.65
-115.35
-125.74
-132.34
-136.87
-140.91
-144.75
-147.15
-146.14
-140.28
-129.41
-114.57
-97.15
-78.04
-57.61
-36.13
-14.56
5.32
21.51
32.73
39.06
41.70
42.05
40.79
37.53
31.32
21.64
9.03
-4.83
-17.90
-28.60
-36.39
-41.68
-45.32
-47.96
-49.81
-50.66
-50.24
-48.45
-45.45
-41.44
-36.52
-30.49
-23.09
-14.16
-3.82
7.45
19.05
30.37
40.81
49.56
55.51
57.29
53.72
44.44
30.27
13.10
-4.71
-21.17
-35.14
-46.34
-54.84
-60.55
-63.12
-62.18
-57.88
-51.03
-42.74
-33.76
-23.92
-12.23
2.35
20.03
39.78
59.70
78.07
94.24
108.85
123.14
137.98
152.94
166.32
175.78
179.34
176.06
166.19
150.71
130.92
108.05
83.24
57.67
32.60
9.27
-11.31
-28.69
-42.96
-54.65
-64.45
-72.88
-80.15
-86.06
-90.24
-92.31
-92.11
-89.84
-86.09
-81.65
-77.42
-74.13
-72.20
-71.61
-71.93
-72.50
-72.62
-71.88
-70.29
-68.19
-66.09
-64.41
-63.29
-62.71
-62.53
-62.70
-63.24
-64.14
-65.25
-66.24
-66.72
-66.37
-64.97
-62.40
-58.40
-52.64
-44.76
-34.72
-22.99
-10.62
1.12
11.16
19.00
24.81
29.18
32.77
36.03
39.11
41.99
44.65
47.07
49.23
50.97
51.98
51.97
50.80
48.63
45.84
42.89
40.07
37.40
34.72
31.77
28.42
24.65
20.53
16.17
11.65
7.02
2.37
-2.23
-6.71
-10.98
-14.99
-18.63
-21.81
-24.48
-26.77
-28.97
-31.59
-35.13
-39.90
-45.86
-52.49
-58.87
-63.84
-66.34
-65.74
-61.97
-55.57
-47.42
-38.41
-29.10
-19.57
-9.61
0.94
11.84
22.39
31.62
38.67
43.18
45.41
46.06
46.01
45.91
46.06
46.44
46.84
47.04
46.89
46.37
45.47
44.25
42.80
41.24
39.62
37.89
35.92
33.58
30.79
27.66
24.39
21.20
18.17
15.20
12.06
8.53
4.54
0.16
-4.44
-9.09
-13.70
-18.31
-22.98
-27.77
-32.67
-37.67
-42.78
-48.08
-53.65
-59.38
-64.86
-69.26
-71.54
-70.70
-66.17
-58.08
-47.19
-34.67
-21.68
-9.14
2.47
12.88
21.89
29.30
34.88
38.64
40.85
42.11
43.08
44.32
46.06
48.13
50.14
51.59
52.16
51.82
50.82
49.58
48.46
47.55
46.61
45.15
42.61
38.72
33.63
27.88
22.22
17.23
13.09
9.55
6.15
2.44
-1.82
-6.57
-11.63
-16.80
-22.02
-27.34
-32.91
-38.86
-45.24
-51.96
-58.75
-65.11
-70.32
-73.47
-73.73
-70.50
-63.69
-53.77
-41.69
-28.60
-15.61
-3.45
7.50
17.18
25.60
32.69
38.22
41.98
43.91
44.36
43.97
43.56
43.78
44.86
46.53
48.15
49.05
48.79
47.38
45.22
42.89
40.85
39.18
37.63
35.63
32.73
28.70
23.73
18.34
13.14
8.74
5.59
3.94
3.76
4.69
5.99
6.76
6.18
3.86
-0.06
-4.97
-10.21
-15.42
-20.78
-26.88
-34.20
-42.67
-51.42
-58.93
-63.45
-63.67
-59.04
-49.84
-37.06
-21.98
-5.92
10.05
25.12
38.80
50.73
60.45
67.23
69.98
67.51
59.01
44.55
25.25
3.14
-19.50
-40.71
-59.14
-73.93
-84.18
-88.71
-86.04
-75.08
-55.86
-29.99
-0.52
28.86
54.84
75.28
89.43
97.71
101.19
101.07
98.62
95.01
91.37
88.46
86.42
84.50
81.26
75.09
64.83
50.28
32.17
11.84
-9.14
-29.33
-47.49
-62.57
-73.77
-80.75
-83.75
-83.70
-81.97
-79.93
-78.50
-77.75
-76.93
-74.68
-69.59
-60.74
-48.12
-32.76
-16.44
-1.19
11.44
20.86
27.54
32.73
37.84
43.89
51.07
58.72
65.49
69.62
69.46
63.90
52.82
37.21
18.89
-0.06
-17.97
-33.98
-47.95
-60.03
-70.18
-77.96
-82.76
-84.14
-82.22
-77.66
-71.47
-64.56
-57.50
-50.45
-43.29
-35.80
-27.85
-19.38
-10.36
-0.64
10.20
22.86
38.02
56.16
77.10
99.97
123.21
144.87
162.87
175.30
180.76
178.56
169.00
153.30
133.38
111.30
88.71
66.46
44.62
22.84
0.86
-21.15
-42.50
-62.28
-79.53
-93.51
-103.70
-109.90
-112.25
-111.25
-107.68
-102.41
-96.17
-89.40
-82.26
-74.85
-67.47
-60.60
-54.82
-50.44
-47.35
-45.01
-42.81
-40.40
-37.90
-35.81
-34.70
-34.85
-36.10
-37.93
-39.70
-40.91
-41.41
-41.39
-41.27
-41.58
-42.77
-45.20
-49.02
-54.09
-59.91
-65.60
-69.95
-71.72
-69.96
-64.36
-55.41
-44.15
-31.79
-19.28
-7.00
5.01
16.81
28.14
38.44
46.98
53.25
57.26
59.49
60.68
61.44
62.06
62.49
62.49
61.89
60.68
59.02
57.11
55.12
53.06
50.87
48.41
45.61
42.39
38.72
34.58
29.95
24.89
19.64
14.58
10.21
6.92
4.74
3.32
1.98
-0.01
-3.14
-7.45
-12.62
-18.08
-23.30
-27.95
-31.99
-35.60
-39.19
-43.22
-48.15
-54.13
-60.85
-67.41
-72.37
-74.20
-71.72
-64.61
-53.46
-39.73
-25.16
-11.28
0.93
11.15
19.47
26.14
31.32
35.06
37.42
38.65
39.26
39.87
40.98
42.73
44.83
46.68
47.65
47.37
45.85
43.52
40.98
38.80
37.24
36.17
35.14
33.54
30.94
27.22
22.63
17.69
12.97
8.83
5.35
2.28
-0.77
-4.19
-8.24
-12.93
-18.05
-23.28
-28.19
-32.52
-36.19
-39.36
-42.42
-45.79
-49.92
-55.09
-61.24
-67.86
-73.88
-77.92
-78.55
-74.84
-66.72
-55.06
-41.40
-27.40
-14.39
-3.01
6.62
14.77
21.66
27.43
32.09
35.63
38.19
39.96
41.24
42.26
43.16
43.93
44.50
44.74
44.60
44.08
43.26
42.24
41.06
39.65
37.89
35.61
32.73
29.32
25.55
21.66
17.86
14.33
11.14
8.28
5.63
2.95
-0.12
-3.85
-8.30
-13.25
-18.20
-22.60
-26.11
-28.85
-31.30
-34.15
-38.00
-43.19
-49.73
-57.29
-65.16
-72.26
-77.21
-78.57
-75.23
-66.96
-54.54
-39.71
-24.52
-10.68
0.98
10.46
18.31
25.04
30.82
35.46
38.73
40.66
41.68
42.38
43.26
44.42
45.57
46.22
46.04
45.04
43.63
42.32
41.50
41.15
40.84
39.84
37.44
33.34
27.78
21.47
15.38
10.24
6.27
3.11
-0.02
-3.86
-8.77
-14.56
-20.64
-26.33
-31.23
-35.44
-39.41
-43.77
-49.05
-55.52
-63.14
-71.52
-79.92
-87.05
-91.19
-90.62
-84.15
-71.84
-55.20
-36.78
-19.25
-4.59
6.59
14.79
21.13
26.57
31.62
36.26
40.33
43.80
46.88
49.86
52.89
55.82
58.28
59.81
60.11
59.27
57.67
55.90
54.54
53.85
53.69
53.54
52.67
50.50
46.83
41.92
36.43
31.09
26.44
22.61
19.30
15.98
12.13
7.46
1.97
-4.01
-9.99
-15.49
-20.23
-24.23
-27.78
-31.50
-35.98
-41.73
-48.92
-57.30
-66.16
-74.35
-80.47
-83.05
-81.01
-74.01
-62.66
-48.44
-33.22
-18.69
-5.87
4.96
14.03
21.66
27.98
32.88
36.26
38.23
39.24
39.91
40.71
41.88
43.25
44.49
45.29
45.49
45.17
44.50
43.66
42.69
41.47
39.80
37.49
34.44
30.72
26.55
22.24
18.07
14.19
10.57
7.02
3.34
-0.64
-4.91
-9.33
-13.66
-17.74
-21.54
-25.26
-29.34
-34.31
-40.62
-48.32
-56.85
-64.99
-71.08
-73.45
-71.00
-63.63
-52.26
-38.56
-24.39
-11.26
0.01
9.22
16.65
22.64
27.46
31.23
34.06
36.13
37.73
39.23
40.82
42.48
43.95
44.86
45.00
44.41
43.45
42.55
41.99
41.70
41.26
40.11
37.82
34.29
29.80
24.90
20.16
16.02
12.62
9.83
7.24
4.36
0.75
-3.81
-9.16
-14.85
-20.29
-24.99
-28.83
-32.11
-35.42
-39.43
-44.68
-51.33
-59.03
-66.85
-73.38
-76.93
-76.09
-70.18
-59.51
-45.47
-29.94
-14.80
-1.30
10.10
19.64
27.82
35.02
41.31
46.51
50.40
52.91
54.28
54.96
55.43
56.01
56.70
57.21
57.21
56.51
55.21
53.70
52.37
51.48
50.90
50.15
48.63
45.83
41.60
36.16
30.01
23.70
17.64
11.99
6.76
1.85
-2.77
-7.06
-10.95
-14.45
-17.74
-21.09
-24.77
-28.95
-33.66
-38.91
-44.72
-51.16
-58.07
-64.84
-70.17
-72.26
-69.39
-60.57
-46.16
-27.89
-8.46
9.36
23.53
33.25
38.92
41.73
43.11
44.21
45.78
48.17
51.39
55.22
59.21
62.67
64.81
65.04
63.15
59.61
55.43
51.81
49.72
49.37
50.14
50.74
49.80
46.26
39.81
30.92
20.52
9.71
-0.72
-10.38
-19.33
-27.82
-36.01
-43.84
-51.00
-57.12
-62.06
-66.05
-69.65
-73.52
-78.07
-83.38
-89.13
-94.81
-99.88
-103.83
-106.19
-106.47
-104.21
-99.16
-91.42
-81.49
-70.17
-58.35
-46.74
-35.83
-25.92
-17.24
-10.00
-4.33
-0.18
2.73
4.88
6.76
8.68
10.63
12.31
13.30
13.23
12.01
9.84
7.17
4.50
2.25
0.59
-0.49
-1.19
-1.73
-2.23
-2.71
-3.03
-3.01
-2.54
-1.66
-0.61
0.18
0.22
-0.81
-2.92
-5.81
-8.88
-11.59
-13.65
-15.32
-17.23
-20.23
-24.88
-31.14
-38.19
-44.58
-48.64
-49.04
-45.15
-37.24
-26.29
-13.62
-0.53
12.03
23.46
33.54
42.18
49.36
55.10
59.47
62.71
65.14
67.16
69.15
71.31
73.66
75.92
77.70
78.58
78.40
77.28
75.57
73.60
71.56
69.39
66.85
63.74
60.07
56.02
51.82
47.57
43.23
38.71
34.16
29.98
26.78
25.03
24.75
25.41
26.10
25.84
23.93
20.14
14.81
8.75
3.07
-1.06
-2.71
-1.53
2.05
6.87
11.34
14.00
14.03
11.47
7.19
2.47
-1.49
-4.05
-5.21
-5.54
-5.84
-6.72
-8.46
-11.00
-14.10
-17.57
-21.33
-25.28
-29.22
-32.80
-35.61
-37.36
-38.09
-38.17
-38.17
-38.64
-39.87
-41.80
-44.07
-46.21
-47.80
-48.69
-49.11
-49.62
-50.93
-53.58
-57.71
-62.96
-68.54
-73.60
-77.54
-80.24
-82.04
-83.56
-85.45
-88.10
-91.57
-95.50
-99.22
-101.85
-102.54
-100.69
-96.17
-89.38
-81.14
-72.36
-63.71
-55.34
-46.86
-37.64
-27.08
-14.98
-1.65
12.19
25.59
37.75
48.14
56.60
63.24
68.32
72.11
74.78
76.44
77.15
76.96
75.92
74.07
71.44
68.05
64.01
59.54
54.94
50.64
47.09
44.58
43.19
42.62
42.24
41.34
39.32
36.05
31.91
27.69
24.17
21.84
20.68
20.13
19.38
17.56
14.09
8.80
2.16
-4.80
-10.55
-13.48
-12.35
-6.85
2.24
13.23
24.06
33.03
39.35
43.18
45.38
46.88
48.28
49.56
50.43
50.51
49.77
48.47
46.98
45.52
43.96
41.93
39.06
35.28
30.84
26.19
21.70
17.40
13.05
8.25
2.79
-3.23
-9.37
-15.09
-19.91
-23.60
-26.19
-27.94
-29.26
-30.55
-32.18
-34.31
-36.93
-39.77
-42.43
-44.57
-45.96
-46.68
-47.04
-47.57
-48.78
-51.00
-54.17
-57.77
-60.87
-62.43
-61.67
-58.48
-53.52
-47.96
-43.09
-39.74
-38.02
-37.40
-37.16
-36.83
-36.53
-36.86
-38.53
-41.95
-46.98
-52.86
-58.59
-63.24
-66.20
-67.27
-66.55
-64.23
-60.43
-55.18
-48.43
-40.18
-30.54
-19.66
-7.79
4.77
17.53
29.70
40.13
47.54
50.98
50.36
46.64
41.68
37.60
35.96
37.26
40.90
45.63
50.23
54.05
57.02
59.46
61.63
63.42
64.44
64.23
62.61
59.85
56.62
53.67
51.62
50.75
50.97
52.03
53.60
55.45
57.38
59.27
60.88
61.92
61.92
60.36
56.69
50.61
42.21
32.09
21.25
10.83
1.72
-5.72
-11.74
-16.94
-21.89
-26.78
-31.37
-35.23
-38.04
-39.92
-41.37
-43.09
-45.52
-48.72
-52.20
-55.24
-57.19
-57.79
-57.19
-55.81
-54.11
-52.27
-50.22
-47.69
-44.51
-40.80
-37.14
-34.35
-33.13
-33.72
-35.68
-38.00
-39.39
-38.71
-35.26
-28.86
-19.92
-9.30
1.80
12.09
20.45
26.26
29.61
31.30
32.46
34.15
36.90
40.56
44.48
47.70
49.25
48.28
44.10
36.40
25.34
11.70
-3.06
-17.20
-29.15
-38.11
-44.19
-48.33
-51.64
-54.84
-57.97
-60.42
-61.51
-60.87
-58.79
-56.09
-53.83
-52.87
-53.76
-56.82
-62.21
-69.88
-79.26
-88.91
-96.53
-99.54
-96.02
-85.69
-70.38
-53.62
-39.49
-31.14
-29.76
-34.23
-41.73
-48.84
-52.65
-51.55
-45.30
-34.80
-21.45
-6.71
8.23
22.38
34.94
45.23
52.77
57.50
59.89
60.86
61.49
62.60
64.45
66.61
68.29
68.62
67.15
63.94
59.56
54.87
50.70
47.63
45.82
44.97
44.42
43.40
41.22
37.57
32.52
26.51
20.14
13.93
8.21
3.06
-1.60
-5.92
-10.03
-14.02
-17.99
-22.05
-26.37
-31.04
-36.14
-41.75
-47.99
-54.94
-62.47
-70.03
-76.56
-80.67
-81.01
-76.77
-68.02
-55.71
-41.41
-26.75
-13.02
-0.93
9.37
18.01
25.18
31.02
35.59
39.00
41.48
43.40
45.17
47.08
49.17
51.24
52.98
54.04
54.33
53.90
53.06
52.07
51.08
50.02
48.66
46.76
44.23
41.21
38.04
35.03
32.29
29.60
26.46
22.40
17.23
11.21
4.98
-0.77
-5.57
-9.43
-12.81
-16.37
-20.70
-26.14
-32.74
-40.31
-48.56
-57.05
-65.12
-71.84
-76.08
-76.79
-73.37
-65.89
-55.11
-42.27
-28.68
-15.42
-3.10
8.01
17.82
26.24
33.06
38.06
41.17
42.64
43.01
42.95
43.02
43.43
44.07
44.62
44.81
44.56
44.01
43.34
42.60
41.60
40.04
37.68
34.44
30.51
26.19
21.80
17.54
13.38
9.19
4.74
-0.15
-5.47
-11.02
-16.44
-21.35
-25.59
-29.36
-33.24
-38.01
-44.28
-52.03
-60.40
-67.74
-72.09
-71.83
-66.32
-56.19
-43.09
-29.05
-15.81
-4.32
5.35
13.66
21.16
28.07
34.25
39.34
43.09
45.52
46.98
47.97
48.93
50.04
51.22
52.18
52.67
52.58
52.01
51.12
50.01
48.58
46.56
43.71
39.98
35.61
31.09
26.90
23.35
20.48
18.02
15.61
12.90
9.67
5.84
1.45
-3.41
-8.62
-14.06
-19.57
-25.03
-30.33
-35.46
-40.59
-46.09
-52.41
-59.85
-68.19
-76.50
-83.19
-86.49
-85.07
-78.54
-67.66
-53.98
-39.35
-25.24
-12.51
-1.35
8.42
17.05
24.70
31.34
36.89
41.30
44.67
47.16
49.01
50.44
51.54
52.27
52.54
52.27
51.49
50.43
49.37
48.55
47.95
47.32
46.15
43.93
40.42
35.69
30.25
24.78
19.91
15.93
12.70
9.75
6.47
2.47
-2.31
-7.56
-12.83
-17.81
-22.44
-26.90
-31.41
-36.08
-40.85
-45.72
-50.85
-56.61
-63.27
-70.59
-77.52
-82.34
-83.24
-79.08
-69.91
-57.06
-42.51
-28.14
-15.11
-3.64
6.50
15.66
23.87
30.87
36.29
40.04
42.35
43.74
44.73
45.59
46.26
46.52
46.17
45.29
44.20
43.36
43.02
43.09
43.05
42.24
40.16
36.72
32.26
27.37
22.63
18.29
14.25
10.17
5.71
0.71
-4.71
-10.25
-15.57
-20.41
-24.71
-28.59
-32.39
-36.58
-41.69
-48.03
-55.47
-63.18
-69.72
-73.36
-72.64
-66.97
-56.86
-43.78
-29.64
-16.09
-4.09
6.17
15.00
22.85
29.98
36.36
41.76
45.99
48.99
50.93
52.14
53.00
53.81
54.62
55.35
55.81
55.88
55.56
55.01
54.35
53.56
52.47
50.84
48.45
45.24
41.37
37.07
32.65
28.35
24.39
20.90
17.94
15.42
13.06
10.47
7.29
3.36
-1.24
-6.20
-11.16
-15.85
-20.21
-24.32
-28.39
-32.60
-37.11
-42.07
-47.48
-53.15
-58.44
-62.27
-63.31
-60.48
-53.44
-42.91
-30.51
-18.14
-7.29
1.48
8.52
14.69
20.76
27.03
33.30
39.13
44.19
48.36
51.72
54.32
56.06
56.65
55.82
53.48
49.82
45.31
40.58
36.18
32.47
29.43
26.75
23.91
20.48
16.23
11.33
6.19
1.31
-2.99
-6.70
-10.10
-13.59
-17.44
-21.68
-26.07
-30.31
-34.11
-37.37
-40.23
-42.94
-45.92
-49.61
-54.36
-60.30
-67.05
-73.68
-78.73
-80.53
-77.72
-69.68
-56.77
-40.28
-22.02
-3.78
13.06
27.84
40.53
51.52
61.30
70.23
78.31
85.30
90.79
94.44
96.15
96.13
94.72
92.29
89.08
85.16
80.56
75.42
70.03
64.79
60.05
55.99
52.49
49.27
45.99
42.44
38.68
34.95
31.51
28.45
25.53
22.25
18.09
12.78
6.47
-0.33
-7.07
-13.41
-19.40
-25.34
-31.56
-38.06
-44.58
-50.64
-55.83
-59.98
-63.20
-65.76
-67.92
-69.87
-71.70
-73.40
-74.86
-75.92
-76.27
-75.68
-73.96
-71.25
-67.92
-64.59
-61.91
-60.32
-59.91
-60.29
-60.75
-60.44
-58.67
-55.06
-49.67
-42.97
-35.68
-28.61
-22.48
-17.80
-14.79
-13.34
-13.07
-13.47
-14.01
-14.32
-14.26
-13.91
-13.46
-13.11
-12.94
-12.93
-12.97
-13.03
-13.25
-13.96
-15.64
-18.68
-23.26
-29.22
-36.11
-43.35
-50.38
-56.78
-62.33
-66.99
-70.99
-74.91
-79.50
-85.35
-92.41
-99.65
-105.12
-106.56
-102.22
-91.56
-75.41
-55.62
-34.25
-13.01
7.04
25.30
41.27
54.40
64.16
70.37
73.45
74.36
74.32
74.37
74.99
76.06
77.05
77.32
76.51
74.72
72.35
69.84
67.47
65.15
62.50
59.07
54.57
49.04
42.86
36.60
30.80
25.77
21.46
17.55
13.49
8.81
3.28
-2.95
-9.41
-15.42
-20.34
-23.82
-25.93
-27.16
-28.34
-30.40
-34.09
-39.68
-46.73
-54.04
-59.91
-62.51
-60.49
-53.37
-41.79
-27.26
-11.71
3.11
16.02
26.59
34.96
41.63
47.18
52.07
56.68
61.28
65.96
70.58
74.60
77.25
77.73
75.62
71.16
65.37
59.76
55.85
54.59
56.02
59.19
62.56
64.55
64.16
61.26
56.56
51.16
46.11
42.07
39.26
37.62
37.02
37.22
37.73
37.55
35.25
29.46
19.47
5.71
-10.29
-26.57
-41.51
-54.38
-65.42
-75.23
-84.24
-92.22
-98.36
-101.69
-101.46
-97.29
-89.32
-78.13
-64.77
-50.81
-38.04
-27.97
-21.22
-17.21
-14.36
-10.85
-5.42
2.16
11.11
20.25
28.60
35.71
41.63
46.49
50.29
52.74
53.53
52.51
49.86
46.02
41.58
37.10
32.94
29.28
26.09
23.16
20.18
16.79
12.67
7.57
1.47
-5.54
-13.11
-20.85
-28.30
-35.10
-41.10
-46.42
-51.57
-57.27
-64.34
-73.22
-83.77
-95.07
-105.54
-113.43
-117.23
-116.14
-110.17
-100.03
-86.98
-72.51
-58.27
-45.78
-36.26
-30.13
-26.86
-24.98
-22.46
-17.55
-9.35
1.82
14.56
27.02
37.58
45.33
50.24
52.85
53.94
54.22
54.10
53.78
53.28
52.47
51.16
49.15
46.27
42.44
37.72
32.33
26.47
20.35
14.11
7.81
1.55
-4.51
-10.16
-15.26
-19.82
-24.13
-28.71
-34.07
-40.43
-47.43
-54.07
-58.92
-60.62
-58.42
-52.41
-43.54
-33.12
-22.36
-12.00
-2.21
7.07
15.86
23.85
30.49
35.26
37.96
38.84
38.59
37.98
37.56
37.52
37.59
37.32
36.26
34.25
31.40
28.13
24.87
21.91
19.29
16.80
14.07
10.74
6.61
1.65
-3.92
-9.73
-15.34
-20.38
-24.64
-28.17
-31.25
-34.28
-37.74
-42.02
-47.25
-53.30
-59.55
-65.09
-68.74
-69.41
-66.37
-59.52
-49.45
-37.29
-24.33
-11.68
-0.03
10.33
19.34
27.01
33.25
37.91
40.95
42.51
42.91
42.64
42.13
41.65
41.30
40.96
40.41
39.48
38.02
35.97
33.36
30.24
26.71
22.84
18.66
14.13
9.20
3.90
-1.65
-7.20
-12.49
-17.28
-21.51
-25.31
-28.91
-32.60
-36.67
-41.43
-47.13
-53.92
-61.62
-69.48
-76.24
-80.22
-79.89
-74.34
-63.74
-49.32
-33.02
-16.86
-2.35
9.81
19.66
27.64
34.28
39.82
44.31
47.69
49.99
51.39
52.17
52.54
52.50
51.92
50.62
48.61
46.14
43.60
41.33
39.41
37.68
35.77
33.33
30.20
26.47
22.41
18.24
14.11
9.94
5.62
1.02
-3.82
-8.81
-13.77
-18.63
-23.38
-28.14
-33.10
-38.49
-44.49
-51.15
-58.20
-64.90
-70.12
-72.56
-71.18
-65.62
-56.29
-44.29
-30.93
-17.40
-4.55
7.13
17.30
25.73
32.26
36.89
39.88
41.71
42.95
44.05
45.23
46.44
47.42
47.94
47.86
47.25
46.28
45.10
43.68
41.76
39.00
35.13
30.23
24.73
19.35
14.84
11.68
9.80
8.61
7.03
3.91
-1.73
-10.36
-21.86
-35.44
-49.79
-63.18
-73.67
-79.43
-79.23
-72.79
-60.97
-45.52
-28.49
-11.58
4.41
19.55
34.28
48.88
63.03
75.97
86.93
95.61
102.40
108.07
113.32
118.30
122.50
125.10
125.37
123.21
119.12
113.89
108.04
101.42
93.24
82.51
68.69
52.20
34.35
16.83
0.98
-12.71
-24.66
-35.68
-46.37
-56.64
-65.81
-73.07
-78.00
-80.83
-82.31
-83.30
-84.19
-84.81
-84.59
-82.90
-79.53
-74.87
-69.81
-65.34
-62.17
-60.42
-59.56
-58.63
-56.63
-52.97
-47.69
-41.44
-35.16
-29.59
-24.87
-20.39
-15.13
-8.08
1.23
12.52
24.85
36.98
47.75
56.25
62.02
65.04
65.77
65.10
64.22
64.15
65.32
67.26
68.83
68.77
66.37
61.74
55.57
48.43
40.22
30.13
17.12
0.76
-18.30
-38.46
-57.92
-75.52
-91.23
-105.84
-120.31
-135.09
-149.94
-164.24
-177.43
-189.07
-198.55
-204.76
-206.05
-200.86
-188.63
-170.49
-149.25
-128.47
-111.12
-98.63
-90.60
-85.47
-81.47
-77.40
-72.84
-67.76
-62.04
-55.29
-47.06
-37.07
-25.49
-12.89
0.06
12.89
25.44
37.75
49.79
61.24
71.59
80.37
87.47
93.17
97.92
101.96
104.99
106.25
104.81
100.02
91.84
80.83
67.85
53.66
38.83
23.83
9.40
-3.22
-12.49
-17.04
-16.28
-10.71
-1.81
8.47
18.41
26.89
33.56
38.59
42.36
45.25
47.54
49.42
51.09
52.67
54.27
55.83
57.20
58.09
58.22
57.34
55.36
52.38
48.75
44.95
41.42
38.46
36.06
33.98
31.84
29.36
26.39
23.00
19.33
15.49
11.51
7.29
2.72
-2.29
-7.70
-13.35
-19.00
-24.42
-29.50
-34.35
-39.32
-44.87
-51.32
-58.45
-65.31
-70.43
-72.19
-69.57
-62.51
-52.09
-40.01
-28.00
-17.17
-7.78
0.50
8.23
15.66
22.71
29.00
34.20
38.22
41.26
43.67
45.79
47.74
49.41
50.53
50.86
50.31
49.07
47.52
46.00
44.68
43.39
41.76
39.36
35.96
31.60
26.59
21.29
15.98
10.74
5.54
0.41
-4.49
-8.82
-12.22
-14.48
-15.74
-16.41
-17.19
-18.75
-21.61
-26.01
-31.97
-39.32
-47.76
-56.65
-65.00
-71.47
-74.73
-73.84
-68.60
-59.75
-48.62
-36.69
-25.04
-14.14
-3.91
5.91
15.41
24.33
32.05
37.92
41.57
43.10
43.09
42.38
41.73
41.62
42.08
42.88
43.64
44.12
44.17
43.78
42.93
41.56
39.63
37.16
34.25
31.10
27.90
24.70
21.46
18.03
14.21
9.91
5.12
-0.01
-5.22
-10.24
-14.83
-18.94
-22.80
-26.88
-31.79
-37.98
-45.36
-53.13
-59.82
-63.74
-63.52
-58.73
-50.02
-38.90
-27.09
-15.90
-5.96
2.82
10.82
18.38
25.53
32.04
37.67
42.33
46.22
49.66
53.01
56.51
60.23
64.08
67.84
71.14
73.45
74.22
73.00
69.77
64.95
59.41
54.08
49.74
46.64
44.58
43.02
41.39
39.35
36.84
34.12
31.55
29.58
28.55
28.63
29.76
31.57
33.35
34.14
32.92
28.91
21.77
11.95
0.62
-10.43
-19.18
-23.89
-23.65
-18.63
-10.05
0.22
10.36
19.05
25.82
30.80
34.30
36.30
36.27
33.43
27.16
17.52
5.33
-8.07
-21.29
-33.29
-43.57
-51.96
-58.35
-62.43
-63.73
-61.95
-57.23
-50.37
-42.64
-35.35
-29.36
-24.77
-21.01
-17.18
-12.63
-7.26
-1.38
4.63
10.75
17.49
25.50
34.94
45.00
53.83
59.12
58.98
52.64
40.78
25.16
7.91
-9.18
-25.10
-39.54
-52.61
-64.45
-75.16
-84.90
-94.03
-103.12
-112.50
-121.92
-130.14
-135.24
-135.22
-129.00
-116.95
-100.87
-83.36
-66.85
-52.87
-41.95
-33.98
-28.69
-25.90
-25.41
-26.74
-28.92
-30.58
-30.38
-27.36
-21.26
-12.51
-2.13
8.54
18.18
25.73
30.61
32.87
33.12
32.23
31.04
29.94
28.89
27.48
25.31
22.21
18.34
14.08
9.80
5.81
2.15
-1.19
-4.33
-7.50
-11.00
-15.12
-19.99
-25.31
-30.29
-33.78
-34.72
-32.57
-27.61
-20.79
-13.28
-5.86
1.36
8.92
17.45
27.18
37.48
47.02
54.23
57.99
58.14
55.59
51.93
48.72
46.88
46.40
46.56
46.41
45.31
43.26
40.70
38.21
36.06
34.09
31.83
28.82
24.85
20.10
14.98
9.87
4.97
0.26
-4.45
-9.30
-14.30
-19.24
-23.93
-28.25
-32.38
-36.71
-41.69
-47.51
-53.83
-59.68
-63.67
-64.46
-61.28
-54.21
-44.25
-32.86
-21.41
-10.82
-1.32
7.22
15.02
22.07
28.14
32.95
36.32
38.38
39.39
39.70
39.50
38.90
37.93
36.71
35.44
34.32
33.41
32.50
31.22
29.09
25.87
21.73
17.26
13.34
10.82
10.08
10.87
12.33
13.27
12.67
9.97
5.25
-1.01
-8.10
-15.44
-22.67
-29.65
-36.40
-42.98
-49.53
-56.16
-62.88
-69.36
-74.87
-78.35
-78.70
-75.28
-68.09
-57.91
-45.95
-33.48
-21.43
-10.34
-0.41
8.31
15.70
21.62
25.98
28.84
30.51
31.37
31.86
32.26
32.70
33.19
33.65
34.03
34.27
34.31
34.10
33.52
32.48
30.90
28.66
25.70
22.00
17.60
12.70
7.61
2.65
-2.01
-6.41
-10.77
-15.39
-20.48
-26.05
-32.01
-38.16
-44.24
-49.84
-54.29
-56.71
-56.27
-52.48
-45.53
-36.27
-25.92
-15.59
-5.98
2.71
10.56
17.56
23.48
27.92
30.61
31.59
31.33
30.54
29.85
29.66
30.04
30.82
31.83
32.94
34.14
35.37
36.48
37.13
36.92
35.48
32.62
28.34
22.86
16.57
9.95
3.53
-2.25
-7.10
-11.09
-14.53
-18.02
-22.15
-27.36
-33.73
-40.88
-48.01
-54.07
-57.92
-58.67
-55.87
-49.66
-40.78
-30.32
-19.41
-8.93
0.68
9.27
16.87
23.42
28.78
32.74
35.23
36.46
36.80
36.75
36.65
36.66
36.68
36.52
35.99
35.05
33.77
32.27
30.61
28.75
26.55
23.84
20.53
16.65
12.35
7.89
3.49
-0.69
-4.65
-8.49
-12.43
-16.65
-21.30
-26.47
-32.17
-38.38
-44.89
-51.28
-56.86
-60.74
-62.08
-60.34
-55.53
-48.16
-39.12
-29.30
-19.37
-9.71
-0.56
7.84
15.12
20.88
24.85
27.08
28.04
28.40
28.80
29.52
30.44
31.12
31.15
30.32
28.75
26.82
24.88
23.14
21.51
19.64
17.13
13.68
9.23
3.97
-1.73
-7.48
-12.93
-17.96
-22.61
-27.11
-31.80
-37.04
-43.08
-49.90
-57.10
-63.81
-68.80
-70.81
-69.00
-63.29
-54.41
-43.56
-31.97
-20.44
-9.25
1.54
11.86
21.23
28.99
34.55
37.68
38.65
38.10
36.67
34.84
32.85
30.67
28.23
25.46
22.35
19.07
15.94
13.45
12.08
12.02
13.00
14.24
14.76
13.71
10.73
6.00
0.05
-6.52
-13.34
-20.26
-27.23
-34.11
-40.69
-46.76
-52.35
-57.91
-64.09
-71.40
-79.70
-87.93
-94.24
-96.59
-93.57
-84.99
-71.97
-56.53
-40.78
-26.25
-13.62
-2.93
6.03
13.36
18.95
22.67
24.55
24.98
24.56
23.94
23.60
23.78
24.44
25.47
26.72
28.14
29.75
31.56
33.60
35.82
38.11
40.29
42.24
43.85
45.07
45.88
46.29
46.28
45.85
44.99
43.72
42.04
39.93
37.43
34.61
31.58
28.45
25.21
21.71
17.69
13.06
8.08
3.55
0.67
0.69
4.45
12.01
22.62
34.99
47.78
60.04
71.40
81.95
91.99
101.70
110.99
119.53
126.94
132.92
137.37
140.38
142.03
142.38
141.46
139.19
135.50
130.22
123.03
113.48
101.15
85.76
67.50
47.01
25.37
3.82
-16.48
-34.70
-50.35
-63.35
-73.92
-82.56
-90.06
-97.33
-105.26
-114.32
-124.29
-134.14
-142.20
-146.67
-146.24
-140.62
-130.59
-117.77
-103.97
-90.60
-78.47
-67.73
-58.29
-50.09
-43.26
-37.99
-34.34
-32.05
-30.53
-29.09
-27.14
-24.48
-21.35
-18.35
-16.12
-15.09
-15.22
-15.96
-16.51
-16.09
-14.32
-11.40
-8.00
-5.04
-3.31
-3.18
-4.51
-6.82
-9.53
-12.22
-14.74
-17.27
-20.15
-23.74
-28.28
-33.76
-39.82
-45.72
-50.48
-52.99
-52.36
-48.20
-40.77
-30.93
-19.84
-8.67
1.76
11.04
19.13
26.13
32.14
37.17
41.14
44.05
46.01
47.31
48.28
49.16
50.04
50.78
51.15
50.94
50.11
48.75
47.08
45.28
43.34
41.12
38.38
34.98
30.95
26.54
22.05
17.71
13.61
9.61
5.52
1.17
-3.46
-8.22
-12.84
-17.09
-20.84
-24.15
-27.34
-30.92
-35.52
-41.56
-48.97
-56.99
-64.21
-68.85
-69.39
-65.05
-56.15
-44.01
-30.55
-17.71
-6.90
1.24
6.84
10.55
13.21
15.52
17.90
20.47
23.08
25.54
27.63
29.18
29.99
29.90
28.83
26.87
24.35
21.81
19.74
18.42
17.67
16.95
15.51
12.76
8.61
3.50
-1.74
-6.32
-9.78
-12.23
-14.28
-16.78
-20.50
-25.80
-32.49
-39.77
-46.38
-50.86
-51.98
-49.07
-42.28
-32.54
-21.27
-9.95
0.30
8.91
15.78
21.10
25.06
27.78
29.25
29.52
28.75
27.32
25.71
24.34
23.47
23.11
22.99
22.78
22.18
21.10
19.66
18.09
16.56
15.05
13.35
11.07
7.92
3.83
-0.97
-6.04
-10.91
-15.26
-19.08
-22.69
-26.59
-31.32
-37.24
-44.30
-51.88
-58.87
-63.84
-65.47
-62.90
-56.09
-45.82
-33.44
-20.49
-8.28
2.34
11.01
17.77
22.83
26.42
28.81
30.24
31.01
31.44
31.79
32.22
32.70
33.06
33.12
32.79
32.16
31.45
30.85
30.34
29.61
28.13
25.47
21.43
16.27
10.58
5.05
0.25
-3.64
-6.80
-9.72
-13.00
-17.16
-22.50
-28.93
-35.92
-42.52
-47.47
-49.50
-47.68
-41.77
-32.35
-20.73
-8.55
2.70
12.05
19.20
24.37
27.95
30.30
31.56
31.78
31.09
29.75
28.18
26.78
25.77
25.13
24.64
24.02
23.08
21.77
20.15
18.24
16.07
13.51
10.41
6.63
2.16
-2.91
-8.40
-14.17
-20.22
-26.61
-33.38
-40.22
-46.37
-50.64
-51.79
-48.98
-42.20
-32.26
-20.57
-8.65
2.28
11.50
18.74
23.99
27.35
28.94
28.92
27.64
25.58
23.37
21.57
20.53
20.32
20.64
21.05
21.10
20.60
19.63
18.51
17.53
16.78
16.05
14.92
12.95
9.86
5.62
0.38
-5.64
-12.16
-18.82
-25.00
-29.77
-32.12
-31.15
-26.52
-18.57
-8.27
3.10
14.22
24.11
32.04
37.52
40.27
40.19
37.54
32.97
27.42
21.98
17.51
14.57
13.24
13.30
14.29
15.73
17.14
18.15
18.50
18.13
17.11
15.65
14.01
12.38
10.86
9.50
8.25
7.08
5.86
4.41
2.47
-0.16
-3.57
-7.56
-11.70
-15.43
-18.26
-20.02
-20.81
-21.04
-21.15
-21.55
-22.48
-23.97
-25.89
-27.92
-29.69
-30.79
-30.87
-29.76
-27.45
-24.18
-20.36
-16.53
-13.20
-10.84
-9.71
-9.86
-11.14
-13.23
-15.79
-18.53
-21.27
-23.97
-26.74
-29.81
-33.48
-37.90
-42.90
-47.79
-51.45
-52.55
-50.11
-43.81
-34.25
-22.74
-10.87
-0.01
8.97
15.77
20.44
23.16
24.12
23.51
21.66
19.07
16.35
14.06
12.57
12.00
12.15
12.70
13.30
13.67
13.73
13.48
13.01
12.30
11.25
9.60
7.13
3.74
-0.42
-4.98
-9.46
-13.48
-16.83
-19.45
-21.23
-21.92
-21.04
-18.07
-12.75
-5.24
3.76
13.16
21.81
28.81
33.78
36.88
38.68
39.86
40.98
42.26
43.57
44.67
45.33
45.47
45.15
44.46
43.38
41.85
39.82
37.42
34.92
32.55
30.31
27.88
24.72
20.40
14.88
8.63
2.40
-3.03
-7.22
-10.14
-12.15
-13.92
-16.18
-19.67
-24.82
-31.54
-38.99
-45.64
-49.56
-49.00
-43.06
-32.04
-17.45
-1.54
13.34
25.32
33.42
37.49
38.04
35.89
31.97
27.11
21.99
17.02
12.30
7.61
2.53
-3.36
-10.18
-17.57
-24.62
-30.10
-32.79
-31.89
-27.36
-20.04
-11.51
-3.74
1.55
3.30
1.57
-2.57
-7.37
-11.17
-12.93
-12.60
-10.97
-9.20
-8.39
-9.11
-11.38
-14.73
-18.38
-21.44
-23.04
-22.43
-19.20
-13.37
-5.53
3.29
11.85
19.05
24.26
27.38
28.86
29.35
29.47
29.55
29.56
29.18
28.00
25.79
22.52
18.44
13.89
9.20
4.54
-0.08
-4.72
-9.40
-13.98
-18.19
-21.68
-24.26
-26.00
-27.28
-28.66
-30.72
-33.77
-37.76
-42.24
-46.56
-50.12
-52.58
-53.97
-54.72
-55.39
-56.53
-58.44
-61.00
-63.69
-65.70
-66.11
-64.14
-59.30
-51.58
-41.48
-29.87
-17.85
-6.46
3.51
11.61
17.79
22.22
25.17
26.91
27.73
27.95
27.92
27.96
28.31
28.93
29.56
29.83
29.44
28.31
26.67
24.88
23.21
21.72
20.17
18.18
15.45
11.91
7.79
3.50
-0.48
-3.84
-6.54
-8.89
-11.45
-14.85
-19.52
-25.42
-31.82
-37.44
-40.71
-40.25
-35.42
-26.51
-14.71
-1.73
10.72
21.37
29.56
35.27
38.88
40.93
41.94
42.35
42.53
42.85
43.72
45.43
48.18
51.89
56.29
60.98
65.59
69.92
73.90
77.61
81.09
84.37
87.50
90.52
93.43
96.02
97.82
98.17
96.39
92.14
85.59
77.39
68.46
59.71
51.66
44.44
37.72
31.05
24.02
16.58
9.04
2.06
-3.66
-7.61
-9.72
-10.36
-10.15
-9.69
-9.38
-9.33
-9.47
-9.64
-9.74
-9.69
-9.49
-9.20
-9.08
-9.65
-11.51
-15.17
-20.77
-27.88
-35.57
-42.70
-48.26
-51.63
-52.62
-51.41
-48.33
-43.86
-38.56
-33.17
-28.57
-25.57
-24.75
-26.20
-29.49
-33.75
-38.05
-41.59
-43.97
-45.26
-45.84
-46.23
-46.97
-48.43
-50.82
-54.15
-58.11
-62.04
-64.85
-65.29
-62.35
-55.67
-45.78
-34.03
-22.13
-11.53
-3.03
3.29
7.82
11.01
13.08
14.00
13.64
12.01
9.37
6.22
3.13
0.62
-1.06
-1.90
-2.14
-2.09
-2.01
-1.92
-1.62
-0.75
0.98
3.59
6.69
9.62
11.68
12.43
11.94
10.70
9.34
8.31
7.60
6.77
5.21
2.41
-1.83
-7.35
-13.69
-20.15
-25.89
-29.98
-31.58
-30.17
-25.73
-18.94
-10.97
-3.20
3.23
7.64
9.89
10.32
9.45
7.84
5.95
4.13
2.64
1.62
1.07
0.90
0.88
0.70
0.15
-0.89
-2.32
-3.88
-5.35
-6.65
-7.96
-9.68
-12.25
-15.94
-20.69
-26.05
-31.31
-35.72
-38.77
-40.32
-40.68
-40.49
-40.53
-41.56
-44.10
-48.22
-53.41
-58.52
-62.03
-62.42
-58.80
-51.21
-40.77
-29.20
-18.31
-9.34
-2.75
1.72
4.73
6.89
8.63
10.07
11.18
11.83
11.94
11.51
10.64
9.51
8.40
7.57
7.27
7.63
8.70
10.35
12.30
14.09
15.11
14.83
12.91
9.44
4.91
0.06
-4.30
-7.59
-9.67
-10.79
-11.54
-12.59
-14.47
-17.42
-21.31
-25.70
-29.99
-33.46
-35.49
-35.52
-33.20
-28.45
-21.56
-13.27
-4.60
3.32
9.56
13.66
15.72
16.17
15.56
14.37
12.87
11.31
9.92
8.96
8.66
9.00
9.72
10.37
10.52
9.87
8.47
6.49
4.17
1.59
-1.27
-4.46
-7.86
-11.10
-13.67
-15.07
-15.15
-14.23
-13.07
-12.69
-14.01
-17.40
-22.55
-28.45
-33.69
-36.88
-37.13
-34.23
-28.69
-21.47
-13.67
-6.22
0.33
5.78
10.22
13.78
16.54
18.47
19.47
19.54
18.86
17.83
16.95
16.56
16.73
17.14
17.26
16.61
14.96
12.42
9.43
6.44
3.76
1.49
-0.48
-2.31
-4.13
-6.01
-8.06
-10.47
-13.49
-17.16
-21.17
-24.78
-26.90
-26.49
-22.92
-16.23
-7.09
3.43
14.25
24.53
33.71
41.41
47.29
51.05
52.49
51.75
49.33
46.01
42.59
39.53
36.86
34.23
31.22
27.60
23.52
19.44
15.85
12.99
10.69
8.47
5.72
2.07
-2.58
-7.94
-13.60
-19.12
-24.31
-29.21
-34.06
-39.17
-44.82
-51.19
-58.23
-65.57
-72.44
-77.70
-80.10
-78.64
-73.07
-63.99
-52.81
-41.24
-30.81
-22.42
-16.33
-12.21
-9.55
-7.84
-6.73
-5.96
-5.31
-4.60
-3.71
-2.61
-1.30
0.23
2.01
4.09
6.42
8.85
11.10
12.91
14.24
15.34
16.79
19.31
23.48
29.41
36.68
44.50
52.07
59.00
65.49
72.12
79.41
87.34
95.10
101.38
104.66
103.60
97.30
85.45
68.51
48.08
26.82
8.15
-4.66
-9.69
-7.10
0.85
10.61
18.67
22.80
22.36
18.10
11.35
3.33
-5.09
-13.36
-20.94
-27.24
-31.53
-33.30
-32.40
-29.19
-24.43
-19.00
-13.64
-8.80
-4.60
-1.04
1.91
4.17
5.58
5.92
5.11
3.18
0.35
-3.05
-6.65
-10.19
-13.49
-16.54
-19.41
-22.19
-24.98
-27.87
-30.95
-34.37
-38.35
-43.11
-48.81
-55.31
-61.93
-67.47
-70.33
-69.03
-62.71
-51.51
-36.63
-19.95
-3.45
11.34
23.62
33.21
40.31
45.18
48.03
49.08
48.74
47.65
46.70
46.65
47.94
50.41
53.44
56.15
57.85
58.26
57.62
56.43
55.08
53.65
51.76
48.84
44.39
38.32
30.97
23.01
15.18
8.05
1.80
-3.75
-9.10
-14.73
-20.87
-27.35
-33.64
-39.10
-43.34
-46.42
-48.89
-51.53
-55.14
-60.23
-66.94
-74.84
-82.90
-89.46
-92.43
-89.90
-80.76
-65.35
-45.47
-23.94
-3.61
13.46
26.38
35.38
41.19
44.67
46.42
46.85
46.32
45.27
44.14
43.32
43.09
43.53
44.55
45.97
47.53
48.91
49.90
50.40
50.48
50.35
50.19
49.95
49.32
47.69
44.45
39.29
32.35
24.31
16.04
8.32
1.57
-4.21
-9.25
-13.80
-18.08
-22.25
-26.60
-31.42
-36.80
-42.20
-46.39
-47.69
-44.61
-36.57
-24.33
-9.87
4.36
16.18
24.34
28.74
30.07
29.31
27.28
24.44
20.96
16.92
12.54
8.20
4.40
1.57
-0.13
-0.84
-1.01
-1.20
-1.85
-3.15
-4.98
-6.99
-8.73
-9.97
-10.71
-11.25
-12.11
-13.79
-16.63
-20.66
-25.55
-30.80
-35.83
-40.21
-43.69
-46.29
-48.21
-49.81
-51.62
-54.20
-57.98
-62.86
-67.89
-71.20
-70.38
-63.33
-49.10
-28.46
-3.83
21.53
44.53
63.20
76.89
86.05
91.64
94.61
95.67
95.41
94.25
92.59
90.56
88.04
84.65
79.94
73.60
65.47
55.65
44.29
31.63
18.03
4.02
-9.63
-22.14
-32.83
-41.42
-47.97
-52.83
-56.52
-59.52
-62.32
-65.25
-68.51
-72.06
-75.56
-78.48
-80.32
-80.80
-80.10
-78.83
-77.85
-78.07
-80.13
-84.10
-89.32
-94.31
-96.94
-94.98
-86.77
-71.98
-51.84
-28.88
-6.11
13.91
29.73
41.14
48.77
53.54
56.18
57.14
56.74
55.38
53.60
51.95
50.81
50.20
49.83
49.29
48.33
46.98
45.55
44.46
43.90
43.76
43.58
42.75
40.78
37.46
32.94
27.67
22.24
17.17
12.81
9.21
6.08
2.89
-0.93
-5.74
-11.47
-17.62
-23.50
-28.48
-32.32
-35.30
-38.14
-41.71
-46.84
-53.91
-62.70
-72.26
-80.90
-86.56
-87.34
-82.08
-70.85
-54.98
-36.66
-18.26
-1.65
12.08
22.67
30.32
35.44
38.42
39.63
39.52
38.71
37.86
37.54
38.02
39.20
40.62
41.73
42.11
41.70
40.84
40.06
39.77
39.97
40.19
39.64
37.65
33.95
28.88
23.24
18.01
13.91
11.22
9.61
8.42
6.91
4.57
1.26
-2.70
-6.82
-10.60
-13.84
-16.63
-19.45
-22.99
-27.99
-34.98
-43.98
-54.24
-64.15
-71.48
-73.97
-70.12
-59.82
-44.50
-26.64
-9.01
6.22
17.98
26.27
31.72
35.13
37.11
37.93
37.78
36.94
35.85
35.07
35.05
35.93
37.45
39.12
40.50
41.40
42.01
42.70
43.68
44.75
45.29
44.48
41.70
36.87
30.52
23.50
16.66
10.42
4.76
-0.76
-6.63
-13.14
-20.20
-27.33
-33.88
-39.28
-43.29
-46.13
-48.45
-51.10
-54.90
-60.50
-68.05
-77.07
-86.29
-93.73
-97.07
-94.36
-84.70
-68.79
-48.80
-27.76
-8.55
6.79
17.54
24.02
27.13
27.86
27.05
25.34
23.38
21.80
21.21
22.00
24.20
27.40
30.91
33.97
36.04
37.04
37.30
37.44
37.94
38.91
39.95
40.34
39.30
36.50
32.15
26.94
21.76
17.30
13.81
11.00
8.27
4.98
0.70
-4.54
-10.39
-16.23
-21.54
-26.02
-29.78
-33.27
-37.18
-42.22
-48.94
-57.53
-67.55
-77.82
-86.50
-91.41
-90.68
-83.38
-69.95
-52.13
-32.38
-13.18
3.64
17.12
27.15
34.05
38.32
40.43
40.88
40.23
39.12
38.22
37.99
38.63
40.00
41.68
43.13
43.95
43.99
43.43
42.60
41.79
41.09
40.35
39.20
37.28
34.38
30.50
25.91
21.07
16.48
12.57
9.43
6.81
4.14
0.76
-3.75
-9.38
-15.62
-21.73
-27.00
-31.10
-34.22
-37.01
-40.39
-45.24
-52.17
-61.12
-71.21
-80.77
-87.60
-89.56
-85.30
-74.69
-58.95
-40.31
-21.26
-3.92
10.41
21.35
29.16
34.39
37.57
39.19
39.67
39.48
39.18
39.27
40.07
41.59
43.53
45.44
46.90
47.73
48.04
48.07
47.99
47.76
47.06
45.50
42.80
38.98
34.40
29.62
25.17
21.34
18.11
15.22
12.38
9.35
6.04
2.44
-1.40
-5.50
-9.87
-14.53
-19.49
-24.80
-30.66
-37.34
-45.06
-53.62
-62.11
-68.83
-71.60
-68.47
-58.47
-42.19
-21.64
0.19
20.35
36.68
48.22
55.12
58.21
58.44
56.66
53.53
49.61
45.55
41.93
39.22
37.52
36.57
35.83
34.75
33.07
30.96
28.98
27.79
27.86
29.13
30.99
32.46
32.56
30.60
26.47
20.56
13.60
6.34
-0.75
-7.61
-14.52
-21.95
-30.19
-39.15
-48.35
-57.10
-64.76
-71.03
-75.99
-80.11
-83.96
-88.14
-93.14
-99.29
-106.56
-114.31
-121.06
-124.56
-122.37
-112.69
-95.26
-71.67
-45.05
-18.97
3.70
21.53
34.62
43.93
50.54
55.09
57.78
58.74
58.34
57.33
56.56
56.56
57.32
58.32
58.91
58.68
57.69
56.40
55.31
54.60
53.98
52.78
50.23
45.86
39.72
32.39
24.72
17.48
11.03
5.26
-0.26
-6.01
-12.26
-18.93
-25.65
-31.95
-37.49
-42.17
-46.22
-50.18
-54.77
-60.64
-68.01
-76.23
-83.69
-88.04
-87.04
-79.39
-65.43
-47.07
-27.15
-8.44
7.23
19.27
28.06
34.31
38.61
41.25
42.37
42.25
41.40
40.49
40.10
40.54
41.71
43.24
44.66
45.65
46.07
46.06
45.86
45.64
45.42
44.98
43.95
41.96
38.79
34.53
29.55
24.42
19.68
15.61
12.11
8.76
5.00
0.42
-5.02
-10.95
-16.70
-21.67
-25.55
-28.49
-31.14
-34.40
-39.23
-46.33
-55.85
-67.21
-78.85
-88.47
-93.50
-91.89
-82.88
-67.37
-47.77
-27.16
-8.39
6.68
17.45
24.41
28.54
30.92
32.37
33.41
34.37
35.43
36.71
38.25
39.95
41.58
42.82
43.37
43.11
42.26
41.25
40.53
40.31
40.39
40.17
38.94
36.22
32.00
26.73
21.18
16.11
11.99
8.90
6.50
4.17
1.24
-2.79
-8.02
-14.15
-20.49
-26.34
-31.23
-35.12
-38.40
-41.78
-46.04
-51.77
-59.27
-68.30
-78.03
-86.87
-92.79
-93.74
-88.38
-76.56
-59.56
-39.77
-19.85
-2.08
12.24
22.87
30.27
35.16
38.20
39.82
40.34
40.18
39.90
40.16
41.40
43.69
46.57
49.23
50.93
51.29
50.55
49.30
48.21
47.54
47.04
46.06
43.95
40.41
35.65
30.27
24.99
20.39
16.65
13.53
10.40
6.51
1.26
-5.52
-13.46
-21.72
-29.32
-35.53
-40.11
-43.41
-46.26
-49.66
-54.57
-61.54
-70.50
-80.48
-89.56
-95.22
-95.03
-87.53
-72.96
-53.27
-31.56
-11.00
6.18
19.14
28.35
34.88
39.72
43.37
45.90
47.27
47.61
47.42
47.32
47.81
49.02
50.69
52.27
53.24
53.35
52.67
51.54
50.35
49.30
48.31
47.03
44.96
41.73
37.16
31.42
24.91
18.16
11.69
5.91
0.97
-3.22
-7.03
-11.00
-15.58
-20.97
-26.96
-33.02
-38.47
-42.82
-46.02
-48.47
-50.91
-54.27
-59.36
-66.75
-76.47
-87.72
-98.70
-106.81
-109.25
-104.02
-90.71
-70.87
-47.46
-23.90
-2.92
14.10
27.08
36.74
43.98
49.41
53.40
56.18
58.09
59.54
60.86
62.12
63.14
63.60
63.17
61.73
59.47
56.76
54.05
51.69
49.73
47.99
46.06
43.49
39.98
35.40
29.86
23.66
17.21
10.98
5.41
0.83
-2.66
-5.30
-7.58
-10.17
-13.55
-17.94
-23.16
-28.74
-34.11
-38.84
-42.75
-45.97
-48.92
-52.23
-56.63
-62.75
-70.90
-80.67
-90.73
-98.94
-102.84
-100.43
-90.95
-75.24
-55.53
-34.67
-15.30
0.86
13.18
21.92
27.65
31.02
32.46
32.45
31.50
30.36
29.77
30.30
32.17
35.10
38.49
41.61
43.89
45.15
45.56
45.53
45.35
45.00
44.09
42.12
38.71
33.96
28.34
22.60
17.33
12.72
8.60
4.57
0.34
-4.12
-8.64
-13.01
-17.10
-20.98
-24.81
-28.75
-32.95
-37.66
-43.27
-50.16
-58.48
-67.73
-76.57
-83.03
-85.02
-81.20
-71.48
-57.19
-40.62
-24.26
-10.01
1.26
9.64
15.74
20.22
23.41
25.34
25.96
25.45
24.29
23.22
22.89
23.62
25.28
27.32
29.15
30.34
30.79
30.71
30.35
29.81
28.89
27.20
24.44
20.60
16.16
11.81
8.27
5.94
4.72
4.13
3.45
2.07
-0.41
-4.08
-8.71
-13.92
-19.24
-24.22
-28.61
-32.39
-35.85
-39.55
-44.16
-50.31
-58.23
-67.53
-77.00
-84.72
-88.46
-86.39
-77.76
-63.31
-45.20
-26.22
-9.02
4.81
14.90
21.88
26.82
30.66
33.96
36.93
39.61
42.07
44.40
46.73
49.08
51.34
53.36
54.97
56.07
56.65
56.79
56.59
56.19
55.64
54.93
53.94
52.51
50.45
47.66
44.13
39.95
35.32
30.49
25.74
21.31
17.28
13.57
9.90
5.87
1.21
-4.17
-10.11
-16.28
-22.29
-27.85
-32.87
-37.47
-41.99
-46.96
-52.97
-60.48
-69.49
-79.26
-88.17
-93.97
-94.43
-88.14
-75.14
-57.06
-36.63
-16.78
0.24
13.35
22.64
28.91
33.09
35.94
37.88
39.24
40.28
41.32
42.62
44.29
46.19
48.02
49.42
50.09
49.95
49.14
47.97
46.76
45.72
44.75
43.50
41.55
38.54
34.46
29.62
24.52
19.59
15.11
11.10
7.41
3.87
0.33
-3.36
-7.32
-11.57
-16.10
-20.67
-24.99
-28.83
-32.19
-35.44
-39.21
-44.21
-50.95
-59.43
-68.91
-77.93
-84.52
-86.73
-83.21
-73.76
-59.49
-42.46
-25.04
-9.16
4.10
14.60
22.74
28.98
33.58
36.56
37.96
38.03
37.32
36.49
36.03
36.14
36.70
37.47
38.32
39.25
40.34
41.56
42.64
43.11
42.44
40.33
36.87
32.58
28.13
24.10
20.77
18.02
15.38
12.32
8.41
3.54
-2.08
-8.00
-13.67
-18.67
-22.88
-26.51
-30.13
-34.48
-40.21
-47.61
-56.31
-65.21
-72.56
-76.42
-75.22
-68.29
-56.18
-40.60
-23.79
-7.95
5.47
15.93
23.68
29.31
33.40
36.28
38.11
39.01
39.27
39.28
39.40
39.86
40.58
41.29
41.65
41.38
40.44
39.05
37.59
36.47
35.82
35.42
34.65
32.83
29.50
24.69
18.97
13.18
8.09
4.00
0.75
-2.24
-5.61
-9.78
-14.75
-20.16
-25.45
-30.11
-33.84
-36.68
-39.09
-41.75
-45.48
-50.96
-58.41
-67.34
-76.40
-83.61
-86.84
-84.46
-75.98
-62.26
-45.23
-27.34
-10.72
3.28
14.29
22.65
28.99
33.84
37.46
39.97
41.48
42.30
42.89
43.72
45.09
47.01
49.12
50.98
52.18
52.56
52.21
51.33
50.12
48.62
46.76
44.37
41.32
37.61
33.35
28.80
24.26
20.01
16.23
12.90
9.80
6.56
2.82
-1.67
-6.82
-12.29
-17.57
-22.22
-26.04
-29.18
-32.09
-35.32
-39.49
-45.13
-52.55
-61.64
-71.67
-81.20
-88.19
-90.58
-86.93
-77.01
-62.02
-44.21
-26.16
-10.03
2.94
12.57
19.40
24.23
27.76
30.41
32.33
33.57
34.24
34.58
34.84
35.23
35.83
36.50
37.06
37.35
37.27
36.89
36.28
35.46
34.31
32.66
30.33
27.29
23.63
19.54
15.22
10.77
6.18
1.41
-3.54
-8.53
-13.27
-17.50
-21.08
-24.12
-27.05
-30.46
-34.99
-41.07
-48.68
-57.14
-65.17
-71.00
-72.89
-69.70
-61.25
-48.58
-33.55
-18.28
-4.48
6.89
15.72
22.34
27.21
30.61
32.67
33.54
33.54
33.16
32.97
33.39
34.50
36.03
37.59
38.80
39.52
39.87
40.04
40.16
40.07
39.38
37.61
34.44
29.90
24.37
18.47
12.76
7.62
3.09
-1.04
-5.09
-9.31
-13.78
-18.35
-22.69
-26.46
-29.51
-32.03
-34.60
-38.11
-43.45
-51.09
-60.75
-71.20
-80.36
-85.93
-85.94
-79.48
-67.02
-50.27
-31.70
-13.79
1.59
13.53
22.06
27.85
31.77
34.59
36.77
38.53
39.92
40.99
41.85
42.64
43.51
44.46
45.35
45.98
46.17
45.81
44.92
43.56
41.82
39.78
37.47
34.92
32.07
28.86
25.22
21.17
16.86
12.52
8.44
4.76
1.41
-1.92
-5.52
-9.58
-14.04
-18.66
-23.12
-27.24
-31.07
-34.87
-39.01
-43.90
-49.87
-57.12
-65.55
-74.65
-83.32
-89.98
-92.83
-90.45
-82.27
-68.94
-52.14
-34.13
-17.07
-2.48
9.01
17.52
23.55
27.70
30.38
31.95
32.73
33.15
33.65
34.57
35.97
37.57
38.96
39.75
39.87
39.61
39.42
39.67
40.41
41.24
41.51
40.63
38.27
34.57
29.97
25.13
20.56
16.55
13.09
9.93
6.71
3.05
-1.24
-6.10
-11.19
-16.03
-20.17
-23.41
-25.89
-28.05
-30.55
-34.04
-39.00
-45.51
-53.06
-60.55
-66.35
-68.69
-66.17
-58.25
-45.59
-29.82
-13.17
2.27
15.07
24.67
31.27
35.51
38.09
39.57
40.30
40.53
40.46
40.25
40.09
40.07
40.19
40.33
40.33
40.04
39.39
38.45
37.34
36.16
34.95
33.58
31.84
29.52
26.43
22.56
18.00
13.06
8.14
3.71
0.08
-2.65
-4.76
-6.78
-9.27
-12.63
-16.86
-21.64
-26.46
-30.87
-34.71
-38.09
-41.34
-44.84
-49.00
-54.13
-60.41
-67.62
-75.01
-81.24
-84.63
-83.58
-77.15
-65.47
-49.75
-32.02
-14.50
0.96
13.32
22.39
28.63
32.77
35.51
37.35
38.57
39.34
39.85
40.28
40.74
41.26
41.74
42.01
41.94
41.52
40.86
40.13
39.46
38.87
38.25
37.32
35.77
33.33
29.94
25.80
21.27
16.80
12.72
9.13
5.93
2.90
-0.26
-3.76
-7.75
-12.23
-17.07
-21.97
-26.54
-30.46
-33.63
-36.30
-39.03
-42.54
-47.45
-53.98
-61.84
-70.07
-77.16
-81.34
-80.97
-75.03
-63.57
-47.74
-29.52
-11.23
5.19
18.55
28.57
35.61
40.35
43.37
45.02
45.51
44.97
43.74
42.26
41.01
40.31
40.14
40.15
39.91
39.13
37.90
36.60
35.64
35.14
34.74
33.70
31.26
27.04
21.35
15.00
9.03
4.22
0.78
-1.65
-3.86
-6.59
-10.25
-14.77
-19.62
-24.10
-27.74
-30.42
-32.55
-34.85
-38.20
-43.28
-50.36
-59.05
-68.21
-76.07
-80.61
-80.15
-73.87
-62.16
-46.56
-29.24
-12.41
2.29
13.98
22.50
28.19
31.61
33.39
34.14
34.36
34.41
34.51
34.72
35.01
35.32
35.57
35.70
35.68
35.52
35.30
35.04
34.70
34.09
32.86
30.69
27.39
23.08
18.17
13.16
8.52
4.46
0.90
-2.45
-5.93
-9.79
-14.08
-18.69
-23.37
-27.84
-31.92
-35.58
-38.97
-42.46
-46.63
-52.02
-58.90
-66.92
-74.95
-81.18
-83.61
-80.66
-71.82
-57.87
-40.74
-22.81
-6.29
7.34
17.52
24.48
28.88
31.55
33.25
34.54
35.81
37.25
38.85
40.45
41.79
42.61
42.74
42.15
41.00
39.56
38.18
37.09
36.30
35.48
34.10
31.64
27.87
22.99
17.65
12.59
8.43
5.31
2.87
0.47
-2.52
-6.41
-11.08
-16.09
-20.92
-25.19
-28.82
-32.03
-35.23
-39.01
-43.92
-50.28
-58.02
-66.37
-73.89
-78.70
-79.04
-73.82
-63.17
-48.42
-31.71
-15.27
-0.79
10.92
19.81
26.29
30.84
33.81
35.43
35.91
35.58
34.85
34.14
33.73
33.74
34.09
34.59
35.05
35.25
35.07
34.46
33.38
31.86
29.91
27.54
24.70
21.39
17.58
13.29
8.57
3.53
-1.71
-7.03
-12.25
-17.20
-21.67
-25.51
-28.69
-31.39
-33.97
-36.99
-41.11
-46.88
-54.47
-63.34
-72.10
-78.68
-80.94
-77.36
-67.66
-53.02
-35.61
-17.93
-2.01
11.00
20.83
27.77
32.29
34.85
35.85
35.79
35.22
34.77
34.89
35.72
37.08
38.52
39.55
39.91
39.66
39.11
38.61
38.31
38.02
37.24
35.42
32.27
27.89
22.81
17.71
13.16
9.39
6.21
3.11
-0.51
-5.04
-10.52
-16.60
-22.65
-28.03
-32.33
-35.57
-38.21
-41.05
-44.99
-50.72
-58.43
-67.51
-76.57
-83.59
-86.45
-83.59
-74.53
-60.17
-42.50
-24.03
-7.01
7.18
18.20
26.56
33.06
38.40
42.83
46.25
48.39
49.19
48.96
48.31
47.95
48.31
49.38
50.70
51.68
51.82
51.02
49.56
47.81
46.02
44.07
41.60
38.18
33.65
28.22
22.43
16.98
12.42
8.98
6.46
4.36
2.05
-0.97
-4.97
-9.82
-15.16
-20.51
-25.49
-29.93
-33.94
-37.87
-42.30
-47.84
-55.00
-63.90
-73.97
-83.80
-91.41
-94.63
-91.89
-82.78
-68.29
-50.51
-31.98
-14.93
-0.73
10.25
18.39
24.35
28.79
32.11
34.55
36.32
37.67
38.90
40.31
41.99
43.84
45.56
46.83
47.42
47.33
46.75
45.93
45.10
44.33
43.48
42.22
40.12
36.91
32.52
27.24
21.58
16.18
11.51
7.78
4.85
2.29
-0.38
-3.61
-7.59
-12.27
-17.38
-22.55
-27.42
-31.73
-35.43
-38.67
-41.85
-45.57
-50.45
-56.88
-64.74
-73.06
-80.14
-83.87
-82.42
-74.97
-62.02
-45.36
-27.47
-10.70
3.33
13.98
21.49
26.55
29.93
32.18
33.67
34.56
35.00
35.24
35.53
36.15
37.21
38.65
40.18
41.44
42.15
42.23
41.82
41.16
40.44
39.62
38.45
36.51
33.50
29.33
24.26
18.83
13.65
9.18
5.56
2.60
-0.15
-3.17
-6.76
-10.97
-15.55
-20.16
-24.50
-28.47
-32.15
-35.79
-39.74
-44.37
-50.08
-57.10
-65.28
-73.78
-81.03
-85.00
-83.81
-76.48
-63.37
-46.17
-27.42
-9.60
5.51
17.13
25.42
31.07
34.85
37.36
39.00
39.99
40.59
41.06
41.65
42.53
43.68
44.91
45.98
46.71
47.08
47.19
47.16
46.98
46.45
45.23
43.08
39.91
35.93
31.49
26.99
22.69
18.67
14.89
11.24
7.71
4.36
1.28
-1.49
-4.13
-6.93
-10.25
-14.30
-19.07
-24.27
-29.51
-34.47
-39.08
-43.54
-48.31
-53.89
-60.68
-68.80
-77.86
-86.83
-94.11
-97.80
-96.21
-88.51
-75.05
-57.41
-37.93
-18.96
-2.33
11.10
21.28
28.68
33.95
37.64
40.21
42.03
43.44
44.73
46.06
47.48
48.88
50.12
51.06
51.65
51.90
51.86
51.58
51.04
50.15
48.80
46.88
44.37
41.30
37.76
33.85
29.68
25.30
20.83
16.40
12.18
8.31
4.79
1.47
-1.97
-5.82
-10.29
-15.31
-20.61
-25.77
-30.47
-34.60
-38.35
-42.23
-46.85
-52.81
-60.41
-69.47
-79.13
-87.84
-93.70
-94.84
-90.10
-79.41
-63.94
-45.77
-27.24
-10.31
3.83
14.82
22.94
28.70
32.64
35.23
36.85
37.91
38.67
39.37
40.12
40.91
41.68
42.38
42.94
43.34
43.58
43.63
43.41
42.74
41.30
38.72
34.63
28.97
21.96
14.24
6.63
-0.14
-5.78
-10.50
-14.94
-19.86
-25.75
-32.65
-40.16
-47.68
-54.84
-61.79
-69.19
-78.06
-89.27
-103.17
-119.20
-135.83
-150.70
-161.14
-164.77
-160.13
-147.16
-127.28
-102.97
-77.13
-52.26
-29.90
-10.46
6.57
21.98
36.39
49.90
62.18
72.78
81.48
88.59
94.90
101.38
108.83
117.54
127.25
137.26
146.76
155.04
161.65
166.43
169.39
170.72
170.69
169.71
168.19
166.47
164.63
162.48
159.60
155.50
149.77
142.19
132.76
121.62
109.12
95.67
81.79
68.02
54.82
42.47
30.95
19.96
9.03
-2.22
-13.92
-25.76
-37.05
-46.89
-54.38
-58.90
-60.25
-58.73
-54.99
-49.97
-44.56
-39.50
-35.22
-31.83
-29.24
-27.29
-25.86
-24.78
-23.86
-22.74
-21.02
-18.43
-15.02
-11.27
-7.99
-5.93
-5.53
-6.70
-8.81
-11.07
-12.85
-13.95
-14.66
-15.46
-16.70
-18.36
-20.04
-21.18
-21.42
-20.78
-19.72
-18.89
-18.88
-19.99
-22.15
-25.00
-28.01
-30.66
-32.50
-33.35
-33.19
-32.24
-30.79
-29.15
-27.59
-26.34
-25.69
-25.84
-26.84
-28.44
-30.02
-30.86
-30.35
-28.34
-25.26
-21.99
-19.35
-17.87
-17.54
-17.93
-18.50
-18.89
-19.10
-19.37
-19.94
-20.77
-21.55
-21.79
-21.10
-19.44
-17.16
-14.85
-13.08
-12.20
-12.26
-13.10
-14.42
-15.96
-17.52
-19.05
-20.58
-22.21
-24.02
-25.98
-27.93
-29.61
-30.77
-31.32
-31.41
-31.37
-31.60
-32.40
-33.88
-35.93
-38.30
-40.69
-42.78
-44.28
-44.92
-44.56
-43.20
-41.03
-38.39
-35.63
-33.05
-30.75
-28.68
-26.61
-24.30
-21.54
-18.28
-14.60
-10.75
-7.10
-3.93
-1.44
0.44
1.93
3.36
4.96
6.78
8.58
9.99
10.62
10.25
8.87
6.71
4.14
1.52
-0.94
-3.19
-5.41
-7.89
-11.02
-15.09
-20.23
-26.37
-33.20
-40.40
-47.80
-55.47
-63.78
-73.15
-83.77
-95.39
-107.29
-118.53
-128.34
-136.45
-143.17
-149.18
-155.19
-161.57
-168.25
-174.88
-180.98
-186.12
-189.76
-191.19
-189.42
-183.39
-172.25
-155.77
-134.40
-109.18
-81.40
-52.44
-23.62
3.66
28.03
48.20
63.25
72.89
77.54
78.10
75.61
70.94
64.55
56.55
46.92
35.77
23.69
11.89
2.09
-3.87
-4.57
0.42
10.40
23.80
38.68
53.46
67.22
79.78
91.34
102.07
111.82
120.12
126.43
130.31
131.72
130.92
128.39
124.63
120.04
114.89
109.37
103.77
98.44
93.78
90.10
87.44
85.46
83.52
80.82
76.59
70.34
62.00
51.92
40.80
29.47
18.60
8.47
-1.16
-10.86
-21.20
-32.35
-43.82
-54.51
-62.97
-67.80
-67.89
-62.59
-51.78
-35.91
-16.15
5.66
27.21
46.17
60.89
70.85
76.67
79.78
81.72
83.56
85.63
87.66
89.22
90.02
90.16
90.06
90.23
91.10
92.77
95.08
97.53
99.53
100.53
100.30
99.04
97.40
96.32
96.59
98.68
102.43
107.24
112.24
116.51
119.13
119.13
115.51
107.33
94.10
75.99
54.00
29.73
5.03
-18.42
-39.19
-56.00
-67.51
-72.36
-69.62
-59.35
-43.04
-23.45
-3.98
12.41
23.95
30.33
32.37
31.31
28.13
23.34
17.10
9.58
1.18
-7.49
-15.84
-23.54
-30.53
-36.95
-42.90
-48.33
-53.01
-56.66
-59.07
-60.22
-60.25
-59.50
-58.34
-57.07
-55.79
-54.42
-52.63
-50.08
-46.54
-42.03
-36.97
-31.98
-27.75
-24.75
-23.14
-22.73
-23.14
-24.09
-25.55
-27.82
-31.31
-36.23
-42.16
-48.01
-52.26
-53.54
-51.37
-46.44
-40.46
-35.38
-32.60
-32.35
-33.68
-34.99
-34.77
-32.21
-27.31
-20.68
-13.09
-5.19
2.61
9.95
16.46
21.64
25.03
26.32
25.54
23.11
19.73
16.23
13.30
11.31
10.24
9.75
9.41
8.89
8.07
7.09
6.13
5.29
4.44
3.24
1.27
-1.76
-5.92
-10.96
-16.36
-21.57
-26.12
-29.83
-32.83
-35.50
-38.31
-41.68
-45.84
-50.79
-56.16
-61.20
-64.77
-65.45
-61.93
-53.40
-39.96
-22.74
-3.62
15.21
31.87
45.24
54.98
61.47
65.33
67.08
67.08
65.56
62.78
59.20
55.45
52.17
49.74
48.18
47.09
45.89
43.99
41.08
37.11
32.31
26.98
21.33
15.44
9.28
2.82
-3.82
-10.40
-16.60
-22.19
-27.12
-31.57
-35.81
-40.05
-44.38
-48.73
-53.06
-57.36
-61.57
-65.34
-67.87
-67.94
-64.29
-56.19
-43.84
-28.46
-11.90
3.90
17.48
28.13
35.74
40.51
42.68
42.40
39.87
35.42
29.64
23.23
16.83
10.86
5.43
0.45
-4.24
-8.76
-13.12
-17.28
-21.27
-25.20
-29.31
-33.80
-38.76
-44.06
-49.47
-54.70
-59.51
-63.78
-67.43
-70.38
-72.41
-73.26
-72.65
-70.38
-66.43
-61.01
-54.61
-47.96
-41.95
-37.43
-34.91
-34.05
-33.52
-31.09
-24.30
-11.35
8.10
32.62
59.35
84.89
106.30
121.80
131.02
134.71
134.17
130.83
125.90
120.25
114.40
108.52
102.41
95.66
87.81
78.53
67.78
55.90
43.46
31.09
19.33
8.41
-1.74
-11.43
-21.12
-31.20
-41.84
-52.86
-63.72
-73.59
-81.65
-87.35
-90.64
-92.04
-92.45
-92.92
-94.31
-97.07
-100.98
-105.08
-107.74
-106.91
-100.68
-87.92
-68.80
-44.94
-18.95
6.19
28.06
45.26
57.56
65.64
70.52
73.23
74.60
75.22
75.57
76.07
77.01
78.48
80.31
82.06
83.14
82.97
81.21
77.83
73.04
67.13
60.22
52.25
42.98
32.28
20.23
7.20
-6.32
-19.92
-33.43
-46.82
-60.11
-73.26
-86.05
-98.19
-109.25
-118.68
-125.73
-129.62
-129.71
-125.87
-118.67
-109.22
-98.88
-88.88
-80.12
-73.16
-68.49
-66.59
-67.75
-71.70
-77.23
-82.27
-84.31
-81.28
-72.24
-57.74
-39.47
-19.64
-0.20
17.58
33.07
46.07
56.38
63.75
67.94
68.95
67.12
63.05
57.42
50.76
43.36
35.31
26.63
17.34
7.56
-2.37
-11.88
-20.10
-26.03
-28.70
-27.58
-22.74
-14.96
-5.45
4.56
14.12
22.79
30.53
37.48
43.67
48.96
53.12
55.91
57.29
57.37
56.34
54.41
51.78
48.68
45.39
42.26
39.61
37.61
36.16
34.94
33.46
31.24
27.92
23.40
17.78
11.42
4.79
-1.72
-7.85
-13.67
-19.53
-25.93
-33.25
-41.45
-49.81
-56.95
-61.18
-61.00
-55.75
-45.94
-33.20
-19.77
-7.76
1.44
7.50
10.91
12.48
12.91
12.55
11.46
9.67
7.36
4.87
2.69
1.20
0.62
0.93
1.90
3.17
4.32
4.92
4.69
3.49
1.37
-1.46
-4.79
-8.43
-12.27
-16.24
-20.38
-24.80
-29.67
-35.12
-41.04
-46.91
-51.79
-54.52
-54.01
-49.61
-41.38
-30.08
-16.95
-3.46
9.03
19.54
27.50
32.85
35.91
37.15
37.09
36.16
34.63
32.71
30.61
28.56
26.79
25.52
24.81
24.59
24.67
24.79
24.63
23.86
22.13
19.20
15.05
9.84
3.93
-2.26
-8.42
-14.46
-20.59
-27.17
-34.69
-43.40
-53.10
-62.90
-71.25
-76.26
-76.19
-70.10
-58.28
-42.18
-24.05
-6.25
9.43
22.07
31.61
38.45
43.14
46.02
47.34
47.25
46.08
44.34
42.63
41.48
41.10
41.31
41.66
41.68
41.13
40.12
38.96
37.85
36.64
34.80
31.59
26.52
19.65
11.63
3.50
-3.83
-9.90
-14.93
-19.62
-24.87
-31.45
-39.78
-49.72
-60.46
-70.52
-77.94
-80.78
-77.63
-68.26
-53.67
-35.87
-17.22
0.16
14.87
26.30
34.46
39.71
42.53
43.49
43.19
42.20
41.08
40.27
40.04
40.47
41.43
42.58
43.50
43.81
43.38
42.31
40.96
39.70
38.65
37.61
36.07
33.45
29.35
23.79
17.24
10.43
4.11
-1.31
-5.82
-9.83
-13.95
-18.79
-24.74
-31.90
-40.00
-48.33
-55.70
-60.61
-61.50
-57.24
-47.55
-33.14
-15.60
3.16
21.43
38.03
52.30
63.89
72.48
77.75
79.53
78.02
73.90
68.28
62.31
56.90
52.46
48.87
45.68
42.34
38.50
34.03
29.09
23.92
18.76
13.65
8.45
2.94
-3.06
-9.61
-16.57
-23.64
-30.41
-36.46
-41.47
-45.29
-48.02
-49.99
-51.76
-54.08
-57.67
-63.03
-70.05
-77.82
-84.67
-88.57
-87.80
-81.53
-70.18
-55.24
-38.72
-22.46
-7.71
4.98
15.56
24.11
30.68
35.30
38.13
39.59
40.33
40.99
42.08
43.76
45.85
47.97
49.69
50.79
51.27
51.41
51.55
51.98
52.72
53.49
53.77
52.97
50.63
46.59
41.11
34.74
28.23
22.25
17.14
12.82
8.79
4.42
-0.79
-6.95
-13.70
-20.37
-26.31
-31.23
-35.34
-39.33
-44.08
-50.36
-58.54
-68.35
-78.76
-88.09
-94.32
-95.58
-90.81
-80.13
-64.93
-47.37
-29.73
-13.71
-0.10
11.13
20.42
28.23
34.74
39.90
43.62
46.00
47.38
48.27
49.20
50.47
52.09
53.81
55.25
56.11
56.28
55.87
55.04
53.98
52.68
51.02
48.86
46.12
42.83
39.06
34.93
30.57
26.13
21.83
17.88
14.44
11.48
8.77
5.98
2.76
-1.09
-5.55
-10.43
-15.44
-20.33
-24.93
-29.26
-33.52
-38.10
-43.43
-49.86
-57.46
-65.80
-73.82
-80.00
-82.70
-80.66
-73.44
-61.70
-46.99
-31.34
-16.61
-4.04
5.95
13.60
19.46
24.05
27.64
30.31
32.12
33.23
33.98
34.79
35.97
37.60
39.47
41.22
42.52
43.26
43.51
43.50
43.37
43.08
42.39
40.94
38.45
34.90
30.54
25.85
21.38
17.57
14.56
12.21
10.12
7.83
4.93
1.27
-3.05
-7.66
-12.12
-16.02
-19.18
-21.70
-23.99
-26.71
-30.54
-35.96
-43.00
-51.08
-59.01
-65.20
-68.04
-66.38
-59.91
-49.30
-36.03
-21.92
-8.64
2.64
11.50
18.07
22.77
26.03
28.16
29.40
29.92
30.01
29.99
30.18
30.77
31.79
33.09
34.44
35.61
36.45
36.90
36.92
36.50
35.60
34.19
32.25
29.84
27.04
23.91
20.52
16.92
13.24
9.68
6.46
3.71
1.37
-0.86
-3.34
-6.40
-10.15
-14.41
-18.89
-23.23
-27.25
-30.95
-34.48
-38.00
-41.73
-45.88
-50.72
-56.47
-63.07
-69.96
-75.94
-79.35
-78.61
-72.84
-62.20
-48.02
-32.27
-16.99
-3.65
7.04
15.07
20.83
24.84
27.56
29.42
30.78
31.96
33.16
34.47
35.83
37.11
38.15
38.84
39.14
39.09
38.76
38.27
37.68
36.99
36.09
34.80
32.99
30.60
27.69
24.42
20.94
17.42
13.99
10.70
7.61
4.73
2.05
-0.47
-2.96
-5.54
-8.39
-11.61
-15.23
-19.13
-23.10
-26.94
-30.48
-33.71
-36.87
-40.30
-44.47
-49.75
-56.26
-63.63
-70.84
-76.33
-78.37
-75.62
-67.67
-55.34
-40.41
-25.10
-11.35
-0.31
7.73
13.19
16.74
19.04
20.53
21.52
22.22
22.84
23.57
24.56
25.82
27.27
28.72
29.92
30.72
31.07
31.09
30.96
30.82
30.60
30.03
28.75
26.50
23.31
19.48
15.52
11.88
8.82
6.26
3.87
1.25
-1.86
-5.55
-9.64
-13.81
-17.72
-21.12
-23.98
-26.50
-29.07
-32.19
-36.34
-41.76
-48.27
-55.14
-61.16
-64.80
-64.74
-60.27
-51.58
-39.82
-26.68
-13.88
-2.70
6.25
13.04
18.06
21.76
24.44
26.26
27.29
27.75
27.93
28.18
28.77
29.78
31.03
32.22
33.05
33.33
33.12
32.62
32.07
31.59
31.12
30.35
28.88
26.37
22.72
18.17
13.24
8.58
4.71
1.84
-0.22
-1.93
-3.86
-6.39
-9.67
-13.55
-17.70
-21.79
-25.56
-28.96
-32.11
-35.37
-39.20
-44.08
-50.34
-57.88
-66.00
-73.35
-78.20
-78.89
-74.45
-64.96
-51.61
-36.36
-21.26
-7.93
2.85
11.06
17.20
21.89
25.60
28.55
30.86
32.65
34.11
35.48
36.93
38.48
39.98
41.20
41.89
41.93
41.36
40.36
39.18
37.97
36.77
35.45
33.75
31.37
28.12
24.03
19.38
14.69
10.49
7.12
4.60
2.55
0.38
-2.44
-6.16
-10.62
-15.37
-19.89
-23.79
-26.96
-29.63
-32.23
-35.24
-39.15
-44.29
-50.71
-58.03
-65.33
-71.22
-74.12
-72.69
-66.40
-55.68
-41.95
-27.11
-13.05
-1.09
8.21
14.98
19.73
23.03
25.27
26.68
27.42
27.74
27.98
28.55
29.67
31.29
33.04
34.41
35.04
34.85
34.18
33.51
33.22
33.31
33.38
32.79
30.99
27.79
23.46
18.61
13.94
9.97
6.83
4.29
1.87
-0.92
-4.40
-8.55
-13.08
-17.57
-21.59
-24.99
-27.89
-30.71
-34.02
-38.44
-44.35
-51.72
-59.91
-67.59
-73.00
-74.48
-70.96
-62.46
-50.11
-35.77
-21.34
-8.30
2.58
11.19
17.71
22.49
25.87
28.15
29.67
30.75
31.66
32.59
33.63
34.82
36.13
37.45
38.61
39.40
39.68
39.39
38.65
37.67
36.61
35.49
34.12
32.25
29.59
26.06
21.79
17.14
12.64
8.77
5.80
3.65
1.93
-0.01
-2.72
-6.46
-11.08
-16.06
-20.78
-24.83
-28.17
-31.18
-34.53
-38.85
-44.61
-51.88
-60.29
-68.99
-76.63
-81.63
-82.44
-78.13
-68.73
-55.34
-39.88
-24.48
-10.86
0.08
8.28
14.26
18.71
22.19
24.97
27.17
28.90
30.35
31.76
33.38
35.29
37.31
39.13
40.37
40.80
40.46
39.73
39.05
38.72
38.68
38.49
37.47
35.10
31.26
26.35
21.11
16.34
12.47
9.52
7.09
4.60
1.57
-2.16
-6.45
-10.93
-15.18
-18.97
-22.32
-25.50
-28.97
-33.24
-38.72
-45.53
-53.31
-61.07
-67.35
-70.46
-69.01
-62.43
-51.32
-37.22
-22.22
-8.24
3.47
12.53
19.26
24.29
28.22
31.38
33.87
35.65
36.72
37.21
37.40
37.63
38.15
39.04
40.18
41.30
42.12
42.50
42.41
41.89
40.95
39.47
37.28
34.21
30.29
25.74
21.03
16.60
12.81
9.69
6.97
4.19
0.91
-3.12
-7.80
-12.77
-17.57
-21.84
-25.52
-28.81
-32.13
-36.02
-40.98
-47.32
-55.07
-63.69
-72.01
-78.32
-80.76
-77.96
-69.57
-56.54
-40.89
-25.00
-10.92
0.26
8.45
14.30
18.73
22.44
25.79
28.76
31.24
33.18
34.64
35.83
36.95
38.11
39.31
40.44
41.33
41.89
42.05
41.83
41.24
40.29
38.90
37.00
34.52
31.47
27.95
24.16
20.30
16.60
13.19
10.13
7.40
4.85
2.31
-0.45
-3.61
-7.25
-11.29
-15.51
-19.66
-23.51
-27.06
-30.53
-34.33
-38.96
-44.80
-51.92
-59.89
-67.69
-73.81
-76.64
-74.91
-68.19
-57.10
-43.20
-28.48
-14.78
-3.30
5.59
12.18
17.07
20.78
23.66
25.87
27.51
28.78
29.92
31.19
32.73
34.54
36.46
38.26
39.70
40.66
41.10
41.10
40.79
40.21
39.32
37.96
35.93
33.13
29.62
25.65
21.65
17.98
14.85
12.24
9.90
7.51
4.76
1.49
-2.30
-6.45
-10.65
-14.63
-18.17
-21.26
-24.15
-27.35
-31.44
-36.86
-43.64
-51.30
-58.79
-64.73
-67.69
-66.60
-61.03
-51.44
-39.05
-25.54
-12.58
-1.40
7.43
14.01
18.87
22.59
25.59
28.04
29.93
31.27
32.19
32.87
33.58
34.49
35.65
36.99
38.37
39.59
40.48
40.91
40.80
40.09
38.76
36.80
34.30
31.43
28.39
25.38
22.56
19.95
17.42
14.83
12.09
9.20
6.30
3.55
1.00
-1.43
-3.98
-6.92
-10.41
-14.45
-18.82
-23.18
-27.17
-30.61
-33.53
-36.27
-39.30
-43.19
-48.36
-54.88
-62.30
-69.56
-75.11
-77.28
-74.89
-67.65
-56.42
-42.90
-29.09
-16.65
-6.51
1.25
7.07
11.55
15.20
18.28
20.86
22.95
24.60
25.92
27.06
28.17
29.38
30.72
32.11
33.36
34.28
34.71
34.64
34.12
33.24
32.06
30.59
28.77
26.54
23.86
20.77
17.34
13.79
10.41
7.49
5.29
3.88
3.11
2.65
2.02
0.87
-0.99
-3.51
-6.43
-9.44
-12.32
-15.04
-17.72
-20.65
-24.17
-28.59
-34.08
-40.53
-47.40
-53.67
-57.96
-58.88
-55.53
-47.89
-36.91
-24.24
-11.67
-0.63
8.15
14.63
19.17
22.17
23.99
24.84
24.95
24.69
24.44
24.55
25.20
26.37
27.85
29.40
30.79
31.87
32.58
32.89
32.78
32.22
31.16
29.60
27.57
25.13
22.39
19.47
16.51
13.63
10.94
8.49
6.27
4.17
2.10
-0.06
-2.39
-4.84
-7.33
-9.78
-12.21
-14.69
-17.39
-20.37
-23.61
-26.99
-30.43
-34.02
-38.05
-42.90
-48.71
-55.08
-60.88
-64.54
-64.47
-59.75
-50.48
-37.81
-23.59
-9.77
2.14
11.34
17.81
22.03
24.72
26.56
28.07
29.50
30.90
32.15
33.08
33.61
33.71
33.47
32.92
32.09
30.96
29.55
27.95
26.36
24.91
23.64
22.40
20.88
18.77
15.88
12.27
8.23
4.18
0.54
-2.47
-4.83
-6.78
-8.69
-10.89
-13.52
-16.53
-19.69
-22.69
-25.36
-27.70
-29.85
-32.08
-34.61
-37.65
-41.41
-46.04
-51.49
-57.38
-62.81
-66.48
-66.95
-63.27
-55.26
-43.77
-30.40
-17.00
-5.13
4.30
11.11
15.66
18.54
20.32
21.46
22.24
22.87
23.49
24.26
25.25
26.45
27.72
28.85
29.61
29.89
29.75
29.36
28.97
28.68
28.43
27.92
26.79
24.72
21.60
17.57
13.06
8.55
4.53
1.26
-1.27
-3.35
-5.42
-7.85
-10.86
-14.35
-18.05
-21.64
-24.93
-27.95
-30.93
-34.18
-38.03
-42.68
-48.23
-54.47
-60.83
-66.30
-69.55
-69.31
-64.78
-56.03
-44.06
-30.53
-17.18
-5.41
4.10
11.31
16.62
20.50
23.28
25.18
26.32
26.91
27.29
27.82
28.77
30.17
31.81
33.33
34.38
34.78
34.59
34.03
33.38
32.83
32.34
31.65
30.43
28.29
25.10
20.98
16.35
11.81
7.88
4.82
2.48
0.46
-1.76
-4.55
-7.94
-11.68
-15.36
-18.65
-21.43
-23.86
-26.24
-29.00
-32.51
-37.04
-42.67
-49.27
-56.29
-62.71
-67.13
-68.10
-64.63
-56.57
-44.84
-31.12
-17.31
-5.02
4.88
12.25
17.45
20.97
23.24
24.59
25.27
25.57
25.81
26.23
26.94
27.90
28.94
29.92
30.75
31.42
31.97
32.37
32.50
32.15
31.09
29.15
26.34
22.87
19.05
15.20
11.55
8.16
4.91
1.62
-1.87
-5.62
-9.53
-13.41
-17.07
-20.39
-23.41
-26.35
-29.62
-33.71
-39.05
-45.70
-53.15
-60.23
-65.26
-66.54
-62.96
-54.46
-42.17
-28.04
-14.20
-2.28
7.03
13.87
18.89
22.76
25.87
28.29
30.00
31.04
31.66
32.21
32.92
33.87
34.93
35.97
36.91
37.78
38.62
39.34
39.68
39.34
38.11
36.04
33.47
30.76
28.12
25.47
22.54
19.05
14.99
10.65
6.48
2.91
0.01
-2.42
-4.84
-7.66
-11.06
-14.96
-19.14
-23.35
-27.48
-31.52
-35.58
-39.83
-44.54
-50.01
-56.47
-63.78
-71.14
-77.07
-79.74
-77.54
-69.84
-57.28
-41.67
-25.35
-10.41
1.87
11.17
17.92
22.86
26.62
29.64
32.13
34.17
35.76
36.94
37.81
38.57
39.45
40.63
42.13
43.75
45.16
45.95
45.89
44.92
43.20
40.97
38.40
35.53
32.26
28.46
24.07
19.17
14.04
9.10
4.75
1.31
-1.24
-3.21
-5.12
-7.51
-10.64
-14.48
-18.67
-22.77
-26.46
-29.67
-32.64
-35.82
-39.76
-44.93
-51.49
-59.10
-66.80
-73.08
-76.19
-74.70
-68.01
-56.58
-41.91
-26.08
-11.10
1.56
11.29
18.26
23.09
26.54
29.17
31.26
32.84
33.92
34.57
35.03
35.60
36.52
37.80
39.23
40.49
41.26
41.44
41.15
40.60
39.95
39.16
37.98
36.03
33.04
28.96
24.10
19.06
14.48
10.82
8.15
6.12
4.07
1.40
-2.26
-6.85
-11.99
-17.16
-21.93
-26.14
-29.92
-33.58
-37.59
-42.43
-48.44
-55.69
-63.74
-71.48
-77.32
-79.50
-76.69
-68.47
-55.64
-39.94
-23.60
-8.64
3.65
12.87
19.39
23.88
27.02
29.32
31.06
32.49
33.82
35.26
36.94
38.81
40.70
42.41
43.74
44.64
45.09
45.15
44.84
44.17
43.19
41.95
40.45
38.67
36.49
33.78
30.45
26.57
22.34
18.01
13.82
9.89
6.22
2.68
-0.88
-4.57
-8.48
-12.60
-16.83
-21.09
-25.25
-29.23
-33.06
-36.85
-40.84
-45.38
-50.85
-57.45
-64.95
-72.49
-78.59
-81.49
-79.68
-72.52
-60.54
-45.41
-29.33
-14.39
-2.00
7.35
13.98
18.62
22.01
24.67
26.85
28.63
30.06
31.27
32.44
33.72
35.15
36.65
38.03
39.10
39.80
40.13
40.16
39.91
39.24
37.93
35.73
32.51
28.35
23.60
18.74
14.24
10.39
7.15
4.15
0.94
-2.79
-7.04
-11.45
-15.48
-18.75
-21.20
-23.13
-25.08
-27.69
-31.48
-36.72
-43.41
-51.03
-58.54
-64.39
-66.95
-64.91
-57.93
-46.71
-32.92
-18.59
-5.55
5.06
12.92
18.34
21.95
24.33
25.92
26.94
27.52
27.82
28.08
28.59
29.58
31.08
32.89
34.66
36.05
36.87
37.18
37.15
36.97
36.67
36.01
34.62
32.18
28.58
24.07
19.14
14.44
10.42
7.27
4.73
2.30
-0.60
-4.31
-8.79
-13.64
-18.30
-22.30
-25.47
-28.02
-30.46
-33.41
-37.40
-42.77
-49.49
-57.15
-64.84
-71.24
-74.83
-74.25
-68.80
-58.69
-45.11
-29.91
-15.08
-2.20
7.91
15.24
20.29
23.83
26.46
28.54
30.21
31.50
32.47
33.24
33.99
34.86
35.84
36.83
37.66
38.25
38.61
38.84
39.03
39.11
38.89
38.06
36.41
33.85
30.51
26.64
22.59
18.64
15.00
11.75
8.87
6.22
3.59
0.73
-2.58
-6.42
-10.71
-15.24
-19.70
-23.87
-27.62
-31.04
-34.40
-38.12
-42.69
-48.44
-55.41
-63.08
-70.39
-75.85
-77.93
-75.50
-68.26
-56.83
-42.70
-27.77
-13.84
-2.22
6.56
12.68
16.77
19.63
21.91
23.96
25.89
27.66
29.25
30.72
32.20
33.78
35.41
36.91
38.07
38.74
38.92
38.74
38.33
37.74
36.82
35.28
32.85
29.41
25.16
20.59
16.31
12.82
10.27
8.31
6.34
3.68
-0.02
-4.60
-9.50
-14.00
-17.60
-20.23
-22.32
-24.55
-27.64
-32.12
-38.16
-45.50
-53.31
-60.26
-64.72
-65.21
-60.89
-51.97
-39.70
-25.95
-12.60
-0.98
8.30
15.34
20.57
24.43
27.26
29.27
30.69
31.75
32.67
33.59
34.55
35.47
36.28
36.92
37.41
37.79
38.12
38.38
38.54
38.45
37.97
36.91
35.20
32.84
29.92
26.65
23.20
19.75
16.36
13.07
9.86
6.77
3.83
1.08
-1.47
-3.92
-6.45
-9.29
-12.60
-16.44
-20.72
-25.19
-29.56
-33.58
-37.17
-40.51
-44.02
-48.28
-53.82
-60.77
-68.61
-76.06
-81.28
-82.41
-78.23
-68.62
-54.73
-38.56
-22.39
-8.04
3.43
11.86
17.64
21.48
24.07
25.94
27.49
28.98
30.61
32.45
34.46
36.45
38.21
39.47
40.10
40.18
39.91
39.60
39.47
39.49
39.35
38.62
36.96
34.32
30.98
27.41
24.03
21.04
18.37
15.77
13.10
10.35
7.70
5.31
3.20
1.14
-1.23
-4.20
-7.88
-12.05
-16.34
-20.33
-23.77
-26.72
-29.49
-32.61
-36.64
-42.02
-48.81
-56.57
-64.16
-69.97
-72.25
-69.68
-61.88
-49.64
-34.71
-19.24
-5.23
6.04
14.09
19.15
21.93
23.31
24.11
24.89
25.95
27.23
28.56
29.76
30.77
31.68
32.56
33.44
34.17
34.61
34.65
34.35
33.85
33.24
32.52
31.55
30.12
28.05
25.23
21.68
17.60
13.31
9.23
5.76
3.09
1.06
-0.78
-2.98
-5.99
-9.93
-14.54
-19.33
-23.80
-27.67
-30.92
-33.82
-36.78
-40.29
-44.76
-50.42
-57.14
-64.21
-70.36
-73.92
-73.27
-67.46
-56.65
-42.19
-26.20
-10.96
1.83
11.37
17.82
21.90
24.49
26.35
27.88
29.25
30.45
31.44
32.25
32.98
33.76
34.67
35.67
36.60
37.23
37.35
36.92
36.10
35.13
34.20
33.32
32.29
30.77
28.48
25.36
21.55
17.44
13.41
9.81
6.77
4.23
2.00
-0.18
-2.49
-5.04
-7.86
-10.94
-14.23
-17.66
-21.10
-24.36
-27.29
-29.91
-32.51
-35.63
-39.87
-45.47
-52.00
-58.22
-62.33
-62.49
-57.51
-47.35
-33.11
-16.77
-0.47
14.01
25.69
34.42
40.64
45.05
48.33
50.93
53.09
54.91
56.35
57.39
57.88
57.59
56.23
53.52
49.31
43.74
37.24
30.40
23.88
18.10
13.17
8.86
4.74
0.38
-4.48
-9.79
-15.30
-20.55
-25.16
-28.91
-31.76
-33.89
-35.50
-36.75
-37.68
-38.27
-38.50
-38.49
-38.51
-38.89
-39.99
-42.09
-45.39
-49.99
-55.83
-62.56
-69.38
-74.95
-77.62
-75.92
-69.06
-57.36
-42.24
-25.82
-10.21
3.04
13.27
20.65
25.78
29.35
31.88
33.62
34.63
35.02
34.95
34.71
34.64
34.94
35.60
36.40
37.06
37.34
37.21
36.79
36.29
35.79
35.14
33.96
31.82
28.49
24.07
19.02
13.98
9.51
5.88
3.02
0.57
-1.93
-4.79
-8.15
-11.88
-15.70
-19.35
-22.65
-25.61
-28.39
-31.25
-34.53
-38.58
-43.73
-50.18
-57.79
-65.88
-73.13
-77.80
-78.21
-73.31
-63.17
-49.00
-32.77
-16.62
-2.27
9.29
17.82
23.55
27.00
28.76
29.47
29.69
29.92
30.46
31.38
32.56
33.71
34.53
34.82
34.60
34.07
33.54
33.30
33.42
33.67
33.57
32.58
30.34
26.82
22.38
17.61
13.14
9.41
6.47
4.02
1.56
-1.39
-5.06
-9.31
-13.73
-17.84
-21.34
-24.26
-26.97
-30.03
-34.02
-39.30
-45.84
-52.98
-59.50
-63.76
-64.15
-59.67
-50.35
-37.31
-22.43
-7.76
5.11
15.34
22.91
28.22
31.85
34.28
35.83
36.75
37.26
37.62
38.08
38.84
40.00
41.59
43.52
45.68
47.94
50.20
52.27
53.92
54.76
54.38
52.40
48.75
43.68
37.78
31.80
26.46
22.22
19.11
16.83
14.85
12.59
9.72
6.18
2.16
-2.12
-6.58
-11.44
-17.12
-24.18
-33.08
-44.08
-57.13
-71.69
-86.67
-100.36
-110.73
-115.77
-114.22
-105.96
-92.15
-74.88
-56.53
-39.16
-24.09
-11.88
-2.49
4.41
9.34
12.87
15.59
18.08
20.76
23.78
26.94
29.85
32.01
33.13
33.27
32.78
32.15
31.75
31.71
31.86
31.91
31.51
30.44
28.60
25.98
22.65
18.82
14.79
10.92
7.45
4.46
1.75
-0.95
-3.90
-7.17
-10.60
-13.99
-17.20
-20.21
-23.24
-26.55
-30.42
-35.13
-40.90
-47.84
-55.74
-63.90
-70.99
-75.26
-75.09
-69.56
-58.91
-44.57
-28.69
-13.39
-0.15
10.45
18.54
24.51
28.73
31.38
32.61
32.74
32.32
31.95
32.07
32.80
33.95
35.17
36.19
36.94
37.49
37.99
38.46
38.77
38.60
37.63
35.58
32.45
28.47
24.10
19.79
15.78
12.02
8.19
3.94
-0.87
-5.99
-10.97
-15.28
-18.67
-21.29
-23.65
-26.50
-30.51
-36.13
-43.30
-51.33
-58.86
-64.14
-65.44
-61.65
-52.71
-39.71
-24.60
-9.55
3.67
14.07
21.55
26.59
29.92
32.12
33.56
34.38
34.65
34.49
34.17
34.01
34.26
35.05
36.23
37.53
38.61
39.26
39.36
38.90
37.93
36.50
34.67
32.49
29.99
27.12
23.82
19.96
15.57
10.88
6.30
2.34
-0.70
-2.91
-4.77
-6.95
-10.05
-14.25
-19.24
-24.42
-29.20
-33.25
-36.66
-39.88
-43.54
-48.25
-54.40
-61.99
-70.42
-78.37
-84.02
-85.41
-81.11
-70.84
-55.64
-37.71
-19.64
-3.66
8.94
17.97
24.05
28.06
30.82
32.82
34.28
35.29
35.96
36.48
37.10
38.01
39.28
40.79
42.26
43.42
44.04
44.06
43.56
42.69
41.55
40.08
38.12
35.43
31.89
27.55
22.70
17.76
13.22
9.39
6.33
3.77
1.22
-1.81
-5.64
-10.19
-15.08
-19.76
-23.79
-27.05
-29.78
-32.55
-35.95
-40.54
-46.53
-53.81
-61.75
-69.20
-74.61
-76.35
-73.18
-64.72
-51.70
-35.86
-19.41
-4.40
7.82
16.88
23.19
27.50
30.54
32.70
34.12
34.80
34.90
34.71
34.64
35.04
35.99
37.33
38.68
39.76
40.39
40.63
40.67
40.64
40.47
39.88
38.43
35.73
31.62
26.32
20.39
14.57
9.59
5.83
3.25
1.35
-0.57
-3.12
-6.66
-11.13
-16.14
-21.12
-25.60
-29.32
-32.39
-35.27
-38.65
-43.24
-49.52
-57.47
-66.36
-74.76
-80.79
-82.62
-79.00
-69.74
-55.79
-39.02
-21.69
-5.83
7.25
17.07
23.85
28.17
30.72
32.06
32.67
32.93
33.23
33.85
34.97
36.56
38.41
40.23
41.69
42.57
42.79
42.39
41.50
40.32
38.94
37.38
35.47
32.98
29.72
25.72
21.21
16.65
12.46
8.91
5.94
3.20
0.27
-3.18
-7.19
-11.54
-15.86
-19.88
-23.54
-26.96
-30.44
-34.23
-38.48
-43.35
-48.99
-55.46
-62.59
-69.66
-75.35
-77.95
-75.94
-68.60
-56.39
-40.94
-24.49
-9.15
3.62
13.34
20.27
25.03
28.24
30.31
31.46
31.81
31.54
30.93
30.32
30.07
30.41
31.35
32.73
34.23
35.53
36.36
36.59
36.16
35.06
33.23
30.62
27.25
23.28
18.95
14.54
10.24
6.08
2.02
-1.99
-5.91
-9.66
-13.21
-16.60
-19.99
-23.55
-27.49
-32.03
-37.39
-43.63
-50.42
-56.88
-61.55
-62.79
-59.41
-51.17
-38.99
-24.68
-10.33
2.38
12.55
20.10
25.48
29.24
31.76
33.21
33.62
33.16
32.21
31.33
31.07
31.71
33.09
34.73
36.06
36.70
36.65
36.21
35.67
35.09
34.25
32.71
30.14
26.46
22.00
17.27
12.78
8.80
5.30
1.91
-1.79
-6.07
-10.89
-15.85
-20.38
-23.99
-26.58
-28.51
-30.47
-33.27
-37.54
-43.58
-51.24
-59.87
-68.30
-74.98
-78.18
-76.54
-69.46
-57.49
-42.20
-25.78
-10.39
2.45
12.10
18.74
23.05
25.83
27.73
29.15
30.35
31.47
32.61
33.84
35.15
36.40
37.38
37.84
37.71
37.10
36.33
35.71
35.40
35.25
34.82
33.61
31.24
27.65
23.17
18.42
14.08
10.62
8.12
6.18
4.15
1.43
-2.26
-6.74
-11.47
-15.80
-19.30
-21.99
-24.26
-26.75
-30.11
-34.77
-40.83
-47.89
-55.04
-60.92
-63.93
-62.74
-56.73
-46.25
-32.58
-17.54
-2.99
9.71
19.86
27.42
32.74
36.29
38.52
39.76
40.31
40.48
40.60
40.92
41.65
42.75
44.05
45.26
46.15
46.65
46.85
46.93
46.93
46.64
45.59
43.23
39.17
33.37
26.19
18.25
10.25
2.73
-4.11
-10.35
-16.33
-22.39
-28.71
-35.19
-41.38
-46.63
-50.35
-52.26
-52.54
-51.85
-51.15
-51.40
-53.35
-57.34
-63.16
-69.91
-76.07
-79.76
-79.20
-73.38
-62.50
-48.00
-32.13
-17.21
-4.84
4.41
10.93
15.63
19.39
22.74
25.84
28.57
30.79
32.45
33.68
34.68
35.69
36.79
37.98
39.12
40.04
40.61
40.77
40.52
39.89
38.88
37.41
35.37
32.68
29.34
25.48
21.34
17.22
13.40
10.05
7.22
4.81
2.62
0.39
-2.13
-5.08
-8.49
-12.18
-15.91
-19.41
-22.61
-25.61
-28.73
-32.37
-36.93
-42.66
-49.53
-57.10
-64.37
-69.90
-72.07
-69.57
-61.91
-49.72
-34.73
-19.21
-5.30
5.63
13.24
18.09
21.15
23.34
25.23
26.97
28.50
29.74
30.78
31.81
32.98
34.31
35.65
36.72
37.33
37.42
37.11
36.58
35.99
35.31
34.36
32.86
30.55
27.32
23.30
18.76
14.15
9.90
6.33
3.54
1.39
-0.47
-2.52
-5.13
-8.47
-12.34
-16.39
-20.17
-23.47
-26.37
-29.29
-32.84
-37.52
-43.55
-50.57
-57.65
-63.32
-65.97
-64.27
-57.75
-46.94
-33.32
-18.82
-5.23
6.20
15.00
21.23
25.31
27.71
28.90
29.34
29.45
29.55
29.84
30.33
30.95
31.61
32.22
32.79
33.34
33.83
34.22
34.36
34.08
33.17
31.51
29.06
26.02
22.73
19.58
16.82
14.52
12.49
10.48
8.26
5.78
3.12
0.45
-2.13
-4.61
-7.13
-9.86
-12.94
-16.40
-20.13
-23.94
-27.65
-31.19
-34.62
-38.17
-42.19
-47.04
-52.92
-59.63
-66.42
-71.94
-74.55
-72.74
-65.78
-54.05
-39.12
-23.20
-8.51
3.46
12.23
18.21
22.25
25.13
27.35
29.04
30.24
31.01
31.53
32.05
32.73
33.62
34.63
35.58
36.31
36.71
36.77
36.56
36.15
35.53
34.64
33.29
31.36
28.72
25.44
21.70
17.82
14.11
10.81
8.01
5.62
3.36
0.90
-2.01
-5.46
-9.30
-13.20
-16.84
-20.05
-22.86
-25.48
-28.22
-31.35
-35.12
-39.81
-45.56
-52.29
-59.34
-65.47
-69.00
-68.34
-62.61
-52.04
-37.99
-22.50
-7.70
4.80
14.24
20.67
24.66
26.98
28.26
28.91
29.19
29.26
29.31
29.52
30.02
30.85
31.89
32.97
33.95
34.78
35.44
35.95
36.20
36.02
35.18
33.47
30.78
27.12
22.70
17.85
13.04
8.71
5.11
2.25
-0.20
-2.66
-5.57
-9.10
-13.22
-17.61
-21.89
-25.72
-28.93
-31.59
-33.96
-36.48
-39.72
-44.19
-50.24
-57.70
-65.86
-73.35
-78.43
-79.41
-75.17
-65.58
-51.66
-35.33
-18.80
-4.00
7.88
16.55
22.37
26.02
28.24
29.55
30.32
30.78
31.11
31.48
32.02
32.78
33.74
34.79
35.78
36.57
37.04
37.13
36.82
36.13
35.12
33.81
32.19
30.16
27.61
24.50
20.87
16.92
12.97
9.32
6.17
3.48
1.00
-1.59
-4.58
-8.07
-11.94
-15.96
-19.91
-23.70
-27.30
-30.78
-34.22
-37.74
-41.59
-46.14
-51.79
-58.63
-66.15
-73.09
-77.62
-77.86
-72.62
-61.88
-46.90
-29.85
-13.09
1.46
12.78
20.75
25.84
28.78
30.17
30.52
30.21
29.66
29.32
29.54
30.40
31.69
32.95
33.75
33.90
33.56
33.11
32.90
32.92
32.82
32.00
29.99
26.68
22.44
17.89
13.65
10.01
6.87
3.85
0.50
-3.40
-7.75
-12.21
-16.40
-20.02
-23.08
-25.79
-28.62
-32.13
-36.82
-42.98
-50.41
-58.32
-65.26
-69.51
-69.48
-64.36
-54.39
-40.91
-25.89
-11.37
1.16
10.97
18.11
23.09
26.51
28.84
30.29
30.95
30.95
30.58
30.26
30.37
31.12
32.41
33.87
35.10
35.83
36.09
36.10
36.09
36.09
35.89
35.06
33.23
30.23
26.15
21.36
16.33
11.55
7.36
3.88
0.95
-1.75
-4.56
-7.74
-11.29
-15.03
-18.70
-22.09
-25.23
-28.31
-31.65
-35.68
-40.76
-47.15
-54.81
-63.15
-70.93
-76.32
-77.40
-72.75
-62.12
-46.60
-28.35
-9.94
6.48
19.67
29.39
36.14
40.62
43.45
45.00
45.50
45.18
44.31
43.23
42.14
41.12
40.02
38.65
36.88
34.77
32.57
30.51
28.70
26.97
24.91
22.02
17.98
12.81
6.87
0.80
-4.71
-9.08
-12.04
-13.62
-14.19
-14.32
-14.61
-15.53
-17.25
-19.66
-22.46
-25.29
-27.95
-30.47
-33.09
-36.21
-40.29
-45.77
-52.84
-61.22
-69.97
-77.42
-81.55
-80.62
-73.82
-61.67
-45.85
-28.66
-12.29
1.78
12.97
21.39
27.47
31.67
34.33
35.70
36.11
36.02
35.97
36.40
37.52
39.19
41.04
42.60
43.58
43.93
43.85
43.62
43.44
43.20
42.53
40.93
38.03
33.77
28.51
22.92
17.71
13.37
9.94
7.08
4.19
0.76
-3.43
-8.20
-13.07
-17.49
-21.05
-23.68
-25.67
-27.64
-30.32
-34.47
-40.55
-48.54
-57.69
-66.56
-73.23
-75.75
-72.79
-64.12
-50.79
-34.77
-18.38
-3.61
8.43
17.48
23.95
28.50
31.69
33.88
35.28
36.13
36.74
37.48
38.62
40.23
42.15
44.08
45.73
46.98
47.83
48.43
48.88
49.13
48.97
48.11
46.33
43.60
40.12
36.25
32.36
28.71
25.39
22.27
19.23
16.20
13.25
10.56
8.20
5.99
3.55
0.39
-3.80
-8.99
-14.77
-20.55
-25.79
-30.25
-34.05
-37.61
-41.44
-46.08
-51.89
-59.03
-67.25
-75.76
-83.19
-87.78
-87.84
-82.29
-71.25
-56.00
-38.76
-21.95
-7.47
3.72
11.67
17.05
20.74
23.39
25.39
26.95
28.27
29.66
31.43
33.78
36.60
39.49
41.94
43.53
44.15
44.01
43.50
43.02
42.75
42.59
42.18
41.06
38.87
35.53
31.30
26.69
22.30
18.58
15.63
13.19
10.76
7.87
4.32
0.29
-3.82
-7.56
-10.70
-13.43
-16.20
-19.69
-24.49
-30.96
-39.12
-48.50
-58.12
-66.51
-71.98
-72.99
-68.70
-59.30
-46.08
-31.02
-16.23
-3.27
7.16
15.08
21.02
25.50
28.86
31.22
32.65
33.28
33.39
33.36
33.49
34.01
34.99
36.29
37.72
38.97
39.80
40.09
39.91
39.40
38.69
37.74
36.32
34.12
30.92
26.77
22.05
17.35
13.23
9.96
7.44
5.23
2.81
-0.21
-3.92
-8.05
-12.14
-15.70
-18.50
-20.58
-22.36
-24.45
-27.60
-32.48
-39.46
-48.38
-58.31
-67.61
-74.20
-76.22
-72.63
-63.61
-50.57
-35.62
-20.89
-7.94
2.44
10.18
15.62
19.19
21.31
22.38
22.80
22.98
23.30
23.97
25.07
26.52
28.12
29.69
31.04
32.07
32.71
32.94
32.78
32.24
31.23
29.64
27.38
24.41
20.87
17.02
13.25
9.85
7.03
4.70
2.57
0.28
-2.53
-5.96
-9.86
-13.89
-17.68
-20.92
-23.63
-26.03
-28.55
-31.76
-36.16
-42.05
-49.26
-57.05
-64.01
-68.35
-68.39
-63.21
-52.95
-38.88
-23.01
-7.43
6.21
17.02
24.82
29.99
33.15
35.02
36.23
37.29
38.46
39.84
41.33
42.78
44.07
45.09
45.88
46.46
46.91
47.27
47.55
47.65
47.37
46.47
44.77
42.30
39.36
36.49
34.19
32.64
31.41
29.46
25.54
18.69
8.74
-3.46
-16.37
-28.32
-38.16
-45.66
-51.44
-56.56
-62.11
-68.88
-77.23
-87.08
-97.76
-108.05
-116.10
-119.88
-117.63
-108.59
-93.35
-73.71
-52.18
-31.22
-12.68
2.52
14.23
22.81
28.75
32.51
34.49
35.02
34.52
33.46
32.34
31.59
31.46
31.94
32.76
33.60
34.18
34.47
34.59
34.73
34.92
34.96
34.42
32.84
29.98
25.96
21.30
16.65
12.62
9.45
7.01
4.80
2.28
-0.96
-4.99
-9.54
-14.20
-18.58
-22.47
-25.92
-29.12
-32.34
-35.87
-40.03
-45.15
-51.40
-58.62
-66.04
-72.25
-75.51
-74.30
-67.91
-56.82
-42.56
-27.21
-12.74
-0.48
9.10
16.22
21.40
25.23
28.04
30.03
31.31
32.05
32.50
32.96
33.63
34.57
35.64
36.65
37.43
37.99
38.41
38.80
39.12
39.06
38.18
36.09
32.66
28.17
23.22
18.45
14.35
10.95
7.90
4.65
0.73
-3.93
-8.99
-13.82
-17.84
-20.77
-22.75
-24.35
-26.30
-29.34
-33.99
-40.33
-47.88
-55.54
-61.64
-64.40
-62.39
-55.09
-43.26
-28.67
-13.61
-0.11
10.54
18.10
23.05
26.23
28.41
30.01
31.19
31.94
32.33
32.49
32.64
32.90
33.24
33.50
33.50
33.20
32.73
32.33
32.16
32.12
31.89
31.01
29.13
26.10
22.12
17.58
12.96
8.68
4.98
1.88
-0.82
-3.47
-6.42
-9.87
-13.78
-17.91
-21.93
-25.57
-28.80
-31.79
-34.90
-38.63
-43.41
-49.53
-56.86
-64.69
-71.71
-76.22
-76.58
-71.83
-62.06
-48.40
-32.73
-17.03
-2.93
8.63
17.35
23.40
27.20
29.28
30.24
30.60
30.85
31.26
31.93
32.79
33.68
34.45
35.03
35.43
35.72
35.91
36.00
35.87
35.39
34.38
32.68
30.23
27.06
23.30
19.22
15.08
11.14
7.53
4.25
1.14
-1.95
-5.19
-8.63
-12.20
-15.78
-19.22
-22.47
-25.62
-28.92
-32.75
-37.59
-43.81
-51.30
-59.29
-66.27
-70.34
-69.78
-63.79
-52.81
-38.46
-22.94
-8.36
3.89
13.31
20.06
24.63
27.56
29.26
30.08
30.38
30.49
30.67
31.03
31.52
31.98
32.27
32.31
32.16
31.97
31.86
31.88
31.93
31.75
31.00
29.36
26.67
23.01
18.68
14.07
9.54
5.32
1.38
-2.40
-6.20
-10.09
-13.99
-17.72
-21.12
-24.20
-27.16
-30.46
-34.61
-40.08
-46.96
-54.84
-62.64
-68.80
-71.58
-69.65
-62.53
-50.87
-36.32
-21.00
-6.91
4.61
13.16
19.13
23.29
26.38
28.84
30.76
32.09
32.79
33.03
33.16
33.53
34.38
35.65
37.03
38.11
38.59
38.35
37.56
36.46
35.24
33.91
32.26
30.03
27.03
23.31
19.14
15.00
11.30
8.27
5.78
3.41
0.62
-3.03
-7.61
-12.84
-18.14
-22.90
-26.77
-29.77
-32.29
-34.89
-38.18
-42.57
-48.28
-55.24
-62.97
-70.52
-76.38
-78.90
-76.65
-69.10
-56.84
-41.59
-25.55
-10.80
1.38
10.57
17.08
21.55
24.56
26.55
27.85
28.74
29.52
30.44
31.58
32.89
34.21
35.39
36.38
37.21
37.99
38.70
39.21
39.22
38.38
36.42
33.27
29.14
24.42
19.58
14.98
10.78
6.91
3.14
-0.73
-4.75
-8.80
-12.64
-16.07
-19.04
-21.81
-24.81
-28.62
-33.74
-40.32
-48.01
-55.76
-62.01
-65.03
-63.46
-56.80
-45.66
-31.59
-16.63
-2.68
9.02
18.07
24.75
29.69
33.48
36.43
38.58
39.81
40.09
39.54
38.56
37.58
36.95
36.74
36.78
36.78
36.52
35.96
35.21
34.38
33.37
31.90
29.53
25.97
21.28
15.94
10.70
6.32
3.22
1.27
-0.13
-1.80
-4.45
-8.37
-13.36
-18.85
-24.22
-28.97
-32.92
-36.24
-39.36
-42.97
-47.73
-54.10
-61.97
-70.48
-78.04
-82.70
-82.74
-77.27
-66.58
-52.07
-35.78
-19.82
-5.80
5.46
13.90
19.98
24.35
27.57
30.06
32.06
33.69
35.09
36.32
37.43
38.39
39.09
39.47
39.50
39.25
38.85
38.42
37.96
37.39
36.46
34.92
32.56
29.28
25.22
20.72
16.28
12.33
9.12
6.51
4.12
1.42
-1.97
-6.08
-10.62
-15.04
-18.89
-21.95
-24.39
-26.72
-29.59
-33.60
-39.13
-46.20
-54.31
-62.41
-68.97
-72.28
-70.92
-64.25
-52.75
-37.95
-22.06
-7.19
5.14
14.36
20.75
25.03
27.96
30.01
31.41
32.26
32.71
33.04
33.50
34.24
35.16
36.01
36.50
36.47
36.01
35.40
34.91
34.69
34.61
34.29
33.29
31.24
28.11
24.17
19.95
15.98
12.59
9.76
7.13
4.25
0.78
-3.34
-7.91
-12.57
-16.96
-20.82
-24.10
-26.90
-29.54
-32.53
-36.50
-42.04
-49.38
-58.17
-67.28
-74.92
-79.12
-78.33
-71.96
-60.63
-45.99
-30.15
-15.09
-2.14
8.13
15.85
21.53
25.75
29.00
31.57
33.61
35.19
36.41
37.40
38.33
39.33
40.43
41.55
42.53
43.20
43.47
43.34
42.86
42.02
40.82
39.19
37.08
34.46
31.30
27.59
23.36
18.78
14.17
9.91
6.32
3.42
0.95
-1.57
-4.55
-8.18
-12.31
-16.60
-20.68
-24.29
-27.45
-30.33
-33.28
-36.65
-40.81
-46.08
-52.60
-60.13
-67.86
-74.38
-78.01
-77.25
-71.34
-60.56
-46.26
-30.39
-14.98
-1.59
8.96
16.58
21.67
24.84
26.71
27.81
28.59
29.40
30.46
31.84
33.48
35.17
36.74
37.99
38.82
39.28
39.46
39.52
39.53
39.43
38.91
37.58
35.05
31.18
26.20
20.72
15.51
11.21
8.07
5.79
3.73
1.21
-2.18
-6.38
-10.94
-15.30
-19.04
-22.06
-24.61
-27.18
-30.38
-34.79
-40.76
-48.23
-56.43
-63.92
-68.74
-69.11
-63.96
-53.53
-39.28
-23.48
-8.42
4.25
13.85
20.61
25.18
28.29
30.44
31.84
32.58
32.80
32.78
32.85
33.28
34.11
35.20
36.27
37.01
37.24
36.94
36.19
35.12
33.84
32.36
30.63
28.52
25.87
22.55
18.53
13.94
9.10
4.41
0.28
-3.08
-5.68
-7.83
-9.97
-12.55
-15.84
-19.81
-24.17
-28.55
-32.60
-36.19
-39.49
-42.89
-46.94
-52.12
-58.66
-66.26
-73.98
-80.26
-83.26
-81.41
-74.05
-61.74
-46.13
-29.47
-13.84
-0.62
9.63
17.09
22.23
25.60
27.68
28.88
29.62
30.32
31.29
32.66
34.35
36.09
37.56
38.54
38.97
38.95
38.72
38.47
38.29
38.07
37.53
36.29
34.07
30.77
26.59
21.89
17.16
12.83
9.16
6.21
3.80
1.63
-0.66
-3.36
-6.59
-10.34
-14.42
-18.58
-22.61
-26.45
-30.21
-34.26
-39.07
-45.04
-52.25
-60.19
-67.68
-73.06
-74.60
-71.12
-62.45
-49.53
-34.23
-18.67
-4.66
6.76
15.39
21.58
25.90
28.83
30.68
31.64
31.93
31.82
31.71
31.94
32.70
33.93
35.36
36.65
37.52
37.87
37.78
37.43
36.88
36.04
34.67
32.49
29.39
25.51
21.18
16.85
12.87
9.37
6.25
3.24
-0.00
-3.69
-7.85
-12.32
-16.76
-20.86
-24.47
-27.65
-30.74
-34.22
-38.67
-44.58
-52.15
-60.99
-69.97
-77.28
-80.89
-79.15
-71.47
-58.58
-42.36
-25.24
-9.35
3.94
14.22
21.80
27.29
31.27
34.10
36.07
37.41
38.41
39.33
40.34
41.42
42.37
42.91
42.84
42.20
41.21
40.26
39.69
39.60
39.83
39.93
39.42
37.91
35.27
31.73
27.77
23.98
20.85
18.64
17.22
16.20
15.02
13.22
10.66
7.53
4.35
1.65
-0.26
-1.54
-2.84
-5.19
-9.66
-17.05
-27.67
-41.23
-56.78
-72.76
-87.16
-97.78
-102.77
-101.16
-93.17
-80.32
-64.95
-49.50
-35.87
-24.94
-16.59
-10.04
-4.38
1.11
6.73
12.44
17.97
23.05
27.40
30.83
33.13
34.23
34.13
33.06
31.40
29.61
28.02
26.64
25.25
23.45
21.00
17.86
14.32
10.79
7.64
5.01
2.75
0.54
-1.99
-5.04
-8.59
-12.37
-16.00
-19.20
-21.90
-24.43
-27.33
-31.28
-36.76
-43.84
-51.97
-59.96
-66.14
-68.79
-66.63
-59.25
-47.37
-32.59
-17.02
-2.53
9.58
18.88
25.57
30.20
33.32
35.32
36.49
37.05
37.30
37.60
38.23
39.33
40.75
42.18
43.22
43.65
43.43
42.69
41.65
40.44
39.04
37.30
35.05
32.14
28.55
24.35
19.73
15.00
10.49
6.47
3.01
-0.08
-3.21
-6.78
-10.98
-15.69
-20.50
-24.94
-28.71
-31.90
-34.90
-38.36
-42.93
-49.06
-56.77
-65.48
-73.89
-80.24
-82.64
-79.71
-71.10
-57.67
-41.33
-24.40
-8.92
3.87
13.64
20.80
26.04
30.00
33.07
35.39
37.00
38.03
38.67
39.19
39.78
40.51
41.29
41.93
42.31
42.38
42.23
41.91
41.39
40.46
38.82
36.20
32.51
27.92
22.86
17.92
13.65
10.37
8.02
6.15
4.07
1.22
-2.65
-7.31
-12.17
-16.62
-20.28
-23.17
-25.68
-28.35
-31.74
-36.24
-42.12
-49.28
-57.27
-65.04
-71.04
-73.54
-71.18
-63.49
-51.19
-35.98
-20.05
-5.41
6.71
15.94
22.61
27.34
30.69
32.94
34.21
34.61
34.41
34.05
34.03
34.66
35.96
37.64
39.29
40.56
41.31
41.62
41.60
41.29
40.49
38.88
36.13
32.18
27.25
21.91
16.87
12.73
9.67
7.41
5.27
2.43
-1.61
-6.87
-12.82
-18.66
-23.66
-27.50
-30.36
-32.87
-35.87
-40.14
-46.18
-53.97
-62.79
-71.27
-77.53
-79.68
-76.39
-67.46
-53.88
-37.68
-21.18
-6.34
5.72
14.87
21.58
26.59
30.42
33.34
35.38
36.57
37.16
37.51
38.03
38.99
40.33
41.76
42.89
43.38
43.13
42.30
41.18
40.12
39.24
38.44
37.33
35.43
32.35
28.05
22.88
17.52
12.69
8.83
5.95
3.66
1.34
-1.54
-5.21
-9.55
-14.23
-18.81
-22.96
-26.55
-29.67
-32.62
-35.87
-39.96
-45.40
-52.40
-60.64
-69.08
-75.99
-79.39
-77.66
-70.15
-57.52
-41.59
-24.67
-8.89
4.38
14.75
22.46
28.09
32.16
35.10
37.21
38.83
40.32
42.00
44.00
46.27
48.61
50.79
52.68
54.28
55.72
57.17
58.73
60.36
61.82
62.70
62.53
60.86
57.42
52.23
45.50
37.64
29.03
19.90
10.31
0.15
-10.62
-21.87
-33.19
-43.88
-53.22
-60.66
-66.19
-70.32
-74.08
-78.67
-84.87
-92.64
-100.83
-107.38
-109.98
-106.77
-97.07
-81.65
-62.44
-41.98
-22.61
-6.02
7.01
16.45
22.74
26.54
28.51
29.25
29.35
29.28
29.46
30.11
31.29
32.89
34.66
36.33
37.71
38.64
39.08
39.07
38.69
38.08
37.27
36.20
34.62
32.23
28.84
24.54
19.73
15.04
11.05
8.03
5.80
3.85
1.51
-1.71
-5.93
-10.84
-15.91
-20.58
-24.56
-27.94
-31.14
-34.74
-39.34
-45.30
-52.73
-61.24
-69.88
-77.21
-81.49
-81.17
-75.40
-64.46
-49.73
-33.30
-17.31
-3.41
7.60
15.71
21.44
25.47
28.41
30.67
32.42
33.78
34.78
35.52
36.14
36.79
37.54
38.32
38.96
39.28
39.25
39.01
38.75
38.55
38.23
37.38
35.49
32.32
27.97
22.98
18.06
13.84
10.57
8.05
5.71
2.96
-0.61
-4.98
-9.73
-14.25
-18.03
-20.85
-22.95
-24.95
-27.61
-31.65
-37.48
-44.99
-53.50
-61.74
-67.99
-70.59
-68.34
-60.93
-49.18
-34.79
-19.82
-6.08
5.28
13.98
20.30
24.81
28.05
30.35
31.86
32.72
33.11
33.32
33.69
34.46
35.62
36.93
37.97
38.39
38.05
37.07
35.78
34.50
33.36
32.18
30.59
28.17
24.73
20.40
15.60
10.88
6.67
3.09
-0.07
-3.25
-6.84
-10.98
-15.49
-19.95
-23.95
-27.32
-30.20
-33.02
-36.32
-40.61
-46.25
-53.23
-61.03
-68.53
-74.08
-75.85
-72.50
-63.63
-50.16
-34.05
-17.70
-3.19
8.34
16.80
22.81
27.27
30.81
33.65
35.75
36.97
37.39
37.33
37.23
37.47
38.15
39.09
39.89
40.21
39.89
39.08
38.06
37.06
36.10
34.93
33.13
30.40
26.71
22.34
17.81
13.65
10.15
7.31
4.82
2.23
-0.82
-4.47
-8.64
-13.08
-17.51
-21.69
-25.51
-28.98
-32.26
-35.62
-39.51
-44.41
-50.65
-58.12
-66.03
-72.94
-77.00
-76.52
-70.63
-59.59
-44.88
-28.69
-13.27
-0.27
9.60
16.47
21.01
23.95
25.84
26.97
27.52
27.71
27.84
28.20
28.98
30.08
31.29
32.40
33.31
34.06
34.69
35.14
35.15
34.38
32.59
29.79
26.21
22.25
18.27
14.43
10.72
6.96
2.99
-1.27
-5.76
-10.25
-14.45
-18.08
-21.03
-23.51
-25.99
-29.15
-33.60
-39.64
-46.97
-54.64
-61.11
-64.65
-63.80
-57.90
-47.35
-33.54
-18.47
-4.13
8.04
17.43
24.17
28.84
32.07
34.39
36.08
37.39
38.51
39.68
41.03
42.54
44.05
45.30
46.04
46.18
45.77
45.00
44.07
43.15
42.25
41.23
39.80
37.66
34.60
30.71
26.33
22.09
18.60
16.25
14.93
14.10
13.02
11.07
8.13
4.58
1.18
-1.36
-2.67
-2.90
-2.68
-2.94
-4.78
-9.26
-17.06
-28.16
-41.47
-54.89
-65.83
-72.09
-72.67
-68.26
-60.82
-52.81
-46.13
-41.70
-39.34
-38.30
-37.73
-36.98
-35.64
-33.38
-29.96
-25.12
-18.74
-10.84
-1.72
8.04
17.65
26.24
33.07
37.74
40.27
40.99
40.27
38.29
34.98
30.21
24.08
17.08
10.08
4.00
-0.53
-3.40
-5.02
-6.13
-7.41
-9.33
-11.99
-15.15
-18.41
-21.36
-23.80
-25.85
-27.94
-30.70
-34.76
-40.50
-47.88
-56.33
-64.78
-71.73
-75.54
-74.85
-68.98
-58.24
-43.95
-28.12
-12.82
0.43
10.93
18.82
24.67
29.02
32.20
34.29
35.37
35.68
35.62
35.60
35.89
36.47
37.17
37.79
38.28
38.71
39.19
39.70
40.04
39.82
38.61
36.14
32.44
27.78
22.69
17.68
13.15
9.24
5.85
2.73
-0.47
-3.98
-7.90
-12.11
-16.39
-20.43
-24.06
-27.35
-30.68
-34.66
-39.96
-46.91
-55.14
-63.52
-70.25
-73.36
-71.38
-63.85
-51.60
-36.45
-20.69
-6.36
5.23
13.81
19.85
24.18
27.59
30.49
32.94
34.83
36.04
36.70
37.08
37.58
38.40
39.54
40.73
41.67
42.08
41.94
41.33
40.40
39.21
37.63
35.44
32.40
28.51
23.96
19.21
14.76
10.98
7.97
5.49
3.13
0.41
-2.99
-7.12
-11.78
-16.58
-21.17
-25.33
-29.05
-32.49
-35.97
-39.86
-44.61
-50.58
-57.82
-65.83
-73.31
-78.43
-79.30
-74.64
-64.42
-49.90
-33.26
-16.88
-2.57
8.74
16.98
22.62
26.28
28.53
29.82
30.57
31.14
31.81
32.69
33.76
34.87
35.93
36.94
37.94
38.99
40.04
40.93
41.34
40.94
39.41
36.65
32.78
28.18
23.33
18.70
14.51
10.73
7.12
3.37
-0.68
-4.98
-9.33
-13.48
-17.25
-20.65
-23.88
-27.29
-31.37
-36.60
-43.20
-50.91
-58.76
-65.14
-68.20
-66.45
-59.38
-47.70
-33.13
-17.83
-3.63
8.32
17.79
25.10
30.75
35.10
38.27
40.30
41.33
41.73
42.02
42.73
44.15
46.21
48.59
50.83
52.66
54.09
55.43
57.09
59.25
61.64
63.48
63.76
61.58
56.63
49.29
40.53
31.46
22.92
15.16
7.85
0.40
-7.64
-16.26
-25.02
-33.21
-40.27
-45.98
-50.50
-54.33
-58.02
-62.10
-67.02
-73.02
-80.03
-87.36
-93.64
-96.99
-95.58
-88.31
-75.36
-58.31
-39.61
-21.83
-6.88
4.39
12.13
17.13
20.31
22.44
23.94
25.06
25.88
26.50
27.03
27.59
28.27
29.08
29.95
30.77
31.37
31.61
31.40
30.66
29.38
27.53
25.12
22.12
18.61
14.71
10.63
6.52
2.51
-1.47
-5.53
-9.80
-14.24
-18.60
-22.54
-25.82
-28.46
-30.87
-33.78
-37.93
-43.82
-51.31
-59.48
-66.71
-71.05
-70.81
-65.12
-54.37
-40.09
-24.47
-9.67
2.91
12.75
20.15
25.67
29.77
32.60
34.12
34.39
33.72
32.70
31.93
31.81
32.37
33.29
34.18
34.76
34.98
34.99
34.90
34.62
33.84
32.13
29.23
25.25
20.67
16.10
12.08
8.74
5.83
2.87
-0.58
-4.70
-9.39
-14.33
-19.17
-23.66
-27.69
-31.32
-34.80
-38.55
-43.13
-48.94
-55.92
-63.31
-69.56
-72.81
-71.35
-64.42
-52.49
-37.19
-20.79
-5.42
7.46
17.34
24.40
29.22
32.37
34.28
35.25
35.58
35.64
35.82
36.43
37.52
38.86
40.06
40.76
40.82
40.44
40.00
39.79
39.86
39.85
39.19
37.33
34.01
29.42
24.15
18.95
14.43
10.84
8.02
5.46
2.56
-1.13
-5.73
-10.96
-16.26
-21.09
-25.11
-28.35
-31.25
-34.45
-38.60
-44.20
-51.33
-59.56
-67.81
-74.47
-77.70
-76.02
-68.86
-56.86
-41.78
-25.88
-11.20
0.94
10.21
16.97
21.88
25.53
28.26
30.20
31.45
32.18
32.62
33.05
33.62
34.37
35.18
35.90
36.42
36.72
36.83
36.72
36.29
35.27
33.46
30.75
27.28
23.39
19.42
15.59
11.85
8.04
3.92
-0.57
-5.31
-10.04
-14.47
-18.46
-22.07
-25.59
-29.41
-33.96
-39.56
-46.21
-53.45
-60.22
-65.04
-66.35
-63.02
-54.80
-42.51
-27.84
-12.80
0.82
11.96
20.31
26.16
30.07
32.53
33.89
34.42
34.38
34.06
33.86
34.09
34.87
36.07
37.37
38.39
38.85
38.75
38.30
37.77
37.32
36.82
35.90
34.08
31.08
26.88
21.89
16.74
12.09
8.34
5.52
3.30
1.10
-1.68
-5.46
-10.28
-15.78
-21.38
-26.45
-30.57
-33.73
-36.32
-39.01
-42.53
-47.50
-54.19
-62.33
-71.06
-78.88
-83.96
-84.53
-79.50
-68.89
-53.95
-36.85
-19.99
-5.28
6.26
14.63
20.42
24.45
27.39
29.66
31.47
32.97
34.31
35.62
36.95
38.26
39.40
40.18
40.47
40.25
39.64
38.85
38.09
37.48
36.89
35.99
34.36
31.66
27.86
23.27
18.47
14.09
10.60
8.04
6.08
4.16
1.69
-1.63
-5.77
-10.36
-14.86
-18.82
-22.06
-24.79
-27.54
-31.01
-35.83
-42.30
-50.20
-58.68
-66.34
-71.47
-72.52
-68.55
-59.62
-46.79
-31.84
-16.79
-3.34
7.50
15.51
21.05
24.82
27.41
29.24
30.49
31.21
31.51
31.56
31.58
31.79
32.27
32.92
33.59
34.14
34.49
34.58
34.33
33.59
32.16
29.95
27.01
23.64
20.16
16.83
13.69
10.58
7.21
3.34
-1.13
-6.01
-10.97
-15.61
-19.59
-22.78
-25.34
-27.73
-30.63
-34.80
-40.72
-48.36
-56.86
-64.67
-69.81
-70.52
-65.83
-55.98
-42.33
-26.98
-12.04
0.94
11.26
19.00
24.67
28.82
31.79
33.79
34.95
35.50
35.81
36.23
37.00
38.12
39.40
40.56
41.37
41.77
41.81
41.59
41.14
40.46
39.51
38.20
36.40
34.00
30.88
27.06
22.77
18.39
14.43
11.22
8.76
6.73
4.55
1.69
-2.14
-6.81
-11.94
-16.96
-21.48
-25.27
-28.42
-31.23
-34.15
-37.72
-42.48
-48.84
-56.75
-65.53
-73.76
-79.50
-80.83
-76.52
-66.54
-52.17
-35.63
-19.34
-5.29
5.46
12.76
17.10
19.16
19.58
18.83
17.33
15.53
13.94
13.05
13.18
14.35
16.38
18.92
21.71
24.65
27.74
30.93
34.00
36.44
37.61
36.91
34.05
29.26
23.20
16.80
10.93
6.14
2.48
-0.48
-3.34
-6.60
-10.46
-14.65
-18.71
-22.18
-24.87
-26.97
-28.95
-31.45
-35.09
-40.25
-46.97
-54.75
-62.42
-68.28
-70.52
-67.76
-59.67
-47.15
-32.10
-16.74
-2.93
8.30
16.85
23.17
27.86
31.37
33.86
35.39
36.02
35.97
35.60
35.29
35.35
35.91
36.89
38.02
38.99
39.52
39.47
38.87
37.85
36.53
34.90
32.84
30.14
26.66
22.45
17.77
13.06
8.74
5.04
1.94
-0.82
-3.61
-6.74
-10.37
-14.44
-18.77
-23.10
-27.18
-30.88
-34.16
-37.15
-40.25
-44.02
-49.12
-55.92
-64.14
-72.59
-79.28
-82.01
-79.03
-69.88
-55.50
-38.06
-20.16
-4.07
8.83
18.21
24.48
28.43
30.83
32.29
33.15
33.66
34.01
34.39
34.99
35.91
37.12
38.40
39.49
40.14
40.19
39.69
38.84
37.86
36.89
35.89
34.58
32.60
29.65
25.68
21.03
16.26
12.04
8.76
6.43
4.64
2.77
0.24
-3.24
-7.60
-12.46
-17.29
-21.68
-25.38
-28.49
-31.38
-34.56
-38.58
-43.83
-50.39
-57.85
-65.19
-70.94
-73.41
-71.20
-63.72
-51.50
-36.14
-19.79
-4.59
8.01
17.44
23.93
28.11
30.61
31.89
32.27
32.01
31.44
30.99
31.01
31.68
32.96
34.58
36.19
37.46
38.19
38.33
38.00
37.31
36.33
34.97
33.01
30.22
26.47
21.92
16.97
12.17
8.02
4.68
1.96
-0.64
-3.67
-7.51
-12.12
-17.11
-21.89
-25.97
-29.14
-31.60
-33.88
-36.71
-40.78
-46.59
-54.19
-63.04
-71.90
-78.96
-82.26
-80.25
-72.36
-59.29
-42.79
-25.19
-8.68
5.28
16.03
23.66
28.64
31.58
33.10
33.76
34.08
34.53
35.36
36.61
38.07
39.36
40.16
40.29
39.84
39.09
38.44
38.14
38.20
38.31
37.96
36.62
33.95
29.93
24.97
19.70
14.81
10.75
7.56
4.85
1.97
-1.65
-6.29
-11.73
-17.41
-22.64
-26.95
-30.28
-33.04
-35.98
-39.97
-45.64
-53.14
-61.86
-70.39
-76.78
-78.99
-75.65
-66.48
-52.56
-35.98
-19.12
-4.01
8.25
17.47
24.09
28.77
31.98
33.95
34.78
34.57
33.62
32.40
31.44
31.13
31.62
32.76
34.22
35.57
36.50
36.78
36.36
35.24
33.43
31.00
27.97
24.44
20.50
16.23
11.66
6.79
1.60
-3.83
-9.35
-14.65
-19.46
-23.65
-27.33
-30.87
-34.77
-39.51
-45.30
-51.87
-58.44
-63.69
-66.12
-64.41
-57.89
-46.78
-32.25
-16.08
-0.17
13.92
25.29
33.73
39.56
43.32
45.57
46.78
47.38
47.79
48.39
49.46
51.09
53.10
55.12
56.76
57.76
58.10
58.00
57.76
57.51
57.06
55.87
53.25
48.59
41.67
32.73
22.44
11.64
1.04
-8.97
-18.42
-27.58
-36.74
-45.93
-54.94
-63.33
-70.66
-76.71
-81.56
-85.62
-89.54
-93.96
-99.25
-105.13
-110.50
-113.55
-112.27
-105.15
-91.82
-73.33
-51.89
-30.21
-10.68
5.23
17.07
25.25
30.56
33.84
35.75
36.72
37.07
37.04
36.90
36.86
37.08
37.56
38.22
38.83
39.20
39.23
38.95
38.46
37.79
36.87
35.49
33.46
30.70
27.27
23.34
19.07
14.52
9.69
4.58
-0.68
-5.89
-10.79
-15.18
-19.07
-22.66
-26.33
-30.61
-36.07
-43.02
-51.30
-59.96
-67.25
-71.10
-69.69
-62.29
-49.64
-33.74
-17.20
-2.31
9.60
18.29
24.32
28.45
31.25
32.91
33.48
33.05
32.00
30.88
30.24
30.39
31.30
32.62
33.87
34.65
34.78
34.32
33.44
32.31
30.91
29.09
26.52
22.95
18.26
12.57
6.27
-0.16
-6.20
-11.50
-15.94
-19.69
-23.19
-27.06
-31.96
-38.38
-46.29
-55.01
-63.11
-68.72
-70.00
-65.80
-56.13
-42.21
-26.14
-10.25
3.58
14.32
21.85
26.65
29.47
30.93
31.49
31.47
31.14
30.74
30.50
30.51
30.72
30.97
31.06
30.86
30.38
29.72
28.96
28.04
26.70
24.60
21.40
17.03
11.69
5.88
0.13
-5.12
-9.74
-13.97
-18.26
-23.13
-28.99
-35.87
-43.33
-50.31
-55.31
-56.75
-53.47
-45.26
-33.01
-18.53
-3.90
9.14
19.67
27.63
33.46
37.68
40.55
42.02
41.94
40.32
37.50
34.17
31.15
29.22
28.81
29.86
31.85
33.89
35.06
34.72
32.70
29.33
25.27
21.19
17.50
14.18
10.93
7.26
2.78
-2.69
-9.07
-15.98
-22.71
-28.27
-31.55
-31.68
-28.39
-22.21
-14.42
-6.64
-0.32
3.75
5.49
5.35
3.88
1.40
-2.05
-6.55
-11.93
-17.53
-22.23
-24.73
-24.02
-19.83
-12.77
-4.16
4.42
11.67
16.90
20.07
21.58
21.79
20.79
18.35
14.14
8.06
0.43
-7.96
-16.12
-23.23
-28.82
-32.92
-35.93
-38.42
-40.95
-44.04
-48.11
-53.38
-59.67
-66.16
-71.34
-73.37
-70.68
-62.67
-49.98
-34.38
-18.10
-3.13
9.31
18.94
26.04
31.16
34.69
36.87
37.83
37.82
37.27
36.70
36.60
37.27
38.65
40.38
41.93
42.82
42.78
41.84
40.25
38.26
36.02
33.51
30.58
27.14
23.17
18.80
14.17
9.39
4.55
-0.27
-4.96
-9.35
-13.30
-16.81
-20.03
-23.32
-27.12
-31.87
-37.89
-45.19
-53.29
-61.10
-67.00
-69.25
-66.46
-58.21
-45.35
-29.69
-13.53
1.14
13.08
22.05
28.42
32.83
35.82
37.72
38.77
39.28
39.71
40.49
41.86
43.73
45.74
47.36
48.15
47.97
46.96
45.52
44.06
42.87
41.89
40.80
39.11
36.37
32.40
27.36
21.75
16.21
11.29
7.26
4.02
1.16
-1.86
-5.51
-9.94
-14.97
-20.17
-25.04
-29.29
-32.96
-36.42
-40.25
-45.04
-51.23
-58.89
-67.59
-76.26
-83.26
-86.70
-84.96
-77.36
-64.47
-48.01
-30.31
-13.57
0.74
12.03
20.45
26.47
30.52
33.00
34.19
34.49
34.36
34.31
34.70
35.64
36.99
38.42
39.63
40.42
40.79
40.81
40.53
39.93
38.84
37.06
34.47
31.18
27.42
23.48
19.57
15.73
11.89
7.99
4.00
-0.05
-4.11
-8.17
-12.19
-16.12
-19.86
-23.37
-26.75
-30.36
-34.75
-40.40
-47.40
-55.16
-62.31
-67.01
-67.49
-62.67
-52.59
-38.52
-22.52
-6.85
6.68
17.14
24.48
29.22
32.12
33.78
34.58
34.78
34.58
34.19
33.85
33.69
33.72
33.84
33.94
33.96
33.90
33.79
33.62
33.26
32.48
30.96
28.48
24.96
20.59
15.78
11.03
6.65
2.70
-1.11
-5.19
-9.80
-14.91
-20.11
-24.87
-28.81
-31.95
-34.73
-37.84
-42.01
-47.72
-54.96
-63.04
-70.57
-75.70
-76.57
-71.91
-61.64
-46.98
-30.10
-13.49
0.90
12.07
20.04
25.47
29.20
31.77
33.44
34.25
34.29
33.84
33.32
33.13
33.41
34.01
34.59
34.85
34.73
34.39
34.10
33.94
33.71
32.95
31.16
28.07
23.77
18.68
13.41
8.54
4.40
1.05
-1.80
-4.66
-8.02
-12.16
-17.04
-22.23
-27.18
-31.43
-34.89
-37.92
-41.17
-45.38
-51.10
-58.43
-66.84
-75.08
-81.36
-83.77
-80.87
-72.24
-58.72
-42.19
-24.98
-9.17
3.88
13.74
20.60
25.02
27.56
28.67
28.75
28.21
27.45
26.86
26.70
27.01
27.64
28.29
28.63
28.48
27.87
27.02
26.22
25.61
25.06
24.16
22.35
19.19
14.57
8.77
2.42
-3.74
-9.07
-13.24
-16.31
-18.77
-21.33
-24.76
-29.70
-36.38
-44.43
-52.83
-60.01
-64.20
-63.92
-58.50
-48.29
-34.63
-19.43
-4.71
7.92
17.60
24.18
28.13
30.20
31.10
31.35
31.23
30.88
30.38
29.90
29.64
29.81
30.45
31.38
32.26
32.68
32.37
31.29
29.59
27.48
25.14
22.53
19.51
15.87
11.50
6.45
0.98
-4.54
-9.75
-14.44
-18.57
-22.29
-25.84
-29.50
-33.57
-38.35
-44.09
-50.90
-58.53
-66.15
-72.36
-75.46
-73.99
-67.28
-55.81
-41.13
-25.32
-10.37
2.38
12.43
19.93
25.32
29.06
31.45
32.76
33.26
33.27
33.11
33.07
33.28
33.75
34.43
35.16
35.72
35.88
35.44
34.34
32.66
30.61
28.42
26.13
23.59
20.53
16.64
11.85
6.34
0.50
-5.21
-10.43
-15.04
-19.09
-22.80
-26.42
-30.23
-34.53
-39.61
-45.58
-52.23
-58.81
-63.99
-66.21
-64.06
-56.96
-45.44
-31.05
-15.92
-2.01
9.39
17.87
23.77
27.68
30.13
31.43
31.71
31.19
30.26
29.46
29.32
30.07
31.56
33.26
34.57
35.00
34.38
32.93
31.01
28.99
27.00
24.89
22.27
18.71
13.95
8.07
1.49
-5.11
-11.11
-16.11
-20.15
-23.65
-27.24
-31.60
-37.12
-43.88
-51.49
-59.15
-65.60
-69.44
-69.39
-64.72
-55.52
-42.80
-28.18
-13.48
-0.21
10.76
19.17
25.24
29.39
32.05
33.62
34.49
35.05
35.65
36.48
37.49
38.47
39.20
39.50
39.44
39.17
38.90
38.73
38.56
38.11
37.04
35.04
31.94
27.86
23.13
18.22
13.57
9.32
5.40
1.48
-2.76
-7.50
-12.63
-17.87
-22.87
-27.38
-31.39
-35.13
-39.12
-43.98
-50.29
-58.26
-67.43
-76.53
-83.65
-86.71
-84.20
-75.70
-62.08
-45.29
-27.76
-11.66
1.60
11.57
18.65
23.66
27.40
30.40
32.80
34.57
35.72
36.48
37.23
38.34
39.97
41.94
43.80
45.06
45.39
44.68
43.07
40.78
38.09
35.19
32.14
28.88
25.24
20.99
15.99
10.31
4.27
-1.69
-7.12
-11.74
-15.51
-18.66
-21.60
-24.89
-29.08
-34.66
-41.76
-49.96
-58.18
-64.73
-67.79
-65.93
-58.72
-46.89
-32.23
-16.94
-2.96
8.56
17.35
23.82
28.57
32.09
34.60
36.18
36.96
37.24
37.40
37.76
38.52
39.65
40.97
42.24
43.24
43.80
43.83
43.31
42.26
40.70
38.57
35.75
32.13
27.71
22.71
17.55
12.69
8.45
4.84
1.59
-1.77
-5.61
-10.10
-15.09
-20.21
-25.03
-29.30
-33.02
-36.54
-40.47
-45.50
-52.18
-60.56
-69.92
-78.73
-84.92
-86.41
-81.89
-71.36
-56.17
-38.70
-21.52
-6.57
5.27
14.10
20.66
25.76
29.89
33.23
35.82
37.69
39.00
40.02
40.99
42.06
43.22
44.35
45.28
45.83
45.91
45.54
44.77
43.71
42.38
40.71
38.54
35.71
32.14
27.94
23.38
18.86
14.73
11.21
8.32
5.84
3.46
0.84
-2.27
-5.96
-10.18
-14.72
-19.37
-23.96
-28.40
-32.76
-37.19
-41.99
-47.55
-54.29
-62.38
-71.55
-80.73
-88.14
-91.68
-89.56
-81.11
-67.08
-49.51
-31.02
-13.96
0.15
10.89
18.57
23.85
27.32
29.44
30.59
31.17
31.73
32.69
34.31
36.51
38.91
40.94
42.11
42.21
41.40
40.14
38.97
38.29
38.10
38.03
37.47
35.86
32.94
28.90
24.31
19.85
16.10
13.23
11.00
8.82
6.07
2.31
-2.48
-7.94
-13.51
-18.67
-23.18
-27.12
-30.86
-34.88
-39.66
-45.62
-52.92
-61.40
-70.26
-78.06
-82.94
-83.13
-77.63
-66.63
-51.56
-34.61
-18.02
-3.40
8.49
17.72
24.75
30.10
34.13
36.99
38.75
39.60
39.91
40.15
40.80
42.13
44.05
46.16
47.89
48.79
48.69
47.77
46.38
44.84
43.33
41.78
39.97
37.65
34.64
30.87
26.45
21.63
16.73
12.04
7.82
4.12
0.89
-2.10
-5.15
-8.53
-12.43
-16.84
-21.61
-26.42
-31.00
-35.26
-39.35
-43.68
-48.79
-55.15
-62.95
-71.85
-80.82
-88.28
-92.30
-91.19
-84.11
-71.50
-55.10
-37.36
-20.67
-6.62
4.29
12.48
18.77
23.82
27.87
30.86
32.66
33.38
33.43
33.32
33.53
34.28
35.49
36.89
38.14
38.97
39.22
38.84
37.87
36.41
34.52
32.19
29.36
25.93
21.87
17.22
12.18
7.00
1.98
-2.70
-6.90
-10.63
-14.02
-17.30
-20.76
-24.72
-29.53
-35.42
-42.44
-50.21
-57.78
-63.71
-66.37
-64.40
-57.31
-45.72
-31.24
-15.98
-1.89
9.73
18.47
24.60
28.69
31.29
32.74
33.18
32.74
31.64
30.32
29.26
28.88
29.37
30.57
32.06
33.33
34.01
33.92
33.09
31.68
29.82
27.57
24.89
21.68
17.86
13.40
8.37
2.97
-2.50
-7.74
-12.53
-16.77
-20.48
-23.80
-26.87
-29.91
-33.23
-37.24
-42.26
-48.20
-54.35
-59.32
-61.46
-59.41
-52.72
-42.07
-29.06
-15.65
-3.44
6.64
14.44
20.27
24.55
27.61
29.62
30.73
31.17
31.29
31.37
31.58
31.90
32.21
32.37
32.37
32.27
32.17
32.14
32.05
31.69
30.82
29.25
26.94
23.96
20.44
16.51
12.27
7.76
3.01
-1.96
-7.06
-12.13
-16.98
-21.43
-25.39
-28.98
-32.46
-36.34
-41.18
-47.49
-55.32
-64.09
-72.47
-78.51
-80.24
-76.28
-66.42
-51.79
-34.59
-17.38
-2.25
9.65
18.18
24.00
27.99
30.93
33.24
35.09
36.49
37.49
38.18
38.69
39.12
39.48
39.76
39.90
39.88
39.61
39.01
37.89
36.15
33.69
30.52
26.78
22.62
18.21
13.65
9.02
4.34
-0.37
-5.08
-9.79
-14.46
-19.03
-23.44
-27.65
-31.72
-35.91
-40.69
-46.57
-53.73
-61.68
-69.09
-73.97
-74.31
-68.85
-57.65
-42.23
-25.00
-8.50
5.46
16.13
23.72
28.95
32.50
34.73
35.73
35.54
34.35
32.63
31.01
30.03
30.00
30.82
32.11
33.37
34.15
34.22
33.56
32.24
30.39
28.05
25.18
21.73
17.63
12.88
7.53
1.78
-4.10
-9.78
-14.94
-19.42
-23.22
-26.63
-30.11
-34.21
-39.43
-46.05
-53.88
-62.12
-69.31
-73.61
-73.29
-67.38
-56.11
-40.95
-24.17
-8.09
5.57
16.12
23.74
29.15
33.08
35.99
38.00
39.10
39.34
38.95
38.32
37.85
37.80
38.27
39.14
40.21
41.28
42.13
42.60
42.42
41.34
39.11
35.61
30.95
25.45
19.48
13.40
7.48
1.82
-3.55
-8.69
-13.61
-18.33
-22.84
-27.11
-31.14
-34.93
-38.66
-42.68
-47.51
-53.51
-60.59
-67.91
-73.83
-76.42
-74.02
-66.00
-53.10
-37.20
-20.67
-5.60
6.74
16.06
22.71
27.27
30.14
31.50
31.49
30.42
28.87
27.54
27.07
27.68
29.14
30.86
32.20
32.73
32.41
31.52
30.46
29.50
28.55
27.26
25.08
21.66
16.92
11.24
5.22
-0.46
-5.43
-9.72
-13.77
-18.27
-23.80
-30.56
-38.18
-45.76
-51.94
-55.23
-54.39
-48.77
-38.59
-25.01
-9.89
4.67
16.93
25.88
31.42
34.07
34.65
33.88
32.16
29.68
26.60
23.22
19.98
17.36
15.70
15.02
15.10
15.52
15.87
15.86
15.30
14.10
12.19
9.49
6.00
1.80
-2.94
-8.03
-13.39
-19.16
-25.56
-32.81
-40.68
-48.46
-54.86
-58.39
-57.86
-52.80
-43.70
-31.91
-19.20
-7.28
2.58
9.84
14.49
16.86
17.32
16.13
13.41
9.33
4.25
-1.17
-6.07
-9.58
-11.18
-10.82
-8.94
-6.27
-3.54
-1.27
0.30
1.14
1.30
0.79
-0.43
-2.44
-5.32
-9.10
-13.75
-19.13
-24.99
-30.90
-36.17
-39.93
-41.23
-39.27
-33.66
-24.61
-13.02
-0.29
12.01
22.55
30.49
35.61
38.20
38.76
37.82
35.78
32.99
29.81
26.67
24.02
22.27
21.57
21.83
22.67
23.55
23.95
23.44
21.85
19.21
15.70
11.59
7.18
2.77
-1.43
-5.26
-8.78
-12.32
-16.40
-21.63
-28.25
-35.85
-43.21
-48.58
-50.23
-47.14
-39.39
-28.19
-15.40
-2.95
7.79
16.15
22.09
25.89
27.84
28.21
27.24
25.33
22.98
20.76
19.17
18.48
18.74
19.74
21.16
22.57
23.55
23.77
23.03
21.34
18.87
15.89
12.73
9.61
6.60
3.64
0.49
-3.10
-7.35
-12.34
-17.91
-23.74
-29.44
-34.70
-39.42
-43.82
-48.29
-53.37
-59.55
-66.99
-75.36
-83.56
-89.89
-92.31
-89.17
-79.78
-64.84
-46.29
-26.68
-8.40
7.00
18.98
27.83
34.17
38.58
41.45
43.06
43.68
43.78
43.85
44.32
45.36
46.82
48.35
49.51
50.07
50.01
49.55
48.95
48.29
47.40
45.84
43.16
39.07
33.73
27.62
21.44
15.79
10.89
6.64
2.64
-1.51
-6.03
-10.90
-15.88
-20.77
-25.44
-29.99
-34.72
-40.08
-46.52
-54.24
-62.91
-71.53
-78.53
-82.04
-80.54
-73.33
-60.90
-44.71
-26.87
-9.48
5.86
18.29
27.70
34.42
39.01
42.00
43.87
44.99
45.66
46.15
46.68
47.34
48.06
48.67
48.96
48.81
48.28
47.57
46.87
46.28
45.62
44.51
42.51
39.34
35.06
30.04
24.91
20.26
16.45
13.46
10.95
8.42
5.42
1.66
-2.89
-8.06
-13.55
-19.00
-24.08
-28.62
-32.73
-36.82
-41.51
-47.46
-54.85
-63.24
-71.28
-77.07
-78.68
-74.81
-65.33
-51.31
-34.74
-17.80
-2.31
10.67
20.79
28.18
33.19
36.18
37.50
37.55
36.85
35.95
35.30
35.15
35.54
36.25
36.95
37.37
37.35
36.91
36.20
35.40
34.59
33.65
32.30
30.19
27.13
23.19
18.73
14.21
9.99
6.14
2.45
-1.39
-5.54
-9.90
-14.15
-17.96
-21.18
-24.00
-26.81
-30.09
-34.21
-39.31
-45.24
-51.48
-57.14
-61.04
-61.93
-58.87
-51.61
-40.73
-27.54
-13.71
-0.77
10.12
18.38
23.93
27.01
28.06
27.60
26.20
24.41
22.74
21.58
21.14
21.40
22.16
23.05
23.69
23.83
23.42
22.62
21.72
20.90
20.13
19.14
17.49
14.79
10.84
5.82
0.22
-5.26
-9.95
-13.47
-15.85
-17.58
-19.38
-22.01
-25.89
-31.03
-36.86
-42.32
-46.15
-47.12
-44.43
-37.93
-28.24
-16.59
-4.49
6.67
15.87
22.66
27.03
29.24
29.66
28.67
26.66
24.12
21.62
19.71
18.78
18.91
19.83
21.06
22.06
22.46
22.18
21.29
19.88
17.94
15.35
12.02
8.03
3.65
-0.74
-4.96
-9.09
-13.57
-18.96
-25.72
-33.98
-43.30
-52.69
-60.70
-65.77
-66.54
-62.32
-53.34
-40.73
-26.28
-11.91
0.75
10.71
17.59
21.53
22.93
22.34
20.42
17.87
15.40
13.52
12.49
12.23
12.48
12.92
13.32
13.58
13.72
13.77
13.73
13.53
13.02
11.98
10.17
7.40
3.70
-0.72
-5.40
-9.84
-13.61
-16.56
-18.88
-21.05
-23.72
-27.48
-32.60
-38.81
-45.18
-50.28
-52.51
-50.70
-44.49
-34.51
-22.20
-9.33
2.55
12.43
19.90
24.96
27.86
28.95
28.56
27.14
25.18
23.26
21.87
21.31
21.66
22.64
23.78
24.60
24.81
24.41
23.71
23.10
22.76
22.53
21.91
20.32
17.42
13.35
8.66
4.06
0.08
-3.14
-5.87
-8.53
-11.48
-14.72
-18.01
-21.00
-23.44
-25.31
-26.89
-28.59
-30.89
-34.25
-38.99
-45.15
-52.28
-59.34
-64.77
-66.87
-64.36
-56.87
-45.18
-30.96
-16.29
-2.98
7.80
15.72
21.00
24.18
25.83
26.51
26.68
26.76
27.15
28.05
29.54
31.52
33.69
35.70
37.22
38.02
38.04
37.36
36.18
34.69
33.06
31.32
29.43
27.22
24.52
21.20
17.32
13.12
9.00
5.35
2.37
-0.05
-2.33
-4.93
-8.18
-12.09
-16.36
-20.57
-24.41
-27.85
-31.06
-34.38
-38.15
-42.67
-48.15
-54.67
-61.93
-69.12
-74.90
-77.63
-75.87
-69.02
-57.62
-43.24
-27.95
-13.67
-1.66
7.66
14.48
19.26
22.48
24.52
25.70
26.37
26.87
27.51
28.49
29.78
31.21
32.55
33.62
34.31
34.66
34.83
34.89
34.83
34.41
33.27
31.07
27.69
23.35
18.58
14.06
10.30
7.44
5.18
2.99
0.33
-3.06
-7.06
-11.27
-15.23
-18.62
-21.45
-23.99
-26.78
-30.44
-35.50
-42.19
-50.27
-58.87
-66.51
-71.44
-72.13
-67.80
-58.69
-46.02
-31.54
-17.02
-3.81
7.35
16.21
22.79
27.23
29.68
30.40
29.76
28.34
26.81
25.78
25.68
26.59
28.31
30.41
32.48
34.19
35.44
36.20
36.47
36.15
35.06
33.00
29.89
25.83
21.12
16.23
11.62
7.63
4.36
1.66
-0.86
-3.68
-7.15
-11.41
-16.31
-21.45
-26.36
-30.67
-34.29
-37.46
-40.75
-44.93
-50.75
-58.45
-67.51
-76.46
-83.15
-85.35
-81.56
-71.59
-56.69
-39.12
-21.39
-5.51
7.46
17.33
24.56
29.70
33.26
35.57
36.90
37.49
37.68
37.79
38.10
38.80
39.95
41.50
43.30
45.16
46.83
48.09
48.72
48.62
47.77
46.22
44.02
41.23
37.87
33.99
29.71
25.24
20.86
16.83
13.29
10.24
7.53
4.86
1.94
-1.55
-5.85
-11.01
-16.83
-22.87
-28.58
-33.50
-37.52
-41.02
-44.73
-49.60
-56.37
-65.22
-75.48
-85.58
-93.30
-96.37
-93.20
-83.40
-68.02
-49.21
-29.57
-11.36
3.92
15.76
24.34
30.26
34.25
36.95
38.91
40.57
42.19
43.92
45.82
47.87
50.02
52.21
54.26
56.02
57.30
58.06
58.34
58.21
57.67
56.59
54.78
52.10
48.59
44.48
40.09
35.67
31.28
26.91
22.52
18.22
14.26
10.87
8.11
5.73
3.24
0.09
-4.00
-9.01
-14.60
-20.31
-25.78
-30.84
-35.56
-40.14
-44.91
-50.30
-56.77
-64.63
-73.73
-83.21
-91.40
-96.15
-95.52
-88.45
-75.24
-57.52
-37.76
-18.46
-1.59
11.82
21.61
28.25
32.44
34.92
36.28
37.02
37.53
38.10
38.96
40.23
41.94
43.92
45.93
47.64
48.84
49.45
49.63
49.59
49.49
49.29
48.75
47.55
45.42
42.32
38.39
33.94
29.30
24.71
20.39
16.48
13.06
10.09
7.38
4.60
1.42
-2.38
-6.80
-11.66
-16.64
-21.45
-25.91
-30.05
-34.13
-38.59
-44.01
-50.84
-59.08
-68.02
-76.13
-81.38
-81.84
-76.37
-65.12
-49.51
-31.79
-14.37
0.97
13.28
22.49
29.02
33.42
36.11
37.40
37.52
36.86
35.91
35.19
35.17
36.08
37.82
40.07
42.35
44.22
45.42
45.90
45.79
45.25
44.41
43.20
41.44
38.92
35.46
31.07
25.98
20.58
15.35
10.67
6.71
3.39
0.41
-2.65
-6.13
-10.21
-14.80
-19.63
-24.37
-28.68
-32.41
-35.60
-38.55
-41.81
-46.10
-52.03
-59.85
-69.00
-78.08
-85.02
-87.73
-84.72
-75.80
-62.03
-45.45
-28.33
-12.55
0.82
11.40
19.37
25.10
28.95
31.26
32.36
32.66
32.60
32.64
33.11
34.20
35.87
37.88
39.90
41.59
42.75
43.34
43.44
43.22
42.75
42.00
40.79
38.88
36.07
32.30
27.74
22.76
17.80
13.32
9.57
6.51
3.86
1.18
-1.96
-5.79
-10.25
-15.04
-19.73
-23.99
-27.69
-30.98
-34.24
-38.01
-42.78
-48.89
-56.27
-64.31
-71.73
-76.83
-77.92
-73.86
-64.52
-50.93
-34.96
-18.72
-4.02
8.06
17.13
23.36
27.17
29.04
29.47
28.97
28.07
27.27
26.93
27.22
28.12
29.43
30.90
32.24
33.31
34.08
34.62
34.98
35.08
34.73
33.63
31.56
28.44
24.47
20.05
15.61
11.51
7.85
4.53
1.24
-2.34
-6.40
-10.93
-15.62
-20.02
-23.72
-26.56
-28.76
-30.96
-33.96
-38.49
-44.81
-52.55
-60.61
-67.42
-71.28
-70.81
-65.35
-55.18
-41.49
-26.04
-10.73
2.89
13.85
21.89
27.23
30.35
31.72
31.75
30.86
29.52
28.31
27.78
28.20
29.48
31.20
32.83
34.04
34.82
35.42
36.12
36.96
37.60
37.41
35.79
32.49
27.71
22.10
16.46
11.46
7.42
4.21
1.37
-1.65
-5.27
-9.61
-14.45
-19.36
-23.89
-27.76
-30.94
-33.71
-36.53
-40.02
-44.80
-51.30
-59.42
-68.30
-76.28
-81.19
-81.09
-74.97
-63.21
-47.54
-30.47
-14.38
-0.86
9.56
17.22
22.77
26.77
29.51
31.06
31.56
31.37
31.05
31.15
31.99
33.50
35.30
36.82
37.69
37.84
37.52
37.15
37.03
37.15
37.10
36.28
34.14
30.50
25.61
20.13
14.87
10.47
7.21
4.87
2.91
0.66
-2.37
-6.32
-10.99
-15.90
-20.50
-24.45
-27.68
-30.44
-33.22
-36.66
-41.35
-47.71
-55.74
-64.81
-73.56
-80.11
-82.49
-79.34
-70.39
-56.71
-40.38
-23.82
-9.06
2.77
11.52
17.73
22.16
25.39
27.69
29.14
29.80
29.89
29.81
30.04
30.92
32.50
34.54
36.64
38.43
39.70
40.50
40.98
41.23
41.11
40.31
38.48
35.47
31.48
26.99
22.66
18.96
16.01
13.61
11.33
8.87
6.12
3.23
0.43
-2.17
-4.70
-7.48
-10.94
-15.44
-21.27
-28.54
-37.10
-46.28
-54.86
-61.13
-63.31
-60.25
-51.83
-39.23
-24.49
-9.88
2.81
12.68
19.68
24.30
27.11
28.51
28.79
28.12
26.82
25.37
24.29
24.01
24.63
25.88
27.24
28.16
28.25
27.45
25.97
24.03
21.70
18.86
15.24
10.73
5.46
-0.10
-5.32
-9.59
-12.50
-13.98
-14.30
-13.98
-13.78
-14.41
-16.36
-19.71
-24.01
-28.50
-32.43
-35.36
-37.38
-39.10
-41.41
-45.15
-50.83
-58.36
-66.91
-74.92
-80.40
-81.46
-76.88
-66.61
-51.88
-34.85
-17.89
-2.95
8.92
17.64
23.72
27.88
30.68
32.47
33.46
33.83
33.95
34.20
34.95
36.34
38.20
40.12
41.61
42.37
42.35
41.80
41.05
40.33
39.63
38.74
37.29
35.00
31.75
27.61
22.89
17.97
13.28
9.13
5.68
2.80
0.18
-2.62
-5.95
-9.89
-14.27
-18.66
-22.65
-26.03
-28.96
-31.92
-35.56
-40.54
-47.21
-55.46
-64.55
-73.14
-79.43
-81.64
-78.48
-69.69
-56.19
-39.92
-23.21
-8.17
3.89
12.61
18.41
22.09
24.44
26.02
27.21
28.23
29.29
30.56
32.09
33.82
35.51
36.91
37.85
38.35
38.61
38.88
39.24
39.49
39.22
37.93
35.35
31.54
26.95
22.22
17.89
14.20
11.04
7.98
4.59
0.64
-3.80
-8.42
-12.80
-16.67
-19.98
-22.95
-25.97
-29.51
-34.01
-39.80
-46.95
-55.08
-63.14
-69.54
-72.41
-70.24
-62.45
-49.75
-33.98
-17.50
-2.47
9.72
18.69
24.79
28.75
31.20
32.60
33.24
33.37
33.35
33.55
34.32
35.72
37.57
39.47
40.98
41.81
41.89
41.46
40.82
40.24
39.70
38.90
37.37
34.69
30.74
25.80
20.49
15.51
11.38
8.22
5.77
3.46
0.73
-2.82
-7.20
-12.13
-17.15
-21.82
-25.94
-29.59
-33.08
-36.87
-41.38
-46.91
-53.64
-61.45
-69.81
-77.56
-83.06
-84.50
-80.53
-70.89
-56.63
-39.86
-23.04
-8.18
3.68
12.54
19.05
23.99
27.85
30.75
32.63
33.55
33.84
34.06
34.75
36.23
38.33
40.60
42.45
43.51
43.71
43.31
42.63
41.92
41.21
40.26
38.77
36.48
33.28
29.28
24.79
20.24
16.00
12.30
9.11
6.21
3.26
-0.01
-3.70
-7.70
-11.75
-15.58
-19.07
-22.24
-25.34
-28.78
-33.16
-39.00
-46.69
-56.07
-66.17
-75.27
-81.16
-81.90
-76.45
-65.20
-49.85
-32.93
-16.90
-3.55
6.39
13.16
17.56
20.54
22.83
24.86
26.73
28.41
29.82
30.97
31.97
32.98
34.10
35.34
36.62
37.80
38.73
39.28
39.23
38.37
36.51
33.59
29.73
25.24
20.51
15.88
11.55
7.52
3.65
-0.26
-4.36
-8.66
-13.01
-17.17
-20.88
-24.03
-26.80
-29.66
-33.25
-38.20
-44.69
-52.23
-59.60
-65.04
-66.81
-63.78
-55.88
-44.15
-30.40
-16.58
-4.19
6.02
14.01
20.11
24.66
27.87
29.81
30.61
30.56
30.15
29.87
30.11
30.95
32.19
33.47
34.43
34.91
35.00
34.91
34.83
34.72
34.30
33.11
30.80
27.25
22.71
17.68
12.69
8.13
4.15
0.62
-2.74
-6.14
-9.73
-13.49
-17.27
-20.95
-24.47
-27.91
-31.56
-35.84
-41.18
-47.85
-55.70
-63.94
-71.22
-75.80
-76.08
-71.19
-61.30
-47.67
-32.24
-17.04
-3.69
6.96
14.79
20.17
23.72
26.04
27.61
28.80
29.84
30.89
32.04
33.28
34.54
35.68
36.54
37.01
37.13
37.07
37.08
37.37
37.90
38.30
37.97
