1706782368.00
64.000000
-0.00
-0.00
-0.00
-0.00
-0.00
-0.00
-0.00
-0.00
-0.00
-0.00
0.00
0.01
0.01
-0.00
-0.03
-0.05
-0.05
0.00
0.13
0.36
0.66
1.01
1.37
1.72
2.06
2.40
2.79
3.24
3.80
4.42
5.06
5.66
6.20
6.68
7.15
7.68
8.31
9.14
10.09
11.04
11.88
12.56
13.14
13.76
14.65
15.96
17.91
20.32
22.90
25.38
27.58
29.57
31.68
34.32
37.81
42.54
48.15
54.10
59.83
64.97
69.58
74.14
79.34
85.71
93.76
103.00
112.62
121.73
129.77
136.75
143.30
150.75
157.77
166.64
177.95
191.79
206.97
220.57
228.25
225.36
208.53
176.87
132.76
80.05
23.07
-34.94
-92.44
-149.16
-205.23
-260.37
-313.74
-363.87
-409.83
-450.91
-486.50
-515.74
-537.23
-549.22
-549.96
-538.37
-514.21
-478.67
-433.88
-382.45
-327.02
-269.84
-212.63
-156.66
-102.95
-52.37
-5.90
35.58
71.43
101.35
125.50
144.38
158.69
169.15
176.37
180.75
182.57
182.07
179.51
175.23
169.65
163.18
156.15
148.81
141.30
133.69
126.02
118.33
110.69
103.16
95.80
88.68
81.83
75.25
68.95
62.95
57.25
51.86
46.78
42.03
37.59
33.45
29.61
26.07
22.81
19.83
17.11
14.67
12.48
10.54
8.83
7.35
6.07
4.97
4.05
3.27
2.62
2.09
1.65
1.30
1.01
0.79
0.61
0.47
0.37
0.28
0.22
0.18
0.15
0.13
0.12
0.13
0.14
0.15
0.18
0.21
0.24
0.28
0.32
0.37
0.42
0.46
0.51
0.56
0.61
0.67
0.72
0.78
0.84
0.91
0.99
1.07
1.16
1.26
1.38
1.52
1.66
1.83
2.02
2.23
2.47
2.72
3.01
3.33
3.67
4.05
4.46
4.91
5.40
5.92
6.48
7.08
7.71
8.40
9.13
9.90
10.72
11.58
12.48
13.43
14.45
15.52
16.66
17.86
19.11
20.39
21.66
22.85
23.88
24.63
24.97
24.81
24.01
22.51
20.26
17.28
13.62
9.43
4.86
0.12
-4.57
-8.97
-12.89
-16.11
-18.53
-20.06
-20.65
-20.37
-19.30
-17.55
-15.27
-12.58
-9.63
-6.54
-3.40
-0.24
2.82
5.73
8.49
11.09
13.57
15.99
18.42
20.94
23.72
26.69
29.82
33.12
36.59
40.21
44.00
48.04
52.44
57.43
62.79
68.43
74.28
80.26
86.30
92.35
98.45
104.75
111.57
118.55
125.58
132.58
139.47
146.18
152.69
159.08
165.56
172.60
179.71
186.60
192.88
197.96
201.07
201.23
197.20
187.15
175.22
162.83
150.82
139.45
128.46
117.24
105.15
91.75
77.08
61.67
45.24
27.65
8.44
-13.20
-38.19
-67.16
-100.07
-136.06
-173.60
-211.67
-249.34
-286.20
-322.40
-358.53
-395.48
-434.32
-475.88
-519.98
-565.08
-607.26
-640.78
-659.62
-659.62
-640.06
-603.86
-556.26
-502.78
-447.60
-392.64
-338.16
-283.95
-230.31
-178.18
-128.73
-82.66
-40.03
-0.57
35.91
69.26
98.98
124.42
145.40
162.27
175.91
187.21
196.53
203.33
206.42
204.58
197.23
184.88
168.99
151.37
133.58
116.64
101.09
87.15
74.90
64.06
53.93
43.42
31.52
18.01
3.84
-9.07
-18.62
-23.31
-22.88
-18.13
-10.36
-0.78
9.86
21.16
32.86
44.65
56.13
66.83
76.43
84.70
91.61
97.31
102.14
106.52
110.75
114.87
118.39
120.55
120.63
118.29
113.76
107.74
101.12
94.58
88.45
82.67
77.04
71.31
65.42
59.44
53.56
48.01
42.95
38.42
34.34
30.61
27.13
23.91
21.09
18.83
17.21
16.13
15.39
14.80
14.34
14.21
14.79
16.39
19.05
22.49
26.14
29.43
31.98
33.70
34.73
35.33
35.64
35.58
34.88
33.21
30.47
26.81
22.75
18.87
15.58
12.95
10.71
8.43
5.84
3.00
0.23
-2.06
-3.68
-4.66
-5.34
-6.00
-6.89
-8.03
-9.33
-10.64
-11.88
-13.03
-14.07
-14.96
-15.66
-16.12
-16.38
-16.47
-16.51
-16.59
-16.79
-17.14
-17.62
-18.17
-18.71
-19.08
-19.22
-19.09
-18.73
-18.22
-17.69
-17.17
-16.70
-16.28
-15.85
-15.37
-14.82
-14.15
-13.39
-12.54
-11.60
-10.62
-9.60
-8.61
-7.74
-7.02
-6.50
-6.11
-5.78
-5.39
-4.93
-4.49
-4.21
-4.21
-4.44
-4.77
-5.00
-5.01
-4.88
-4.82
-5.00
-5.44
-6.03
-6.49
-6.63
-6.38
-5.88
-5.35
-5.04
-5.01
-5.16
-5.33
-5.39
-5.26
-5.00
-4.79
-4.77
-5.06
-5.63
-6.36
-7.07
-7.54
-7.66
-7.40
-6.89
-6.32
-5.89
-5.66
-5.59
-5.55
-5.41
-5.15
-4.85
-4.59
-4.43
-4.34
-4.26
-4.19
-4.17
-4.26
-4.39
-4.45
-4.23
-3.57
-2.53
-1.35
-0.35
0.25
0.37
0.21
0.01
0.01
0.28
0.73
1.24
1.69
2.07
2.45
2.90
3.53
4.41
5.62
7.22
9.22
11.60
14.19
16.76
19.08
20.91
22.24
23.26
24.22
25.48
27.26
29.63
32.46
35.52
38.51
41.19
43.47
45.44
47.29
49.32
51.69
54.45
57.48
60.64
63.77
66.78
69.72
72.59
75.43
78.15
80.65
82.86
84.76
86.41
87.82
88.93
89.48
89.19
87.76
85.01
81.00
75.95
70.24
64.28
58.39
52.63
46.78
40.34
32.68
23.24
11.76
-1.62
-16.39
-31.77
-46.87
-60.75
-72.48
-81.51
-88.11
-93.58
-99.93
-109.16
-122.17
-138.41
-156.00
-172.48
-185.62
-193.99
-196.94
-194.53
-187.28
-176.01
-161.80
-146.08
-130.50
-116.94
-107.26
-102.93
-104.46
-110.95
-119.87
-127.74
-131.31
-129.19
-122.44
-114.07
-107.60
-105.43
-108.13
-114.69
-123.56
-133.57
-143.99
-154.27
-163.47
-170.15
-172.79
-170.48
-163.33
-152.38
-139.04
-124.61
-109.72
-94.59
-79.14
-63.31
-47.22
-31.17
-15.57
-0.92
12.22
23.36
32.18
38.61
43.06
46.06
48.27
50.19
52.12
54.15
56.20
58.15
59.80
60.94
61.35
60.90
59.53
57.33
54.49
51.24
47.78
44.25
40.65
36.86
32.70
27.87
22.08
15.00
6.41
-3.64
-14.62
-25.43
-34.46
-39.93
-40.38
-35.16
-24.62
-10.12
6.49
23.26
38.68
51.68
61.69
68.43
71.92
72.44
70.65
67.51
64.06
61.04
58.71
56.74
54.48
51.35
47.13
42.14
37.14
32.96
30.23
28.96
28.62
28.26
26.88
23.80
18.85
12.41
5.20
-2.08
-8.96
-15.40
-21.74
-28.62
-36.74
-46.68
-58.64
-72.16
-86.00
-98.15
-106.16
-107.74
-101.46
-87.22
-66.39
-41.46
-15.26
9.72
31.94
50.87
66.65
79.72
90.39
98.75
104.81
108.72
110.80
111.53
111.24
110.03
107.72
104.12
99.22
93.37
87.19
81.31
76.08
71.42
66.85
61.70
55.40
47.73
38.87
29.28
19.48
9.77
0.08
-9.98
-21.10
-33.90
-48.74
-65.39
-82.81
-99.19
-112.13
-119.26
-118.78
-110.07
-93.81
-71.91
-46.90
-21.34
2.61
23.58
40.88
54.47
64.73
72.34
78.04
82.40
85.71
87.90
88.67
87.71
84.89
80.51
75.22
69.87
65.24
61.73
59.29
57.38
55.26
52.27
47.97
42.32
35.55
28.04
20.12
12.00
3.62
-5.40
-15.67
-27.79
-42.02
-57.80
-73.47
-86.49
-94.05
-93.92
-85.26
-68.94
-47.16
-22.79
1.48
23.71
42.84
58.43
70.42
78.97
84.31
86.90
87.32
86.20
84.04
81.10
77.39
72.88
67.65
61.97
56.37
51.34
47.19
43.92
41.20
38.50
35.32
31.32
26.40
20.65
14.20
7.13
-0.65
-9.40
-19.54
-31.47
-45.36
-60.72
-76.28
-89.94
-99.22
-101.83
-96.48
-83.33
-63.87
-40.60
-16.25
6.91
27.39
44.53
58.29
68.91
76.75
82.13
85.33
86.55
85.93
83.54
79.50
73.97
67.33
60.11
53.00
46.69
41.62
37.94
35.34
33.25
30.97
27.90
23.81
18.78
13.19
7.54
2.25
-2.61
-7.39
-12.79
-19.67
-28.50
-38.89
-49.37
-57.43
-60.25
-55.54
-42.44
-21.81
3.94
31.59
58.07
81.19
100.03
114.85
126.67
136.65
145.65
153.92
161.15
166.66
169.72
169.79
166.72
160.88
153.34
145.68
139.61
136.15
134.83
133.29
127.77
114.35
90.56
56.53
15.07
-29.48
-72.81
-112.00
-145.98
-175.07
-200.13
-221.88
-240.78
-257.24
-271.94
-285.58
-298.37
-309.42
-316.52
-316.74
-307.53
-287.83
-258.63
-222.78
-184.04
-145.96
-110.97
-80.02
-52.90
-28.80
-6.94
13.02
30.82
45.77
57.04
64.10
67.10
67.09
65.85
65.41
67.43
72.58
80.39
89.54
98.48
105.98
111.40
114.47
114.92
112.34
106.30
96.86
84.91
71.98
59.71
48.96
39.46
30.01
19.42
7.44
-4.68
-14.51
-19.48
-17.95
-9.93
3.02
18.40
33.75
47.22
57.83
65.30
69.72
71.38
70.73
68.43
65.30
62.05
59.02
55.99
52.30
47.29
40.77
33.29
25.96
19.91
15.69
12.95
10.58
7.26
2.12
-4.81
-12.56
-19.57
-24.22
-25.33
-22.59
-16.88
-10.37
-6.32
-8.30
-18.92
-38.48
-64.15
-90.30
-110.06
-117.60
-110.07
-88.45
-56.84
-20.68
15.07
47.08
73.75
94.51
109.08
117.28
119.21
115.83
109.17
102.01
97.04
95.95
98.88
104.50
110.74
115.85
119.12
121.19
123.54
127.63
134.12
142.57
151.86
160.84
168.91
176.00
182.06
186.55
188.09
185.06
176.31
161.99
143.68
123.79
104.63
87.44
72.20
57.87
43.18
27.23
9.85
-8.50
-27.01
-44.86
-61.38
-76.04
-88.41
-98.07
-104.70
-108.29
-109.24
-108.35
-106.67
-105.07
-104.09
-103.77
-103.85
-104.04
-104.22
-104.40
-104.57
-104.64
-104.38
-103.61
-102.36
-100.88
-99.54
-98.65
-98.29
-98.37
-98.65
-98.99
-99.33
-99.73
-100.25
-100.89
-101.55
-102.03
-102.01
-101.18
-99.29
-96.29
-92.43
-88.15
-83.98
-80.39
-77.74
-76.11
-75.36
-74.98
-74.11
-71.68
-66.74
-58.82
-48.35
-36.63
-25.59
-17.19
-12.76
-12.64
-16.16
-21.98
-28.51
-34.37
-38.61
-40.79
-40.85
-39.04
-35.80
-31.67
-27.15
-22.75
-18.95
-16.14
-14.62
-14.56
-15.81
-17.98
-20.46
-22.54
-23.78
-24.02
-23.48
-22.64
-21.98
-21.90
-22.53
-23.84
-25.60
-27.60
-29.60
-31.50
-33.34
-35.28
-37.65
-40.75
-44.82
-49.89
-55.61
-61.30
-65.92
-68.33
-67.56
-63.06
-54.94
-44.01
-31.51
-18.89
-7.29
2.57
10.49
16.65
21.36
24.88
27.32
28.75
29.18
28.78
27.75
26.35
24.80
23.18
21.58
19.99
18.41
16.85
15.27
13.58
11.71
9.65
7.49
5.42
3.51
1.72
-0.19
-2.49
-5.36
-8.83
-12.75
-16.90
-21.09
-25.22
-29.30
-33.34
-37.39
-41.51
-45.76
-50.06
-54.08
-57.06
-57.96
-55.78
-49.94
-40.61
-28.74
-15.75
-3.06
8.30
17.90
25.76
32.09
36.98
40.30
41.86
41.56
39.66
36.77
33.66
31.01
29.19
28.13
27.44
26.68
25.54
23.98
22.19
20.41
18.77
17.14
15.21
12.56
8.94
4.27
-1.22
-7.21
-13.29
-19.26
-24.98
-30.55
-36.20
-42.25
-49.13
-57.17
-66.56
-76.94
-87.34
-96.12
-101.29
-101.16
-94.82
-82.72
-66.43
-48.28
-30.57
-14.96
-2.14
8.02
16.08
22.56
27.71
31.48
33.80
34.73
34.61
33.89
33.03
32.27
31.66
31.13
30.58
30.03
29.57
29.31
29.22
29.09
28.56
27.27
25.00
21.71
17.64
13.12
8.42
3.65
-1.27
-6.51
-12.25
-18.52
-25.28
-32.56
-40.54
-49.54
-59.75
-70.85
-81.75
-90.66
-95.47
-94.51
-87.11
-73.90
-56.65
-37.61
-18.89
-1.93
12.61
24.66
34.51
42.47
48.83
53.81
57.73
60.86
63.48
65.67
67.24
67.85
67.11
64.88
61.37
57.21
53.22
50.07
48.04
46.90
45.99
44.63
42.33
39.07
35.15
31.01
26.92
22.90
18.75
14.19
9.03
3.27
-2.91
-9.29
-15.67
-21.93
-28.05
-34.08
-40.18
-46.58
-53.57
-61.38
-70.01
-79.11
-87.87
-95.11
-99.42
-99.58
-94.85
-85.24
-71.59
-55.32
-38.03
-21.06
-5.32
8.84
21.33
32.09
40.99
47.84
52.64
55.68
57.44
58.47
59.12
59.39
59.10
58.09
56.36
54.19
52.01
50.15
48.67
47.39
45.99
44.14
41.63
38.38
34.39
29.64
24.15
17.95
11.14
3.94
-3.30
-10.23
-16.54
-22.15
-27.25
-32.33
-38.09
-45.17
-53.92
-64.09
-74.68
-84.01
-90.02
-90.93
-85.71
-74.49
-58.49
-39.64
-20.05
-1.46
14.98
28.72
39.63
47.79
53.32
56.37
57.25
56.32
54.09
51.15
47.99
45.02
42.44
40.24
38.24
36.29
34.29
32.24
30.22
28.28
26.38
24.29
21.65
18.12
13.51
7.80
1.19
-5.95
-13.27
-20.50
-27.47
-34.23
-40.98
-48.14
-56.25
-65.90
-77.39
-90.40
-103.77
-115.41
-122.89
-123.97
-117.53
-103.91
-84.91
-63.12
-41.15
-20.85
-3.02
12.44
26.07
38.33
49.40
59.15
67.27
73.50
77.74
80.05
80.66
79.91
78.22
76.01
73.72
71.67
70.04
68.78
67.69
66.47
64.74
62.23
58.77
54.27
48.73
42.16
34.62
26.24
17.24
7.89
-1.51
-10.72
-19.65
-28.36
-37.08
-46.19
-56.23
-67.75
-81.10
-96.03
-111.40
-125.10
-134.39
-136.70
-130.42
-115.56
-93.76
-67.75
-40.55
-14.60
8.63
28.73
45.97
60.90
74.09
85.88
96.45
105.80
113.83
120.40
125.39
128.78
130.72
131.48
131.49
131.27
131.26
131.84
133.11
134.94
136.96
138.73
139.96
140.59
140.84
141.05
141.52
142.27
143.10
143.67
143.74
143.34
142.83
142.86
144.03
146.66
150.48
154.61
157.68
158.27
155.25
148.09
137.05
122.94
106.95
90.24
73.80
58.24
43.83
30.52
18.15
6.53
-4.43
-14.64
-23.97
-32.28
-39.55
-45.85
-51.35
-56.13
-60.29
-63.85
-66.85
-69.39
-71.55
-73.42
-74.99
-76.22
-77.04
-77.40
-77.35
-76.95
-76.33
-75.56
-74.70
-73.68
-72.49
-71.13
-69.71
-68.35
-67.18
-66.22
-65.38
-64.51
-63.46
-62.16
-60.67
-59.12
-57.57
-56.02
-54.33
-52.34
-50.07
-47.68
-45.48
-43.77
-42.70
-42.17
-41.89
-41.53
-40.95
-40.14
-39.25
-38.45
-37.84
-37.34
-36.91
-36.49
-36.10
-35.83
-35.69
-35.59
-35.40
-34.99
-34.36
-33.62
-32.99
-32.65
-32.61
-32.80
-32.97
-32.90
-32.49
-31.75
-30.83
-29.96
-29.35
-29.18
-29.45
-30.05
-30.72
-31.22
-31.31
-30.91
-30.00
-28.69
-27.09
-25.34
-23.71
-22.45
-21.80
-21.84
-22.41
-23.14
-23.70
-23.93
-23.91
-23.84
-23.78
-23.53
-22.59
-20.50
-17.02
-12.41
-7.28
-2.38
1.66
4.60
6.48
7.51
7.91
7.79
7.18
6.08
4.61
2.88
1.10
-0.65
-2.35
-4.05
-5.74
-7.32
-8.55
-9.26
-9.36
-9.03
-8.59
-8.36
-8.58
-9.27
-10.33
-11.54
-12.75
-13.83
-14.65
-15.22
-15.59
-15.87
-16.11
-16.27
-16.11
-15.39
-13.95
-11.90
-9.69
-7.89
-6.99
-7.14
-8.08
-9.28
-10.18
-10.44
-10.03
-9.24
-8.54
-8.36
-8.94
-10.30
-12.16
-14.11
-15.68
-16.48
-16.35
-15.31
-13.67
-11.90
-10.50
-9.83
-9.99
-10.83
-11.93
-12.84
-13.14
-12.57
-11.07
-8.71
-5.63
-2.08
1.64
5.18
8.25
10.65
12.42
13.77
15.03
16.54
18.56
21.16
24.25
27.61
30.91
33.71
35.51
35.91
34.73
32.25
29.28
26.99
26.56
28.85
34.08
41.79
51.02
60.61
69.47
76.73
81.65
83.56
81.93
76.51
67.56
55.89
42.77
29.43
16.74
4.98
-6.18
-17.30
-28.82
-40.79
-52.85
-64.42
-74.94
-84.13
-91.95
-98.54
-104.01
-108.29
-111.06
-111.84
-110.17
-105.88
-99.16
-90.59
-81.01
-71.19
-61.73
-52.89
-44.65
-36.94
-29.69
-22.96
-16.86
-11.44
-6.65
-2.23
2.13
6.65
11.33
15.94
20.05
23.32
25.68
27.28
28.47
29.49
30.47
31.26
31.61
31.29
30.15
28.14
25.35
21.92
18.02
13.89
9.68
5.44
1.11
-3.45
-8.31
-13.39
-18.48
-23.38
-28.06
-32.70
-37.64
-43.22
-49.66
-56.97
-64.94
-73.13
-80.77
-86.80
-89.94
-89.04
-83.42
-73.23
-59.47
-43.69
-27.62
-12.62
0.57
11.83
21.51
30.07
37.79
44.70
50.57
55.14
58.23
59.93
60.49
60.29
59.63
58.68
57.52
56.25
55.04
54.05
53.42
53.09
52.77
52.12
50.83
48.76
46.01
42.80
39.38
35.91
32.47
29.01
25.54
22.07
18.66
15.33
11.98
8.45
4.53
0.06
-4.98
-10.48
-16.25
-22.07
-27.84
-33.48
-39.06
-44.76
-50.85
-57.60
-65.07
-72.84
-79.95
-84.91
-86.15
-82.56
-74.00
-61.38
-46.37
-30.87
-16.35
-3.60
7.17
16.06
23.17
28.50
32.02
33.85
34.26
33.66
32.40
30.75
28.90
27.11
25.73
25.17
25.67
27.18
29.28
31.31
32.50
32.37
30.77
28.00
24.60
21.05
17.62
14.22
10.56
6.24
1.14
-4.67
-10.83
-16.98
-22.88
-28.55
-34.23
-40.35
-47.32
-55.44
-64.86
-75.35
-86.22
-96.22
-103.66
-106.77
-104.21
-95.55
-81.58
-64.12
-45.54
-28.01
-12.95
-0.84
8.63
16.10
22.11
26.99
30.86
33.91
36.45
38.93
41.70
44.77
47.79
50.22
51.53
51.57
50.59
49.16
47.94
47.34
47.35
47.57
47.38
46.20
43.78
40.24
35.98
31.45
26.90
22.20
16.94
10.61
2.92
-6.02
-15.78
-25.67
-35.12
-43.86
-52.04
-60.16
-68.89
-78.96
-90.87
-104.70
-119.81
-134.66
-146.90
-153.87
-153.39
-144.54
-128.04
-106.03
-81.36
-56.70
-33.78
-13.37
4.58
20.41
34.40
46.52
56.59
64.51
70.32
74.30
76.82
78.24
78.82
78.84
78.57
78.43
78.88
80.33
82.84
86.12
89.51
92.13
93.19
92.26
89.29
84.67
79.04
73.03
67.06
61.13
54.76
47.21
37.72
25.93
12.15
-2.73
-17.51
-31.08
-42.88
-53.05
-62.30
-71.69
-82.33
-95.09
-110.39
-127.96
-146.64
-164.29
-178.01
-184.84
-182.59
-170.62
-150.13
-123.84
-95.12
-66.98
-41.39
-19.10
0.04
16.57
30.97
43.55
54.43
63.73
71.60
78.18
83.66
88.03
91.30
93.47
94.63
94.96
94.75
94.28
93.72
93.13
92.34
91.05
88.93
85.65
81.02
74.99
67.69
59.50
50.96
42.62
34.84
27.59
20.43
12.74
4.06
-5.49
-15.26
-24.23
-31.58
-37.14
-41.55
-46.13
-52.28
-61.05
-72.66
-86.48
-101.10
-114.64
-125.02
-130.33
-129.16
-120.88
-105.84
-85.27
-61.05
-35.24
-9.72
14.10
35.39
53.80
69.43
82.72
94.30
104.88
115.00
124.88
134.26
142.52
148.93
152.94
154.47
153.92
152.11
149.97
148.24
147.18
146.53
145.58
143.45
139.44
133.26
125.22
115.93
106.21
96.61
87.29
78.06
68.47
58.09
46.69
34.38
21.54
8.77
-3.39
-14.58
-24.85
-34.66
-44.70
-55.80
-68.62
-83.37
-99.60
-116.13
-131.13
-142.48
-148.33
-147.53
-140.08
-127.07
-110.33
-91.83
-73.15
-55.16
-38.08
-21.81
-6.25
8.50
22.11
34.18
44.43
52.80
59.48
64.78
69.07
72.59
75.53
78.00
80.13
82.14
84.29
86.86
90.04
93.91
98.41
103.24
107.75
110.90
111.25
107.36
98.30
84.03
65.66
45.10
24.48
5.53
-10.85
-24.54
-35.91
-45.42
-53.37
-59.95
-65.45
-70.35
-75.35
-81.05
-87.72
-95.09
-102.38
-108.44
-112.11
-112.45
-108.99
-101.69
-90.85
-77.01
-61.00
-43.97
-27.35
-12.77
-1.69
4.95
7.08
5.58
2.07
-1.56
-3.72
-3.49
-0.78
3.82
9.38
14.98
19.95
24.01
27.02
29.03
30.16
30.68
31.04
31.73
32.99
34.36
34.67
32.33
26.00
15.30
1.10
-14.74
-30.13
-43.51
-54.24
-62.54
-68.93
-73.86
-77.45
-79.75
-80.83
-80.88
-79.86
-77.30
-72.24
-63.68
-51.13
-35.10
-17.16
0.68
16.71
30.16
41.40
51.41
61.23
71.36
81.68
91.59
100.47
107.70
112.82
115.33
114.70
110.50
102.63
91.55
78.20
63.81
49.45
35.75
22.73
9.88
-3.64
-18.59
-35.39
-53.88
-73.21
-92.11
-109.15
-123.10
-133.23
-139.30
-141.48
-140.23
-136.20
-130.24
-123.45
-117.15
-112.73
-111.21
-112.83
-116.68
-120.78
-122.47
-119.23
-109.40
-92.60
-69.74
-42.54
-12.88
17.52
47.37
75.68
101.60
124.41
143.64
159.15
171.22
180.38
187.19
192.03
195.08
196.37
195.97
194.09
191.14
187.56
183.78
180.09
176.54
173.05
169.45
165.57
161.23
156.18
150.20
143.18
135.04
126.05
116.58
107.14
98.11
89.72
81.99
74.96
68.70
63.45
59.42
56.64
54.92
53.71
52.45
50.55
47.60
43.35
37.62
30.37
21.73
11.98
1.66
-8.64
-18.54
-27.91
-36.93
-45.90
-54.93
-63.87
-72.33
-79.79
-85.91
-90.73
-94.56
-97.86
-101.11
-104.59
-108.43
-112.63
-117.05
-121.44
-125.50
-128.87
-131.33
-132.93
-134.03
-135.25
-137.25
-140.42
-144.59
-149.07
-152.77
-154.73
-154.47
-152.18
-148.70
-145.05
-142.04
-139.85
-138.00
-135.40
-130.74
-123.04
-112.06
-98.56
-84.22
-71.10
-61.05
-55.11
-53.23
-54.45
-57.31
-60.40
-62.54
-63.05
-61.52
-57.79
-52.00
-44.58
-36.20
-27.66
-19.62
-12.45
-6.22
-0.73
4.28
9.00
13.47
17.63
21.25
24.11
26.10
27.30
28.04
28.82
30.13
32.26
35.17
38.45
41.45
43.46
43.98
42.82
40.16
36.33
31.73
26.64
21.26
15.76
10.25
4.83
-0.43
-5.54
-10.51
-15.32
-19.96
-24.32
-28.45
-32.42
-36.40
-40.32
-43.84
-46.22
-46.65
-44.54
-39.76
-32.83
-24.66
-16.29
-8.49
-1.69
4.14
9.27
14.06
18.82
23.70
28.67
33.52
37.92
41.47
43.88
45.00
44.87
43.82
42.33
40.96
40.12
39.98
40.30
40.55
40.06
38.34
35.20
30.85
25.76
20.42
15.21
10.33
5.85
1.74
-1.99
-5.34
-8.32
-11.00
-13.51
-16.00
-18.59
-21.33
-24.31
-27.60
-31.35
-35.63
-40.43
-45.50
-50.29
-54.06
-55.97
-55.37
-51.91
-45.69
-37.11
-26.82
-15.54
-3.97
7.27
17.72
27.09
35.29
42.32
48.31
53.32
57.35
60.40
62.47
63.63
64.00
63.70
62.74
61.16
59.02
56.52
53.96
51.65
49.75
48.16
46.61
44.74
42.25
39.13
35.54
31.87
28.54
25.81
23.67
21.79
19.63
16.66
12.64
7.70
2.33
-2.90
-7.44
-11.05
-13.69
-15.57
-16.99
-18.26
-19.52
-20.72
-21.51
-21.45
-20.10
-17.39
-13.52
-9.02
-4.44
-0.19
3.62
7.09
10.50
14.19
18.57
24.04
30.82
38.77
47.33
55.56
62.44
67.07
68.91
67.67
63.26
55.53
44.37
29.84
12.39
-6.96
-26.85
-45.92
-63.32
-78.90
-93.28
-107.36
-121.81
-136.76
-151.73
-166.03
-179.38
-192.23
-205.80
-221.82
-242.09
-267.92
-299.51
-335.43
-372.40
-405.83
-430.76
-443.36
-442.07
-428.04
-404.48
-375.50
-344.80
-314.97
-287.51
-263.30
-243.04
-227.37
-216.46
-209.61
-205.24
-201.11
-195.06
-185.61
-172.35
-155.89
-137.49
-118.50
-100.14
-83.39
-68.98
-57.35
-48.55
-42.11
-37.05
-32.13
-26.37
-19.30
-11.10
-2.34
6.34
14.51
22.09
29.13
35.88
42.52
49.31
56.42
63.92
71.72
79.56
87.21
94.61
102.05
110.06
119.24
129.98
142.19
155.49
169.21
182.84
196.19
209.61
223.91
240.35
260.37
284.96
313.97
345.26
374.76
397.28
408.20
405.27
389.46
364.58
335.58
306.73
280.29
256.58
234.94
214.90
196.95
182.43
172.89
169.45
172.43
181.42
195.29
212.44
230.91
248.86
265.07
279.57
293.67
309.55
329.09
352.68
378.43
402.27
419.01
423.87
413.82
388.39
349.56
300.96
246.93
191.73
138.92
91.21
50.30
16.85
-9.50
-29.98
-46.31
-60.31
-73.34
-86.09
-98.41
-109.55
-118.50
-124.44
-127.07
-126.75
-124.42
-121.21
-118.13
-115.80
-114.33
-113.46
-112.71
-111.57
-109.63
-106.67
-102.71
-98.06
-93.19
-88.62
-84.73
-81.55
-78.84
-76.23
-73.50
-70.67
-67.99
-65.68
-63.79
-62.05
-60.10
-57.70
-54.85
-51.79
-48.71
-45.64
-42.35
-38.54
-34.13
-29.37
-24.83
-21.08
-18.39
-16.63
-15.39
-14.23
-12.92
-11.47
-10.04
-8.73
-7.57
-6.49
-5.51
-4.73
-4.36
-4.52
-5.17
-6.09
-7.00
-7.70
-8.16
-8.49
-8.87
-9.48
-10.37
-11.55
-12.94
-14.42
-15.83
-17.01
-17.86
-18.34
-18.54
-18.63
-18.84
-19.31
-20.09
-21.06
-22.05
-22.82
-23.20
-23.12
-22.53
-21.49
-20.02
-18.17
-16.03
-13.69
-11.31
-9.04
-7.05
-5.41
-4.13
-3.14
-2.37
-1.79
-1.41
-1.26
-1.34
-1.51
-1.59
-1.39
-0.85
-0.09
0.63
1.07
1.12
0.89
0.58
0.40
0.30
0.11
-0.43
-1.53
-3.14
-5.07
-7.08
-8.94
-10.59
-12.00
-13.19
-14.11
-14.80
-15.35
-16.03
-17.18
-19.07
-21.75
-24.93
-28.08
-30.63
-32.16
-32.53
-31.82
-30.28
-28.05
-25.14
-21.44
-16.84
-11.39
-5.36
0.79
6.59
11.64
15.74
18.85
21.03
22.38
23.03
23.09
22.69
22.03
21.26
20.52
19.91
19.42
18.95
18.33
17.31
15.66
13.32
10.40
7.27
4.34
1.94
0.17
-1.18
-2.42
-3.89
-5.76
-8.03
-10.60
-13.41
-16.44
-19.73
-23.29
-27.04
-30.84
-34.51
-37.98
-41.25
-44.40
-47.45
-50.24
-52.43
-53.56
-53.23
-51.31
-47.94
-43.49
-38.32
-32.70
-26.76
-20.60
-14.43
-8.58
-3.42
0.81
4.09
6.71
8.97
11.05
12.95
14.42
15.23
15.32
14.89
14.24
13.72
13.50
13.57
13.73
13.71
13.32
12.45
11.11
9.35
7.28
4.96
2.42
-0.32
-3.27
-6.43
-9.82
-13.43
-17.23
-21.16
-25.16
-29.13
-33.00
-36.75
-40.45
-44.27
-48.47
-53.32
-59.03
-65.58
-72.61
-79.40
-84.97
-88.31
-88.66
-85.78
-79.96
-71.91
-62.55
-52.73
-43.06
-33.98
-25.76
-18.60
-12.62
-7.84
-4.09
-1.04
1.75
4.77
8.41
12.94
18.56
25.41
33.60
43.13
53.83
65.31
76.97
88.13
98.19
106.87
114.18
120.47
126.27
132.10
138.32
145.02
151.97
158.61
164.04
167.18
167.04
163.03
155.22
144.34
131.55
118.08
104.75
91.85
79.13
66.07
52.22
37.36
21.57
5.23
-11.16
-27.01
-41.73
-54.77
-65.66
-74.11
-80.08
-83.76
-85.55
-85.97
-85.55
-84.69
-83.70
-82.66
-81.55
-80.22
-78.47
-76.21
-73.42
-70.26
-66.96
-63.80
-60.95
-58.52
-56.42
-54.50
-52.58
-50.50
-48.24
-45.77
-43.17
-40.53
-38.00
-35.76
-33.92
-32.54
-31.52
-30.71
-29.99
-29.34
-28.89
-28.87
-29.44
-30.53
-31.83
-32.87
-33.26
-32.92
-32.11
-31.43
-31.54
-32.90
-35.58
-39.29
-43.36
-46.98
-49.37
-49.87
-48.09
-43.93
-37.61
-29.64
-20.71
-11.57
-2.79
5.32
12.75
19.61
25.96
31.63
36.33
39.74
41.70
42.36
42.10
41.37
40.56
39.79
39.03
38.14
37.04
35.82
34.66
33.77
33.22
32.90
32.46
31.52
29.70
26.87
23.06
18.45
13.33
7.92
2.47
-2.83
-7.83
-12.39
-16.51
-20.28
-23.80
-27.18
-30.52
-33.86
-37.34
-41.16
-45.60
-50.88
-57.00
-63.68
-70.35
-76.18
-80.33
-82.02
-80.73
-76.25
-68.75
-58.68
-46.75
-33.68
-20.16
-6.75
6.02
17.70
27.84
36.09
42.32
46.69
49.57
51.37
52.43
52.93
52.91
52.44
51.60
50.61
49.70
49.07
48.70
48.52
48.33
47.94
47.11
45.67
43.41
40.26
36.26
31.67
26.91
22.47
18.75
15.96
14.03
12.71
11.65
10.51
9.05
7.10
4.58
1.50
-2.04
-5.87
-9.76
-13.62
-17.55
-21.77
-26.62
-32.34
-39.07
-46.69
-54.94
-63.27
-70.89
-76.79
-79.94
-79.61
-75.62
-68.45
-59.04
-48.40
-37.20
-25.67
-13.71
-1.16
11.87
24.90
37.18
47.91
56.44
62.43
65.84
66.88
65.98
63.66
60.49
56.97
53.46
50.11
46.88
43.55
39.87
35.61
30.77
25.60
20.60
16.39
13.49
12.04
11.74
11.84
11.41
9.72
6.55
2.32
-1.94
-4.91
-5.35
-2.42
4.18
14.13
26.60
40.41
54.26
66.99
77.89
86.83
94.20
100.54
106.07
110.42
112.58
111.37
105.97
96.26
83.03
67.60
51.42
35.57
20.65
6.74
-6.36
-18.96
-31.27
-43.40
-55.21
-66.31
-76.24
-84.43
-90.42
-93.98
-95.11
-94.07
-91.28
-87.30
-82.69
-77.98
-73.56
-69.68
-66.37
-63.54
-60.93
-58.28
-55.38
-52.14
-48.59
-44.86
-41.10
-37.45
-34.02
-30.90
-28.16
-25.87
-24.06
-22.74
-21.76
-20.94
-20.10
-19.15
-18.21
-17.48
-17.23
-17.57
-18.41
-19.51
-20.56
-21.32
-21.71
-21.77
-21.55
-21.08
-20.37
-19.43
-18.36
-17.30
-16.41
-15.75
-15.26
-14.77
-14.14
-13.26
-12.22
-11.22
-10.47
-10.13
-10.18
-10.46
-10.73
-10.78
-10.41
-9.59
-8.44
-7.14
-5.97
-5.20
-5.01
-5.48
-6.51
-7.92
-9.48
-10.99
-12.33
-13.49
-14.49
-15.41
-16.35
-17.39
-18.65
-20.22
-22.18
-24.50
-27.13
-30.02
-33.11
-36.49
-40.28
-44.56
-49.26
-54.05
-58.31
-61.28
-62.24
-60.65
-56.35
-49.50
-40.51
-29.93
-18.25
-5.97
6.42
18.36
29.20
38.36
45.48
50.58
54.08
56.64
58.85
61.04
63.15
64.82
65.61
65.28
63.82
61.52
58.75
55.85
53.02
50.35
47.80
45.32
42.80
40.07
37.00
33.47
29.45
25.02
20.43
15.97
11.89
8.29
5.07
2.02
-1.15
-4.67
-8.64
-13.02
-17.70
-22.50
-27.36
-32.34
-37.64
-43.44
-49.75
-56.29
-62.38
-67.16
-69.71
-69.38
-65.98
-59.80
-51.45
-41.69
-31.17
-20.43
-9.84
0.29
9.67
17.98
24.97
30.53
34.66
37.49
39.26
40.16
40.41
40.14
39.51
38.64
37.65
36.61
35.54
34.36
32.94
31.23
29.27
27.19
25.18
23.35
21.66
19.86
17.59
14.55
10.59
5.85
0.69
-4.48
-9.35
-13.86
-18.21
-22.74
-27.77
-33.54
-40.11
-47.31
-54.81
-61.96
-67.84
-71.37
-71.57
-67.83
-60.26
-49.61
-37.05
-23.80
-10.70
1.76
13.35
23.86
32.93
40.14
45.19
48.09
49.23
49.26
48.81
48.33
47.98
47.65
47.11
46.20
44.87
43.25
41.54
39.89
38.28
36.53
34.35
31.48
27.80
23.38
18.44
13.32
8.35
3.79
-0.27
-3.93
-7.45
-11.16
-15.34
-20.07
-25.27
-30.70
-36.11
-41.40
-46.60
-51.94
-57.64
-64.01
-71.22
-79.23
-87.62
-95.46
-101.45
-104.19
-102.65
-96.49
-86.19
-72.77
-57.45
-41.26
-24.85
-8.62
7.19
22.26
36.16
48.44
58.74
66.87
72.78
76.62
78.58
78.97
78.13
76.45
74.37
72.30
70.59
69.36
68.52
67.74
66.67
64.97
62.57
59.61
56.44
53.38
50.60
48.01
45.28
42.06
38.08
33.35
28.06
22.56
17.08
11.73
6.42
0.98
-4.70
-10.65
-16.80
-23.04
-29.29
-35.51
-41.71
-48.01
-54.58
-61.63
-69.39
-77.93
-87.13
-96.56
-105.46
-112.75
-117.24
-117.84
-113.87
-105.37
-93.16
-78.63
-63.36
-48.64
-35.20
-23.17
-12.44
-2.90
5.30
11.78
16.21
18.42
18.59
17.07
14.27
10.44
5.81
0.58
-4.87
-10.06
-14.52
-18.05
-20.90
-23.75
-27.56
-33.19
-41.13
-51.23
-62.74
-74.55
-85.63
-95.49
-104.47
-113.75
-124.91
-139.37
-157.62
-178.84
-200.97
-221.24
-237.10
-247.02
-251.06
-250.65
-248.07
-245.51
-244.38
-245.04
-246.85
-248.62
-248.92
-246.46
-240.16
-229.41
-214.13
-194.88
-172.86
-149.63
-126.78
-105.56
-86.64
-70.18
-55.96
-43.58
-32.63
-22.70
-13.36
-4.20
5.11
14.81
24.95
35.47
46.33
57.48
68.95
80.84
93.17
105.92
119.11
132.93
147.74
163.85
181.01
198.07
212.91
222.90
225.83
220.72
208.23
190.30
169.39
147.63
126.32
105.94
86.49
67.83
49.69
31.58
12.78
-7.34
-28.72
-50.08
-68.95
-82.39
-88.01
-84.97
-74.29
-58.38
-40.02
-21.38
-3.44
13.94
31.55
50.24
70.50
92.31
115.02
137.50
158.26
175.80
188.94
197.23
201.04
201.39
199.65
197.09
194.60
192.58
191.07
189.84
188.53
186.70
183.85
179.51
173.35
165.33
155.77
145.29
134.63
124.31
114.47
104.76
94.55
83.24
70.60
56.89
42.83
29.24
16.72
5.37
-5.31
-16.29
-28.74
-43.62
-61.22
-80.72
-100.08
-116.33
-126.22
-127.22
-118.31
-100.32
-75.69
-47.59
-19.07
7.71
31.71
52.79
71.29
87.61
102.10
114.93
126.22
136.00
144.28
150.90
155.65
158.29
158.69
156.96
153.55
149.18
144.69
140.81
137.88
135.77
133.91
131.49
127.77
122.32
115.12
106.52
97.10
87.43
77.87
68.54
59.26
49.70
39.51
28.53
16.82
4.72
-7.26
-18.67
-29.25
-39.09
-48.72
-58.95
-70.71
-84.65
-100.68
-117.65
-133.36
-144.85
-149.30
-144.89
-131.39
-110.31
-84.40
-56.78
-30.13
-6.18
14.37
31.60
46.00
58.12
68.37
77.03
84.22
89.90
93.95
96.22
96.63
95.23
92.27
88.20
83.59
79.04
75.02
71.74
69.11
66.72
64.02
60.50
55.88
50.14
43.52
36.28
28.61
20.52
11.95
2.87
-6.53
-15.86
-24.69
-32.71
-39.95
-46.81
-53.97
-62.20
-72.10
-83.80
-96.70
-109.38
-119.69
-125.19
-123.80
-114.47
-97.60
-75.03
-49.51
-23.97
-0.70
19.00
34.89
47.36
57.06
64.48
69.86
73.22
74.54
73.92
71.67
68.24
64.10
59.75
55.60
51.98
49.07
46.88
45.17
43.53
41.47
38.63
34.87
30.28
25.06
19.36
13.16
6.29
-1.42
-10.01
-19.28
-28.88
-38.39
-47.53
-56.21
-64.58
-72.96
-81.85
-91.85
-103.44
-116.70
-130.91
-144.31
-154.36
-158.26
-153.91
-140.59
-119.39
-92.78
-63.97
-35.94
-10.84
10.30
27.38
40.93
51.73
60.53
67.96
74.31
79.56
83.43
85.50
85.49
83.43
79.71
74.99
70.01
65.35
61.33
58.01
55.24
52.74
50.17
47.14
43.36
38.66
33.00
26.46
19.16
11.16
2.52
-6.71
-16.41
-26.31
-36.04
-45.25
-53.74
-61.62
-69.40
-77.87
-87.91
-100.00
-113.80
-127.82
-139.58
-146.20
-145.23
-135.53
-117.68
-93.77
-66.72
-39.41
-14.00
8.27
26.99
42.31
54.59
64.27
71.88
77.87
82.55
86.00
88.06
88.40
86.79
83.31
78.39
72.85
67.49
62.98
59.56
57.03
54.83
52.31
48.97
44.62
39.31
33.23
26.54
19.24
11.26
2.52
-6.91
-16.77
-26.70
-36.28
-45.18
-53.24
-60.52
-67.37
-74.41
-82.42
-92.12
-103.70
-116.41
-128.48
-137.32
-140.28
-135.49
-122.51
-102.55
-78.01
-51.80
-26.53
-4.02
14.83
29.89
41.52
50.20
56.46
60.71
63.24
64.25
63.89
62.29
59.61
55.97
51.50
46.31
40.57
34.60
28.87
23.90
20.00
17.12
14.70
11.80
7.48
1.09
-7.44
-17.60
-28.52
-39.23
-49.03
-57.65
-65.22
-72.20
-79.14
-86.56
-94.73
-103.44
-111.85
-118.42
-121.18
-118.28
-108.66
-92.55
-71.56
-48.26
-25.36
-4.87
12.34
26.60
38.85
50.08
60.79
70.91
80.01
87.70
93.88
98.69
102.35
104.82
105.80
104.67
100.88
94.05
84.02
70.73
54.02
33.78
10.19
-15.89
-42.87
-68.69
-91.39
-109.67
-123.11
-131.88
-136.22
-136.08
-131.11
-121.18
-106.88
-89.89
-72.78
-58.40
-49.14
-46.24
-49.56
-57.76
-68.60
-79.19
-86.25
-86.52
-77.42
-58.01
-29.75
3.58
36.94
65.84
87.93
103.64
115.24
125.33
135.19
144.43
151.66
155.80
156.89
156.05
154.52
152.67
149.78
144.50
135.84
123.86
109.66
94.91
81.01
68.57
57.39
46.87
36.48
25.99
15.55
5.40
-4.30
-13.67
-22.95
-32.38
-41.92
-51.29
-59.95
-67.40
-73.49
-78.52
-83.30
-88.86
-96.01
-104.82
-114.30
-122.52
-127.05
-125.77
-117.64
-103.11
-83.93
-62.57
-41.46
-22.29
-5.84
7.85
19.17
28.49
36.02
41.75
45.63
47.69
48.06
47.05
44.99
42.21
38.99
35.50
31.92
28.42
25.16
22.26
19.72
17.37
14.87
11.81
7.80
2.56
-4.00
-11.76
-20.40
-29.49
-38.54
-47.15
-55.11
-62.43
-69.29
-75.94
-82.52
-88.96
-94.91
-99.71
-102.47
-102.10
-97.54
-88.00
-73.21
-53.64
-30.55
-5.74
18.77
41.19
60.28
75.52
86.93
94.92
99.96
102.49
102.82
101.23
98.01
93.49
88.01
81.82
75.01
67.61
59.64
51.28
42.90
35.00
28.04
22.32
17.84
14.39
11.61
9.07
6.33
2.94
-1.40
-6.85
-13.15
-19.75
-25.92
-31.09
-35.06
-38.14
-40.98
-44.30
-48.68
-54.23
-60.57
-66.76
-71.43
-73.04
-70.25
-62.26
-49.16
-31.93
-12.26
7.91
26.84
43.31
56.70
66.85
73.94
78.18
79.70
78.49
74.54
67.86
58.75
47.78
35.84
23.89
12.84
3.32
-4.41
-10.57
-15.58
-19.97
-24.18
-28.43
-32.81
-37.35
-42.02
-46.81
-51.66
-56.33
-60.50
-63.82
-66.09
-67.37
-68.02
-68.57
-69.68
-71.96
-75.91
-81.72
-89.12
-97.18
-104.33
-108.68
-108.44
-102.54
-90.91
-74.54
-55.08
-34.43
-14.24
4.35
20.67
34.47
45.72
54.54
61.08
65.53
68.05
68.81
67.94
65.62
62.04
57.50
52.39
47.23
42.55
38.77
36.00
34.00
32.19
29.96
26.83
22.68
17.70
12.16
6.29
0.04
-6.77
-14.32
-22.58
-31.24
-39.82
-47.85
-55.12
-61.70
-68.03
-74.67
-82.21
-90.98
-100.75
-110.66
-119.22
-124.60
-125.12
-119.84
-108.82
-93.23
-74.92
-55.93
-37.90
-21.80
-7.93
3.89
13.96
22.59
29.99
36.31
41.64
46.01
49.44
51.86
53.25
53.56
52.87
51.34
49.22
46.80
44.39
42.26
40.59
39.42
38.53
37.52
35.84
32.96
28.53
22.51
15.21
7.20
-0.83
-8.32
-15.02
-21.05
-26.86
-33.07
-40.20
-48.51
-57.86
-67.62
-76.74
-83.88
-87.63
-86.87
-81.08
-70.54
-56.33
-40.07
-23.43
-7.79
5.96
17.42
26.40
32.81
36.67
38.26
38.27
37.87
38.46
41.32
47.20
56.07
67.15
79.14
90.68
100.67
108.55
114.30
118.25
120.80
122.20
122.41
121.17
118.12
112.96
105.49
95.54
82.92
67.45
49.14
28.41
6.26
-15.89
-36.53
-54.60
-69.92
-83.18
-95.74
-109.13
-124.57
-142.63
-162.98
-184.25
-204.10
-219.44
-227.04
-224.34
-210.32
-185.93
-153.91
-118.07
-82.24
-49.41
-21.28
1.75
20.24
35.22
47.83
59.01
69.35
78.94
87.47
94.24
98.44
99.32
96.54
90.36
81.67
71.87
62.53
54.93
49.66
46.40
43.93
40.62
34.91
26.01
14.23
1.00
-11.54
-21.35
-27.15
-28.80
-27.17
-23.58
-19.06
-14.02
-8.30
-1.58
6.10
14.11
21.24
26.12
27.52
24.71
17.71
7.38
-4.47
-15.25
-22.12
-22.75
-16.15
-3.17
13.66
30.76
44.63
52.82
54.53
50.58
42.96
33.98
25.61
19.10
14.86
12.73
12.27
12.94
14.20
15.52
16.42
16.58
16.01
15.15
14.67
15.25
17.16
20.06
23.04
24.94
24.77
22.06
16.90
9.82
1.41
-7.98
-18.36
-29.95
-42.86
-56.79
-70.92
-84.07
-95.10
-103.32
-108.75
-112.11
-114.62
-117.55
-121.82
-127.65
-134.33
-140.38
-143.81
-142.67
-135.64
-122.39
-103.72
-81.28
-57.13
-33.20
-10.87
9.12
26.58
41.67
54.65
65.67
74.74
81.71
86.31
88.34
87.70
84.55
79.25
72.36
64.52
56.39
48.62
41.79
36.38
32.69
30.69
29.97
29.73
29.02
26.93
22.92
16.91
9.32
0.80
-8.01
-16.66
-25.03
-33.23
-41.50
-50.23
-59.74
-70.24
-81.55
-92.87
-102.66
-108.85
-109.42
-103.11
-90.02
-71.69
-50.61
-29.43
-10.22
6.01
19.19
29.75
38.23
44.93
49.97
53.50
55.77
57.22
58.25
59.02
59.34
58.74
56.66
52.82
47.43
41.28
35.58
31.54
30.00
31.15
34.44
38.91
43.42
47.08
49.32
49.92
48.81
46.00
41.48
35.17
26.97
16.66
4.05
-10.97
-28.15
-46.63
-64.81
-80.57
-91.72
-96.56
-94.44
-85.84
-72.26
-55.71
-38.27
-21.58
-6.76
5.64
15.61
23.42
29.59
34.73
39.34
43.70
47.74
51.12
53.29
53.76
52.23
48.80
43.92
38.36
32.93
28.29
24.75
22.09
19.70
16.74
12.48
6.58
-0.83
-9.10
-17.41
-25.02
-31.55
-37.15
-42.41
-48.17
-55.22
-63.88
-73.75
-83.55
-91.30
-94.77
-92.14
-82.66
-66.90
-46.69
-24.52
-2.83
16.56
32.68
45.36
54.92
61.87
66.73
69.98
72.02
73.18
73.66
73.50
72.57
70.67
67.66
63.49
58.39
52.86
47.53
43.04
39.84
37.90
36.76
35.65
33.71
30.37
25.53
19.56
13.08
6.71
0.79
-4.76
-10.34
-16.62
-24.27
-33.70
-44.72
-56.37
-66.89
-74.01
-75.60
-70.38
-58.43
-41.23
-21.27
-1.24
16.66
31.18
42.08
49.76
54.96
58.40
60.64
62.05
62.78
62.77
61.84
59.68
56.02
50.75
44.01
36.27
28.20
20.55
13.99
8.84
4.98
1.86
-1.20
-4.80
-9.15
-14.13
-19.31
-24.33
-29.02
-33.56
-38.39
-44.04
-50.98
-59.39
-68.88
-78.41
-86.23
-90.23
-88.48
-79.87
-64.59
-44.18
-21.12
1.86
22.55
39.66
52.84
62.42
68.99
73.08
75.04
75.15
73.65
70.89
67.25
63.02
58.38
53.30
47.75
41.81
35.84
30.36
25.93
22.78
20.68
18.97
16.74
13.25
8.15
1.67
-5.53
-12.64
-19.01
-24.42
-29.11
-33.82
-39.41
-46.68
-55.88
-66.52
-77.21
-85.80
-89.97
-87.83
-78.63
-63.07
-43.15
-21.60
-1.09
16.43
30.06
39.83
46.37
50.46
52.70
53.51
53.11
51.71
49.47
46.61
43.27
39.50
35.34
30.83
26.11
21.48
17.34
14.03
11.69
10.17
8.98
7.50
5.06
1.24
-4.01
-10.34
-17.13
-23.69
-29.53
-34.54
-38.96
-43.36
-48.36
-54.52
-62.14
-71.08
-80.57
-89.16
-94.84
-95.52
-89.72
-77.08
-58.69
-36.83
-14.27
6.49
23.84
37.19
46.84
53.47
57.83
60.49
61.82
62.02
61.26
59.66
57.35
54.45
51.07
47.34
43.42
39.55
36.08
33.32
31.49
30.54
30.09
29.49
28.01
25.15
20.78
15.26
9.25
3.44
-1.72
-6.21
-10.43
-14.93
-20.17
-26.25
-32.83
-39.32
-45.09
-49.80
-53.58
-56.96
-60.73
-65.75
-72.60
-81.33
-91.23
-100.78
-107.82
-110.06
-105.75
-94.33
-76.67
-54.90
-31.83
-10.14
8.22
22.31
32.06
37.99
40.82
41.28
39.96
37.40
34.11
30.50
26.80
22.88
18.37
12.78
5.92
-1.98
-10.19
-17.78
-23.97
-28.63
-32.23
-35.61
-39.59
-44.43
-49.71
-54.34
-56.78
-55.42
-48.94
-36.83
-19.80
0.05
19.49
34.90
43.22
43.02
34.90
21.33
5.69
-8.90
-20.52
-28.69
-33.87
-36.62
-36.95
-34.14
-27.24
-15.77
-0.30
17.53
35.54
51.58
64.13
72.53
76.88
77.83
76.36
73.63
70.70
68.40
67.14
66.80
66.71
65.82
62.93
57.21
48.58
37.88
26.96
18.10
13.51
14.66
22.12
35.57
54.12
76.56
101.49
127.39
152.64
175.72
195.54
211.65
224.37
234.68
244.01
253.93
265.71
279.56
293.83
304.82
307.30
296.08
267.95
223.09
165.10
99.84
33.36
-29.63
-86.48
-136.00
-177.37
-209.49
-231.06
-241.49
-241.67
-234.39
-223.81
-214.35
-209.52
-210.99
-218.49
-230.23
-243.81
-257.11
-268.67
-277.62
-283.20
-284.29
-279.36
-266.97
-246.44
-218.42
-184.97
-149.09
-113.80
-81.46
-53.23
-29.17
-8.63
9.31
25.40
40.03
53.30
65.16
75.61
84.76
92.75
99.60
105.09
108.74
110.01
108.51
104.19
97.39
88.70
78.80
68.30
57.76
47.57
38.04
29.40
21.80
15.29
9.79
5.10
0.95
-2.91
-6.69
-10.36
-13.81
-16.87
-19.43
-21.57
-23.46
-25.36
-27.38
-29.53
-31.70
-33.73
-35.54
-37.05
-38.28
-39.22
-39.88
-40.25
-40.31
-40.04
-39.44
-38.57
-37.51
-36.39
-35.26
-34.10
-32.82
-31.30
-29.52
-27.66
-26.07
-25.05
-24.72
-24.85
-24.91
-24.28
-22.54
-19.54
-15.46
-10.63
-5.45
-0.23
4.83
9.57
13.84
17.54
20.63
23.16
25.29
27.21
28.98
30.52
31.56
31.85
31.27
29.90
28.12
26.39
25.13
24.52
24.48
24.68
24.78
24.55
23.91
23.04
22.22
21.75
21.87
22.64
23.93
25.45
26.82
27.66
27.73
26.99
25.59
23.85
22.10
20.60
19.47
18.60
17.71
16.40
14.26
10.99
6.48
0.91
-5.33
-11.67
-17.52
-22.37
-25.91
-28.08
-28.99
-28.88
-28.06
-26.85
-25.48
-24.13
-22.82
-21.45
-19.81
-17.61
-14.69
-11.07
-7.04
-3.08
0.32
2.84
4.45
5.39
5.99
6.49
6.93
7.15
6.91
5.99
4.33
2.01
-0.79
-3.74
-6.51
-8.74
-10.22
-10.92
-11.08
-11.07
-11.33
-12.09
-13.42
-15.18
-17.20
-19.26
-21.20
-22.83
-23.89
-24.17
-23.52
-21.96
-19.69
-16.99
-14.15
-11.36
-8.75
-6.37
-4.27
-2.52
-1.14
-0.14
0.52
0.90
1.07
1.07
0.95
0.71
0.41
0.05
-0.40
-0.97
-1.64
-2.37
-3.02
-3.45
-3.66
-3.74
-3.92
-4.42
-5.36
-6.71
-8.27
-9.78
-11.03
-11.96
-12.65
-13.34
-14.35
-15.95
-18.30
-21.33
-24.65
-27.64
-29.56
-29.84
-28.27
-25.06
-20.80
-16.14
-11.67
-7.70
-4.30
-1.40
1.13
3.38
5.45
7.41
9.27
11.01
12.51
13.69
14.51
14.99
15.26
15.39
15.41
15.30
15.04
14.68
14.33
14.12
14.13
14.27
14.36
14.11
13.27
11.73
9.53
6.90
4.09
1.33
-1.28
-3.71
-6.00
-8.18
-10.31
-12.52
-15.03
-18.05
-21.65
-25.58
-29.26
-31.94
-33.01
-32.26
-29.96
-26.70
-23.16
-19.76
-16.64
-13.63
-10.49
-7.05
-3.29
0.62
4.42
7.87
10.80
13.13
14.89
16.17
17.07
17.70
18.21
18.72
19.30
19.98
20.70
21.34
21.75
21.80
21.42
20.62
19.38
17.69
15.52
12.89
9.93
6.81
3.76
0.95
-1.50
-3.61
-5.53
-7.49
-9.75
-12.51
-15.77
-19.28
-22.59
-25.13
-26.47
-26.38
-24.96
-22.54
-19.51
-16.18
-12.77
-9.41
-6.19
-3.17
-0.42
2.09
4.44
6.77
9.16
11.54
13.71
15.40
16.36
16.54
16.08
15.31
14.61
14.29
14.46
15.02
15.75
16.27
16.28
15.56
14.09
12.02
9.59
7.09
4.72
2.57
0.57
-1.42
-3.56
-6.01
-8.94
-12.44
-16.56
-21.19
-25.99
-30.42
-33.77
-35.50
-35.31
-33.29
-29.89
-25.69
-21.24
-16.86
-12.68
-8.62
-4.63
-0.67
3.15
6.67
9.71
12.13
13.92
15.15
15.94
16.39
16.55
16.43
16.06
15.57
15.13
14.87
14.84
14.86
14.66
13.97
12.68
10.88
8.83
6.82
5.09
3.68
2.41
0.96
-1.11
-4.04
-7.87
-12.23
-16.48
-19.91
-21.95
-22.37
-21.29
-19.07
-16.11
-12.71
-8.99
-4.99
-0.76
3.52
7.55
11.01
13.64
15.35
16.23
16.52
16.45
16.16
15.68
14.95
13.97
12.81
11.61
10.53
9.59
8.74
7.82
6.71
5.30
3.58
1.53
-0.77
-3.26
-5.86
-8.52
-11.34
-14.52
-18.36
-23.13
-28.85
-35.21
-41.52
-46.89
-50.52
-51.91
-51.01
-48.24
-44.29
-39.92
-35.75
-32.14
-29.17
-26.69
-24.54
-22.60
-20.83
-19.29
-18.09
-17.28
-16.88
-16.91
-17.41
-18.50
-20.31
-22.91
-26.26
-30.21
-34.59
-39.24
-43.97
-48.48
-52.32
-54.90
-55.71
-54.53
-51.38
-46.52
-40.27
-32.89
-24.69
-16.13
-7.89
-0.79
4.57
8.12
10.47
12.66
15.83
20.92
28.37
38.06
49.22
60.27
68.96
72.79
69.84
59.65
43.70
25.04
7.21
-6.99
-16.48
-21.78
-24.35
-25.56
-25.99
-25.49
-23.63
-20.34
-16.12
-11.87
-8.41
-6.09
-4.68
-3.60
-2.36
-0.85
0.57
1.21
0.43
-2.13
-6.42
-12.04
-18.39
-24.84
-30.83
-35.90
-39.65
-41.76
-42.06
-40.54
-37.48
-33.22
-28.18
-22.63
-16.76
-10.62
-4.34
1.85
7.71
12.98
17.60
21.68
25.38
28.76
31.62
33.53
34.05
32.89
30.20
26.55
22.76
19.66
17.80
17.26
17.63
18.21
18.23
17.22
15.23
12.85
11.08
11.10
13.96
20.27
29.83
41.32
52.22
59.33
59.75
51.99
36.84
17.32
-2.26
-17.92
-27.33
-30.49
-29.23
-26.09
-23.22
-21.65
-21.39
-21.89
-22.59
-23.22
-23.71
-24.09
-24.20
-23.68
-22.02
-18.75
-13.64
-6.88
1.04
9.42
17.63
25.39
32.67
39.67
46.42
52.67
57.93
61.76
64.11
65.40
66.50
68.31
71.36
75.58
80.29
84.47
87.19
87.83
86.32
83.05
78.72
74.05
69.57
65.46
61.64
57.84
53.82
49.49
44.88
40.12
35.31
30.52
25.83
21.28
16.97
12.99
9.43
6.35
3.83
1.93
0.78
0.47
0.97
2.05
3.24
3.96
3.74
2.31
-0.29
-3.79
-7.83
-12.10
-16.33
-20.27
-23.59
-25.94
-27.02
-26.58
-24.51
-20.70
-15.06
-7.58
1.51
11.57
21.71
30.99
38.87
45.37
51.02
56.53
62.28
68.17
73.66
78.21
81.57
83.99
86.04
88.38
91.40
95.16
99.45
103.79
107.60
110.11
110.49
107.98
102.23
93.50
82.68
71.03
59.72
49.43
40.16
31.49
22.91
14.16
5.32
-3.26
-11.22
-18.36
-24.62
-30.01
-34.52
-38.06
-40.54
-41.97
-42.47
-42.36
-42.01
-41.79
-41.97
-42.67
-43.84
-45.26
-46.64
-47.70
-48.34
-48.65
-48.92
-49.60
-51.01
-53.32
-56.36
-59.68
-62.69
-64.76
-65.44
-64.51
-62.02
-58.20
-53.45
-48.21
-42.93
-37.97
-33.56
-29.76
-26.46
-23.47
-20.56
-17.62
-14.65
-11.79
-9.24
-7.21
-5.83
-5.09
-4.83
-4.70
-4.40
-3.66
-2.39
-0.70
1.18
2.94
4.39
5.44
6.15
6.64
7.03
7.35
7.49
7.34
6.79
5.82
4.55
3.19
1.94
0.88
-0.07
-1.14
-2.54
-4.46
-6.90
-9.71
-12.56
-15.09
-17.00
-18.19
-18.80
-19.18
-19.77
-20.91
-22.77
-25.23
-27.98
-30.70
-33.15
-35.23
-37.03
-38.73
-40.52
-42.54
-44.81
-47.17
-49.21
-50.42
-50.25
-48.33
-44.63
-39.44
-33.33
-26.93
-20.79
-15.23
-10.41
-6.30
-2.77
0.31
3.10
5.70
8.18
10.56
12.78
14.75
16.42
17.70
18.59
19.18
19.59
19.97
20.40
20.88
21.30
21.54
21.50
21.16
20.63
20.10
19.71
19.53
19.46
19.32
18.85
17.96
16.66
15.13
13.59
12.16
10.84
9.51
8.01
6.25
4.25
2.11
-0.09
-2.27
-4.40
-6.48
-8.49
-10.44
-12.39
-14.38
-16.39
-18.31
-20.00
-21.35
-22.39
-23.37
-24.56
-26.19
-28.24
-30.42
-32.29
-33.38
-33.36
-32.05
-29.44
-25.57
-20.62
-14.88
-8.77
-2.73
2.85
7.83
12.21
16.14
19.74
23.03
25.93
28.32
30.17
31.51
32.47
33.15
33.68
34.08
34.37
34.50
34.38
33.85
32.79
31.13
28.89
26.25
23.44
20.70
18.22
16.09
14.34
12.91
11.68
10.52
9.29
7.88
6.19
4.19
1.92
-0.58
-3.21
-5.86
-8.42
-10.77
-12.88
-14.76
-16.47
-18.11
-19.76
-21.54
-23.58
-26.00
-28.89
-32.17
-35.56
-38.53
-40.44
-40.73
-39.13
-35.74
-31.02
-25.61
-20.11
-15.04
-10.64
-6.94
-3.80
-1.03
1.52
3.86
5.87
7.39
8.32
8.69
8.66
8.44
8.18
7.95
7.72
7.47
7.23
7.08
7.09
7.25
7.49
7.69
7.78
7.77
7.71
7.62
7.44
7.05
6.37
5.37
4.13
2.82
1.55
0.41
-0.67
-1.80
-3.11
-4.63
-6.34
-8.14
-9.92
-11.63
-13.31
-15.10
-17.18
-19.76
-22.93
-26.58
-30.43
-33.95
-36.56
-37.76
-37.30
-35.20
-31.78
-27.46
-22.69
-17.85
-13.18
-8.90
-5.11
-1.90
0.76
2.98
4.95
6.83
8.73
10.61
12.30
13.67
14.61
15.20
15.65
16.14
16.81
17.61
18.44
19.10
19.49
19.56
19.33
18.85
18.13
17.17
16.00
14.64
13.18
11.64
10.06
8.37
6.52
4.45
2.19
-0.19
-2.58
-4.89
-7.07
-9.18
-11.32
-13.56
-15.94
-18.37
-20.70
-22.89
-25.01
-27.30
-30.01
-33.29
-37.01
-40.73
-43.84
-45.76
-46.08
-44.61
-41.43
-36.79
-31.07
-24.74
-18.32
-12.29
-6.95
-2.40
1.54
5.11
8.57
11.97
15.23
18.14
20.56
22.42
23.80
24.81
25.57
26.16
26.63
27.04
27.49
28.06
28.76
29.55
30.27
30.72
30.74
30.27
29.38
28.22
26.91
25.51
24.03
22.47
20.86
19.26
17.70
16.11
14.28
11.96
9.03
5.63
2.09
-1.15
-3.77
-5.72
-7.19
-8.58
-10.29
-12.62
-15.67
-19.35
-23.40
-27.46
-31.15
-34.11
-36.05
-36.75
-36.09
-33.99
-30.53
-25.94
-20.59
-14.99
-9.64
-4.87
-0.79
2.72
5.93
9.09
12.37
15.76
19.10
22.15
24.67
26.46
27.38
27.41
26.63
25.30
23.91
23.09
23.42
25.12
27.82
30.61
32.30
31.98
29.47
25.38
20.87
17.05
14.52
13.09
12.01
10.50
8.13
5.07
1.89
-0.73
-2.41
-3.23
-3.70
-4.57
-6.62
-10.39
-16.23
-24.16
-33.91
-44.89
-56.12
-66.39
-74.49
-79.58
-81.39
-80.30
-77.04
-72.36
-66.80
-60.60
-53.89
-46.83
-39.73
-32.96
-26.86
-21.53
-16.93
-12.91
-9.40
-6.35
-3.71
-1.37
0.82
3.03
5.37
7.80
10.16
12.28
13.98
15.22
16.03
16.49
16.69
16.63
16.31
15.63
14.55
13.02
11.00
8.48
5.48
2.09
-1.56
-5.29
-8.92
-12.32
-15.47
-18.46
-21.50
-24.83
-28.68
-33.11
-37.91
-42.56
-46.28
-48.24
-47.78
-44.68
-39.23
-32.15
-24.33
-16.61
-9.54
-3.33
2.08
6.84
11.12
15.00
18.48
21.55
24.20
26.42
28.21
29.50
30.25
30.46
30.25
29.90
29.65
29.67
29.96
30.31
30.48
30.30
29.68
28.65
27.26
25.52
23.38
20.79
17.73
14.22
10.36
6.26
2.02
-2.32
-6.73
-11.24
-15.90
-20.79
-25.97
-31.45
-37.12
-42.71
-47.74
-51.54
-53.46
-53.03
-50.16
-45.19
-38.77
-31.65
-24.44
-17.49
-10.94
-4.77
1.03
6.42
11.33
15.73
19.63
23.14
26.35
29.29
31.87
33.90
35.16
35.45
34.81
33.49
31.90
30.47
29.48
28.89
28.42
27.72
26.52
24.81
22.71
20.36
17.80
14.92
11.63
7.91
3.97
0.07
-3.65
-7.23
-11.01
-15.39
-20.64
-26.65
-32.90
-38.54
-42.67
-44.57
-43.88
-40.71
-35.53
-29.02
-21.92
-14.84
-8.21
-2.25
3.04
7.77
12.08
16.09
19.88
23.38
26.56
29.26
31.35
32.72
33.31
33.10
32.25
30.98
29.62
28.43
27.56
26.94
26.33
25.40
23.94
21.88
19.32
16.45
13.48
10.54
7.64
4.74
1.75
-1.43
-4.92
-8.87
-13.46
-18.74
-24.60
-30.60
-35.98
-39.84
-41.38
-40.13
-36.14
-29.88
-22.14
-13.74
-5.41
2.36
9.21
14.99
19.70
23.45
26.48
29.01
31.15
32.83
33.86
34.01
33.17
31.38
28.81
25.75
22.56
19.69
17.59
16.60
16.79
17.88
19.29
20.36
20.66
20.09
18.93
17.62
16.47
15.56
14.65
13.40
11.39
8.28
3.88
-1.79
-8.47
-15.58
-22.25
-27.54
-30.64
-31.11
-29.01
-24.78
-19.17
-12.98
-6.87
-1.30
3.48
7.44
10.67
13.37
15.70
17.83
19.80
21.56
22.99
23.97
24.48
24.57
24.42
24.18
23.98
23.85
23.71
23.46
23.00
22.21
21.06
19.57
17.82
15.89
13.81
11.49
8.72
5.25
0.98
-3.99
-9.29
-14.46
-19.17
-23.36
-27.30
-31.48
-36.34
-42.04
-48.31
-54.46
-59.46
-62.30
-62.15
-58.65
-52.03
-43.01
-32.68
-22.16
-12.38
-3.88
3.18
8.91
13.52
17.22
20.16
22.50
24.35
25.79
26.89
27.66
28.11
28.24
28.12
27.89
27.65
27.44
27.21
26.85
26.22
25.26
23.98
22.36
20.39
18.03
15.18
11.79
7.90
3.66
-0.68
-4.88
-8.83
-12.62
-16.55
-21.04
-26.38
-32.57
-39.18
-45.37
-50.12
-52.51
-51.97
-48.39
-42.13
-33.87
-24.47
-14.77
-5.50
2.81
9.92
15.79
20.59
24.54
27.86
30.65
32.91
34.55
35.50
35.74
35.38
34.67
33.90
33.34
33.17
33.43
33.97
34.53
34.83
34.58
33.62
31.88
29.43
26.40
23.00
19.41
15.78
12.11
8.30
4.25
-0.17
-4.91
-9.80
-14.59
-19.10
-23.29
-27.37
-31.69
-36.65
-42.51
-49.27
-56.55
-63.58
-69.36
-72.79
-73.04
-69.74
-63.14
-54.03
-43.48
-32.59
-22.15
-12.62
-4.10
3.49
10.32
16.55
22.25
27.47
32.20
36.41
40.03
42.99
45.26
46.82
47.78
48.24
48.41
48.47
48.58
48.87
49.40
50.14
50.98
51.76
52.25
52.26
51.65
50.38
48.53
46.21
43.58
40.72
37.68
34.38
30.76
26.75
22.35
17.69
12.97
8.42
4.17
0.28
-3.36
-6.88
-10.46
-14.20
-18.18
-22.38
-26.74
-31.19
-35.60
-39.81
-43.75
-47.46
-51.15
-55.21
-60.05
-65.88
-72.49
-79.16
-84.74
-87.92
-87.65
-83.48
-75.71
-65.27
-53.40
-41.28
-29.72
-19.18
-9.75
-1.39
6.01
12.53
18.32
23.55
28.39
32.94
37.12
40.66
43.24
44.61
44.78
44.05
42.93
41.95
41.53
41.76
42.53
43.47
44.21
44.38
43.80
42.48
40.56
38.28
35.92
33.64
31.49
29.42
27.29
24.93
22.21
19.08
15.59
11.85
8.05
4.29
0.61
-3.09
-6.98
-11.19
-15.78
-20.60
-25.39
-29.87
-33.88
-37.42
-40.73
-44.24
-48.45
-53.72
-60.02
-66.81
-72.98
-77.19
-78.21
-75.36
-68.77
-59.31
-48.28
-37.04
-26.61
-17.54
-9.94
-3.65
1.65
6.26
10.43
14.36
18.16
21.83
25.26
28.24
30.54
31.99
32.62
32.53
31.98
31.24
30.61
30.29
30.42
30.98
31.83
32.66
33.08
32.76
31.55
29.50
26.87
24.00
21.16
18.42
15.64
12.56
8.92
4.59
-0.34
-5.56
-10.74
-15.54
-19.80
-23.56
-26.99
-30.41
-34.18
-38.63
-43.92
-49.92
-56.10
-61.55
-65.15
-65.89
-63.22
-57.20
-48.52
-38.21
-27.34
-16.77
-7.08
1.39
8.47
14.13
18.52
21.98
24.92
27.71
30.45
32.99
34.95
36.07
36.31
35.99
35.59
35.54
35.99
36.76
37.55
38.04
38.09
37.72
37.05
36.14
34.99
33.52
31.66
29.43
26.86
24.00
20.89
17.54
13.99
10.33
6.63
2.91
-0.89
-4.89
-9.17
-13.69
-18.28
-22.76
-26.99
-31.01
-35.00
-39.18
-43.81
-49.09
-55.11
-61.83
-68.94
-75.80
-81.47
-84.86
-85.06
-81.62
-74.69
-65.03
-53.77
-42.13
-31.08
-21.23
-12.76
-5.53
0.80
6.58
12.05
17.32
22.37
27.10
31.32
34.91
37.75
39.83
41.21
42.04
42.55
42.98
43.51
44.21
44.99
45.66
45.93
45.57
44.47
42.70
40.47
38.08
35.76
33.61
31.58
29.50
27.19
24.55
21.55
18.28
14.84
11.32
7.73
4.04
0.18
-3.91
-8.29
-12.97
-17.91
-22.96
-27.97
-32.78
-37.37
-41.90
-46.69
-52.11
-58.29
-64.98
-71.43
-76.54
-79.16
-78.49
-74.33
-67.15
-57.83
-47.44
-36.95
-27.06
-18.11
-10.21
-3.29
2.85
8.44
13.67
18.63
23.28
27.43
30.90
33.53
35.24
36.14
36.41
36.27
35.98
35.66
35.31
34.74
33.72
32.08
29.96
27.74
26.10
25.66
26.70
29.03
32.01
34.81
36.69
37.26
36.44
34.47
31.60
28.09
24.12
19.80
15.28
10.66
6.05
1.45
-3.12
-7.69
-12.24
-16.70
-21.08
-25.46
-30.04
-35.08
-40.68
-46.69
-52.65
-57.87
-61.59
-63.13
-62.01
-58.00
-51.23
-42.23
-31.89
-21.38
-11.86
-4.21
1.22
4.65
6.74
8.32
10.05
12.27
14.80
17.07
18.31
17.80
15.19
10.54
4.20
-3.37
-11.82
-21.00
-31.08
-42.40
-55.45
-70.61
-87.74
-105.74
-122.25
-133.77
-136.57
-127.92
-107.19
-76.23
-38.82
0.59
38.22
71.67
100.00
123.21
141.66
155.75
165.65
171.34
172.40
168.11
157.64
140.58
117.48
90.17
61.50
34.54
11.76
-5.54
-17.28
-24.26
-27.59
-28.40
-27.77
-26.69
-25.97
-25.92
-26.08
-25.23
-21.82
-14.75
-3.89
9.68
24.11
37.54
48.77
57.48
64.04
69.01
72.69
75.04
75.80
74.79
72.00
67.60
61.73
54.54
46.10
36.61
26.50
16.47
7.37
-0.03
-5.24
-8.20
-9.37
-9.57
-9.76
-10.84
-13.31
-17.27
-22.50
-28.63
-35.28
-42.21
-49.20
-55.93
-61.94
-66.59
-69.29
-69.70
-67.86
-64.23
-59.54
-54.58
-49.93
-45.86
-42.31
-39.02
-35.67
-32.09
-28.24
-24.30
-20.46
-16.82
-13.42
-10.18
-7.07
-4.17
-1.59
0.50
2.09
3.23
4.13
4.95
5.77
6.53
7.03
7.08
6.58
5.61
4.39
3.15
2.00
0.87
-0.48
-2.32
-4.76
-7.65
-10.63
-13.26
-15.24
-16.53
-17.43
-18.40
-19.86
-22.02
-24.70
-27.45
-29.66
-30.79
-30.49
-28.75
-25.82
-22.14
-18.11
-14.08
-10.22
-6.61
-3.28
-0.21
2.62
5.27
7.78
10.19
12.45
14.44
16.03
17.12
17.69
17.86
17.80
17.65
17.46
17.20
16.76
16.04
14.98
13.58
11.94
10.22
8.64
7.38
6.53
5.97
5.42
4.55
3.14
1.15
-1.21
-3.63
-5.82
-7.58
-8.87
-9.78
-10.51
-11.33
-12.53
-14.30
-16.63
-19.18
-21.41
-22.68
-22.60
-21.04
-18.28
-14.83
-11.23
-7.96
-5.23
-3.08
-1.39
0.04
1.39
2.73
4.08
5.36
6.50
7.48
8.33
9.08
9.74
10.21
10.34
10.05
9.32
8.32
7.28
6.42
5.89
5.68
5.63
5.52
5.12
4.28
2.94
1.22
-0.73
-2.66
-4.40
-5.79
-6.77
-7.38
-7.73
-8.07
-8.73
-10.06
-12.28
-15.34
-18.86
-22.19
-24.65
-25.69
-25.15
-23.28
-20.53
-17.45
-14.43
-11.69
-9.22
-6.93
-4.73
-2.53
-0.31
1.93
4.16
6.30
8.27
9.98
11.39
12.46
13.25
13.85
14.39
14.98
15.73
16.61
17.52
18.30
18.70
18.53
17.67
16.18
14.25
12.21
10.34
8.78
7.54
6.47
5.33
3.93
2.17
0.12
-2.03
-4.01
-5.50
-6.31
-6.43
-6.08
-5.69
-5.83
-6.98
-9.33
-12.73
-16.64
-20.34
-23.18
-24.74
-24.98
-24.11
-22.47
-20.36
-17.98
-15.42
-12.70
-9.88
-6.99
-4.03
-0.94
2.32
5.73
9.11
12.22
14.83
16.82
18.26
19.34
20.28
21.21
22.10
22.86
23.32
23.42
23.11
22.48
21.60
20.64
19.76
19.10
18.77
18.70
18.71
18.59
18.11
17.22
15.95
14.50
13.07
11.81
10.79
9.96
9.23
8.51
7.73
6.82
5.76
4.51
3.05
1.41
-0.35
-2.11
-3.75
-5.12
-6.11
-6.59
-6.48
-5.85
-4.97
-4.34
-4.60
-6.29
-9.56
-14.03
-18.87
-23.09
-25.89
-26.93
-26.43
-24.90
-22.93
-20.92
-18.98
-17.06
-15.01
-12.78
-10.38
-7.90
-5.37
-2.83
-0.22
2.44
5.11
7.62
9.75
11.31
12.18
12.41
12.23
11.96
11.87
12.11
12.66
13.34
13.95
14.36
14.55
14.56
14.45
14.27
14.00
13.66
13.28
12.89
12.46
11.95
11.29
10.45
9.50
8.58
7.83
7.27
6.83
6.36
5.73
4.83
3.67
2.34
1.00
-0.13
-0.82
-0.85
-0.14
1.12
2.45
3.14
2.51
0.19
-3.69
-8.47
-13.21
-17.01
-19.37
-20.23
-19.93
-18.91
-17.50
-15.85
-13.98
-11.96
-9.94
-8.19
-6.87
-5.97
-5.27
-4.45
-3.27
-1.67
0.15
1.92
3.33
4.23
4.60
4.55
4.28
4.01
3.91
4.06
4.45
4.91
5.22
5.21
4.83
4.23
3.68
3.42
3.51
3.79
3.94
3.67
2.89
1.81
0.77
0.13
0.06
0.49
1.14
1.68
1.84
1.51
0.72
-0.40
-1.62
-2.66
-3.24
-3.06
-2.00
-0.21
1.85
3.39
3.64
2.05
-1.37
-6.06
-11.00
-15.16
-17.77
-18.59
-17.90
-16.27
-14.31
-12.47
-10.95
-9.75
-8.73
-7.76
-6.70
-5.51
-4.15
-2.71
-1.29
-0.02
0.97
1.67
2.10
2.38
2.62
2.90
3.22
3.52
3.75
3.93
4.13
4.41
4.80
5.20
5.49
5.57
5.42
5.16
4.98
5.04
5.31
5.68
5.92
5.81
5.27
4.36
3.28
2.25
1.47
1.03
0.91
0.98
1.08
1.08
0.89
0.49
-0.07
-0.60
-0.88
-0.58
0.53
2.49
4.97
7.26
8.42
7.64
4.60
-0.35
-6.25
-11.89
-16.26
-18.79
-19.51
-18.84
-17.38
-15.63
-13.94
-12.48
-11.29
-10.35
-9.60
-8.88
-8.11
-7.19
-6.10
-4.87
-3.58
-2.25
-0.95
0.25
1.29
2.07
2.56
2.83
3.00
3.19
3.48
3.82
4.16
4.45
4.66
4.88
5.11
5.33
5.46
5.37
5.05
4.53
3.97
3.51
3.24
3.10
2.99
2.77
2.39
1.91
1.43
1.03
0.70
0.33
-0.22
-0.93
-1.68
-2.18
-2.08
-1.13
0.71
3.22
5.95
8.23
9.33
8.60
5.77
1.06
-4.75
-10.48
-15.06
-17.75
-18.49
-17.71
-16.06
-14.16
-12.34
-10.76
-9.42
-8.33
-7.47
-6.78
-6.05
-5.00
-3.46
-1.45
0.77
2.79
4.22
4.89
4.80
4.20
3.41
2.76
2.49
2.69
3.29
4.07
4.76
5.15
5.13
4.82
4.41
4.15
4.19
4.49
4.82
4.92
4.58
3.76
2.62
1.44
0.51
-0.00
-0.08
0.12
0.39
0.51
0.35
-0.04
-0.55
-0.95
-0.90
-0.10
1.64
4.25
7.14
9.33
9.70
7.46
2.56
-4.16
-11.20
-16.99
-20.46
-21.35
-20.16
-17.76
-15.03
-12.51
-10.41
-8.74
-7.43
-6.45
-5.75
-5.24
-4.78
-4.24
-3.51
-2.63
-1.66
-0.75
-0.03
0.41
0.53
0.35
-0.06
-0.56
-1.01
-1.28
-1.30
-1.10
-0.80
-0.57
-0.56
-0.83
-1.31
-1.90
-2.47
-2.90
-3.13
-3.20
-3.21
-3.39
-3.97
-5.21
-7.17
-9.72
-12.38
-14.49
-15.41
-14.85
-13.10
-11.02
-9.93
-11.03
-14.98
-21.49
-29.30
-36.47
-41.02
-41.51
-37.63
-30.26
-21.24
-12.86
-7.07
-5.00
-6.62
-10.92
-16.28
-21.12
-24.26
-25.19
-23.97
-20.97
-16.65
-11.35
-5.36
1.01
7.37
13.23
18.16
21.94
24.69
26.80
28.88
31.38
34.50
38.09
41.78
45.20
48.17
50.79
53.35
56.17
59.38
62.90
66.49
69.84
72.61
74.52
75.38
74.98
73.14
69.65
64.38
57.33
48.82
39.56
30.50
22.58
16.42
12.03
8.80
5.77
2.03
-2.97
-9.24
-16.34
-23.71
-30.79
-37.24
-42.80
-47.25
-50.36
-51.94
-51.98
-50.77
-48.82
-46.72
-44.93
-43.61
-42.60
-41.63
-40.42
-38.87
-37.02
-34.96
-32.72
-30.28
-27.60
-24.68
-21.69
-18.78
-16.10
-13.67
-11.45
-9.35
-7.32
-5.39
-3.56
-1.89
-0.38
0.91
1.96
2.77
3.38
3.86
4.31
4.75
5.11
5.27
5.12
4.59
3.79
2.89
2.07
1.51
1.34
1.63
2.34
3.27
3.99
3.96
2.65
-0.14
-4.19
-8.84
-13.19
-16.37
-17.85
-17.53
-15.74
-13.02
-9.92
-6.89
-4.15
-1.80
0.18
1.84
3.21
4.29
5.10
5.67
6.10
6.50
6.94
7.41
7.80
8.00
7.95
7.66
7.24
6.83
6.52
6.35
6.30
6.34
6.45
6.62
6.85
7.08
7.21
7.08
6.59
5.70
4.52
3.28
2.20
1.50
1.24
1.34
1.55
1.56
0.98
-0.48
-2.97
-6.38
-10.27
-14.04
-16.97
-18.59
-18.74
-17.59
-15.54
-13.05
-10.51
-8.11
-5.93
-4.05
-2.50
-1.35
-0.63
-0.28
-0.16
-0.03
0.30
0.92
1.75
2.61
3.31
3.78
4.03
4.18
4.34
4.59
4.90
5.20
5.36
5.28
4.86
4.06
2.92
1.56
0.19
-1.02
-1.94
-2.50
-2.69
-2.56
-2.24
-2.01
-2.32
-3.65
-6.26
-10.02
-14.33
-18.24
-20.87
-21.74
-20.94
-19.02
-16.69
-14.48
-12.57
-10.84
-9.07
-7.08
-4.85
-2.50
-0.19
1.94
3.85
5.52
6.97
8.26
9.36
10.28
10.95
11.31
11.35
11.13
10.74
10.30
9.85
9.36
8.77
8.05
7.22
6.37
5.58
4.84
4.03
3.02
1.77
0.41
-0.79
-1.56
-1.82
-1.80
-2.03
-3.11
-5.46
-9.04
-13.31
-17.37
-20.38
-21.78
-21.53
-20.01
-17.77
-15.29
-12.82
-10.37
-7.91
-5.44
-3.08
-0.96
0.85
2.47
4.05
5.73
7.48
9.11
10.40
11.24
11.68
11.96
12.30
12.88
13.65
14.45
15.04
15.28
15.12
14.65
13.99
13.26
12.54
11.84
11.17
10.50
9.76
8.88
7.78
6.46
4.99
3.50
2.17
1.13
0.43
0.03
-0.30
-0.89
-2.10
-4.24
-7.42
-11.39
-15.62
-19.41
-22.13
-23.40
-23.22
-21.83
-19.66
-17.11
-14.42
-11.69
-8.93
-6.11
-3.24
-0.36
2.47
5.13
7.54
9.65
11.50
13.18
14.78
16.30
17.67
18.71
19.25
19.28
18.95
18.49
18.16
18.07
18.17
18.33
18.42
18.43
18.42
18.45
18.51
18.46
18.10
17.29
16.00
14.34
12.58
10.97
9.74
8.97
8.55
8.24
7.70
6.70
5.15
3.22
1.26
-0.35
-1.32
-1.58
-1.32
-0.90
-0.85
-1.68
-3.77
-7.19
-11.59
-16.29
-20.37
-23.07
-24.01
-23.29
-21.45
-19.11
-16.78
-14.66
-12.74
-10.92
-9.17
-7.56
-6.16
-4.96
-3.90
-2.81
-1.59
-0.27
1.04
2.21
3.17
3.93
4.57
5.18
5.74
6.21
6.58
6.89
7.22
7.68
8.29
8.93
9.40
9.52
9.24
8.69
8.12
7.71
7.47
7.21
6.62
5.53
3.99
2.26
0.71
-0.39
-0.90
-0.91
-0.61
-0.34
-0.45
-1.34
-3.29
-6.33
-10.13
-14.03
-17.28
-19.34
-20.02
-19.54
-18.30
-16.68
-14.87
-12.91
-10.79
-8.56
-6.34
-4.23
-2.23
-0.21
1.95
4.28
6.61
8.66
10.19
11.06
11.39
11.43
11.55
11.94
12.63
13.47
14.20
14.63
14.70
14.55
14.39
14.40
14.64
15.02
15.31
15.34
14.96
14.18
13.09
11.83
10.51
9.27
8.16
7.21
6.39
5.61
4.73
3.64
2.26
0.69
-0.89
-2.20
-3.00
-3.24
-3.04
-2.81
-3.13
-4.53
-7.31
-11.35
-16.09
-20.66
-24.21
-26.16
-26.43
-25.31
-23.31
-20.91
-18.35
-15.72
-13.02
-10.30
-7.70
-5.38
-3.41
-1.71
-0.12
1.51
3.23
4.89
6.32
7.37
8.03
8.45
8.82
9.26
9.81
10.41
10.97
11.45
11.90
12.34
12.76
13.09
13.21
13.12
12.89
12.69
12.63
12.69
12.67
12.31
11.47
10.21
8.80
7.59
6.77
6.30
5.92
5.32
4.27
2.79
1.13
-0.38
-1.43
-1.81
-1.50
-0.64
0.43
1.23
1.20
-0.17
-3.09
-7.37
-12.40
-17.28
-21.13
-23.39
-23.92
-23.00
-21.12
-18.73
-16.15
-13.52
-10.91
-8.42
-6.17
-4.25
-2.65
-1.23
0.25
1.95
3.88
5.85
7.56
8.76
9.36
9.45
9.31
9.26
9.52
10.13
10.93
11.68
12.12
12.16
11.91
11.62
11.55
11.86
12.52
13.31
13.93
14.14
13.81
12.96
11.73
10.34
8.94
7.63
6.41
5.26
4.10
2.87
1.56
0.23
-0.96
-1.80
-2.05
-1.60
-0.57
0.61
1.26
0.67
-1.68
-5.83
-11.28
-17.08
-22.20
-25.80
-27.51
-27.40
-25.95
-23.78
-21.51
-19.57
-18.14
-17.20
-16.58
-16.06
-15.43
-14.56
-13.44
-12.12
-10.73
-9.42
-8.40
-7.90
-8.09
-8.94
-10.16
-11.21
-11.45
-10.40
-7.90
-4.26
-0.06
4.04
7.54
10.25
12.24
13.67
14.62
14.97
14.53
13.16
10.92
8.13
5.27
2.84
1.20
0.46
0.43
0.76
0.99
0.77
-0.04
-1.23
-2.28
-2.45
-1.02
2.44
7.84
14.54
21.38
26.97
30.11
30.12
27.09
21.96
16.26
11.73
9.83
11.21
15.58
21.72
27.93
32.64
34.88
34.48
31.93
27.86
22.50
15.44
5.92
-6.57
-21.60
-37.55
-51.99
-62.52
-67.80
-68.06
-65.09
-61.63
-60.64
-64.52
-74.69
-91.16
-112.40
-135.31
-155.85
-170.08
-175.42
-171.63
-160.91
-146.95
-133.51
-123.18
-116.85
-114.15
-114.28
-116.68
-121.18
-127.74
-136.03
-145.46
-155.47
-165.92
-177.20
-189.75
-203.33
-216.43
-226.19
-229.07
-221.94
-203.21
-173.44
-135.14
-92.06
-48.11
-6.44
31.02
63.50
91.01
113.92
132.59
147.24
158.03
165.16
168.87
169.59
167.86
164.36
159.78
154.78
149.86
145.23
140.90
136.82
133.00
129.66
127.09
125.45
124.47
123.38
121.06
116.30
108.37
97.26
83.83
69.66
56.58
46.16
39.27
35.84
35.01
35.38
35.57
34.54
31.76
27.18
20.93
13.09
3.54
-8.07
-22.06
-38.42
-56.44
-74.50
-90.16
-100.64
-103.50
-97.39
-82.48
-60.46
-34.16
-6.77
18.83
40.67
57.84
70.44
79.27
85.53
90.35
94.55
98.46
101.88
104.26
104.93
103.43
99.64
93.91
86.90
79.45
72.33
66.14
61.18
57.45
54.71
52.55
50.51
48.09
44.89
40.64
35.24
28.78
21.53
13.84
6.07
-1.48
-8.67
-15.51
-22.19
-29.06
-36.64
-45.49
-55.97
-67.99
-80.63
-92.08
-99.91
-101.70
-95.88
-82.35
-62.63
-39.44
-15.90
5.37
22.82
36.03
45.46
51.91
56.16
58.81
60.18
60.42
59.57
57.66
54.74
50.90
46.31
41.26
36.11
31.29
27.30
24.58
23.41
23.76
25.26
27.21
28.74
29.01
27.51
24.08
18.96
12.67
5.90
-0.72
-6.72
-11.96
-16.64
-21.31
-26.70
-33.43
-41.71
-51.00
-59.90
-66.43
-68.54
-64.78
-54.87
-39.85
-21.85
-3.38
13.39
27.08
37.20
43.98
47.99
49.93
50.48
50.29
49.95
49.81
49.93
49.97
49.41
47.69
44.53
40.01
34.59
28.97
23.83
19.64
16.55
14.34
12.52
10.48
7.67
3.80
-1.15
-6.89
-12.94
-18.88
-24.42
-29.63
-34.94
-41.02
-48.60
-58.02
-68.89
-79.92
-89.02
-93.81
-92.46
-84.23
-69.83
-51.18
-30.73
-10.78
7.13
22.35
34.97
45.43
54.23
61.75
68.27
74.03
79.27
84.07
88.33
91.68
93.57
93.53
91.34
87.20
81.76
75.90
70.45
65.86
62.04
58.32
53.66
47.02
37.73
25.75
11.73
-3.10
-17.23
-29.21
-37.98
-43.06
-44.71
-43.92
-42.25
-41.45
-42.92
-47.07
-53.05
-58.89
-62.08
-60.57
-53.49
-41.57
-26.71
-11.32
2.60
13.96
22.64
29.17
34.33
38.73
42.80
46.71
50.45
53.78
56.16
56.76
54.61
48.97
39.79
27.90
15.00
3.24
-5.42
-9.82
-9.98
-7.03
-2.79
0.89
2.68
2.05
-0.74
-4.91
-9.62
-14.26
-18.59
-22.77
-27.14
-32.02
-37.45
-43.10
-48.12
-51.28
-51.24
-46.86
-37.68
-24.18
-7.76
9.58
25.75
39.11
48.76
54.59
57.13
57.22
55.77
53.63
51.48
49.72
48.43
47.43
46.40
45.01
43.14
40.82
38.24
35.57
32.83
29.89
26.49
22.38
17.39
11.61
5.33
-0.92
-6.60
-11.32
-15.03
-18.08
-21.20
-25.28
-31.12
-39.18
-49.22
-60.19
-70.20
-76.97
-78.44
-73.49
-62.38
-46.79
-29.19
-12.06
2.77
14.45
23.01
28.95
32.87
35.30
36.59
37.00
36.66
35.56
33.59
30.56
26.35
21.06
15.06
8.95
3.45
-0.82
-3.57
-4.95
-5.52
-6.09
-7.40
-9.89
-13.50
-17.82
-22.30
-26.54
-30.45
-34.27
-38.50
-43.70
-50.30
-58.32
-67.18
-75.59
-81.76
-83.75
-80.17
-70.72
-56.44
-39.45
-22.26
-7.03
5.03
13.75
19.79
24.13
27.64
30.87
34.01
37.01
39.70
41.89
43.40
44.14
44.05
43.15
41.60
39.67
37.67
35.88
34.43
33.22
31.82
29.66
26.20
21.21
14.86
7.69
0.35
-6.62
-13.08
-19.38
-26.19
-34.23
-43.82
-54.57
-65.20
-73.69
-77.86
-76.08
-67.90
-54.27
-37.31
-19.55
-3.23
10.31
20.71
28.34
33.89
38.03
41.21
43.67
45.49
46.68
47.16
46.84
45.61
43.47
40.55
37.14
33.60
30.28
27.45
25.13
23.23
21.53
19.76
17.71
15.19
12.05
8.22
3.69
-1.45
-7.02
-12.75
-18.37
-23.69
-28.57
-33.07
-37.34
-41.72
-46.65
-52.57
-59.83
-68.31
-77.27
-85.22
-90.15
-90.11
-83.86
-71.39
-54.08
-34.25
-14.53
3.02
17.28
28.16
36.19
42.14
46.63
50.08
52.73
54.68
56.02
56.72
56.69
55.78
53.89
51.07
47.54
43.69
39.96
36.72
34.25
32.59
31.63
31.12
30.70
29.99
28.63
26.33
22.98
18.66
13.62
8.25
2.95
-2.00
-6.51
-10.71
-14.87
-19.27
-24.06
-29.24
-34.61
-39.90
-44.84
-49.23
-53.02
-56.35
-59.59
-63.33
-68.24
-74.83
-83.05
-92.01
-99.89
-104.38
-103.33
-95.53
-81.24
-62.12
-40.80
-19.95
-1.64
13.10
24.21
32.25
38.02
42.22
45.41
47.95
50.02
51.67
52.84
53.41
53.20
52.02
49.77
46.50
42.52
38.35
34.66
31.99
30.58
30.25
30.42
30.29
29.17
26.72
23.02
18.55
13.92
9.69
6.12
3.21
0.65
-1.95
-5.02
-8.85
-13.48
-18.68
-24.04
-29.05
-33.34
-36.87
-39.92
-43.08
-47.08
-52.49
-59.46
-67.57
-75.74
-82.34
-85.55
-83.82
-76.41
-63.67
-47.07
-28.73
-10.89
4.69
17.06
26.09
32.23
36.19
38.70
40.36
41.53
42.35
42.74
42.50
41.40
39.39
36.65
33.58
30.68
28.35
26.77
25.84
25.33
24.87
24.15
22.94
21.08
18.54
15.35
11.54
7.20
2.37
-2.91
-8.53
-14.37
-20.16
-25.61
-30.47
-34.69
-38.46
-42.22
-46.56
-51.98
-58.72
-66.45
-74.19
-80.34
-83.04
-80.68
-72.54
-59.07
-41.88
-23.25
-5.48
9.73
21.60
30.19
36.07
40.00
42.66
44.55
45.99
47.11
47.83
47.93
47.11
45.14
42.05
38.17
34.11
30.47
27.74
26.03
25.10
24.44
23.48
21.78
19.16
15.71
11.70
7.48
3.29
-0.80
-4.90
-9.25
-14.07
-19.45
-25.27
-31.21
-36.85
-41.86
-46.10
-49.84
-53.65
-58.29
-64.40
-72.06
-80.47
-87.95
-92.32
-91.45
-84.14
-70.59
-52.36
-31.94
-11.97
5.51
19.44
29.71
36.89
41.82
45.38
48.27
50.97
53.66
56.21
58.24
59.26
58.94
57.21
54.38
50.93
47.39
44.20
41.56
39.55
38.12
37.08
36.16
34.99
33.19
30.46
26.75
22.22
17.28
12.31
7.58
3.13
-1.23
-5.76
-10.73
-16.25
-22.22
-28.36
-34.29
-39.68
-44.33
-48.30
-51.87
-55.52
-59.88
-65.48
-72.60
-80.92
-89.36
-96.20
-99.36
-97.10
-88.57
-74.22
-55.66
-35.21
-15.24
2.44
16.83
27.69
35.37
40.45
43.67
45.76
47.33
48.79
50.25
51.44
51.90
51.13
48.88
45.29
40.90
36.45
32.66
29.98
28.49
27.89
27.67
27.25
26.20
24.26
21.46
17.92
13.89
9.52
4.90
0.00
-5.24
-10.81
-16.54
-22.15
-27.33
-31.88
-35.89
-39.76
-44.12
-49.58
-56.50
-64.65
-73.04
-79.97
-83.42
-81.60
-73.58
-59.68
-41.52
-21.50
-2.18
14.43
27.26
36.24
41.95
45.31
47.12
47.94
48.08
47.57
46.41
44.51
41.94
38.81
35.41
31.99
28.82
26.12
23.93
22.24
20.88
19.67
18.36
16.78
14.75
12.17
8.93
4.96
0.24
-5.18
-11.14
-17.37
-23.52
-29.25
-34.37
-38.92
-43.23
-47.89
-53.55
-60.70
-69.38
-78.87
-87.65
-93.69
-94.89
-89.83
-78.26
-61.25
-40.97
-20.03
-0.78
15.25
27.47
36.15
42.07
46.14
49.13
51.55
53.65
55.47
56.90
57.75
57.83
56.95
55.03
52.19
48.77
45.24
42.16
39.91
38.64
38.16
37.97
37.49
36.18
33.71
30.00
25.23
19.76
14.03
8.47
3.36
-1.27
-5.65
-10.14
-15.12
-20.74
-26.88
-33.18
-39.15
-44.36
-48.70
-52.38
-55.98
-60.31
-66.13
-73.82
-83.06
-92.64
-100.50
-104.25
-101.89
-92.49
-76.60
-56.15
-33.88
-12.51
5.99
20.67
31.53
39.20
44.59
48.53
51.75
54.70
57.62
60.46
62.92
64.51
64.78
63.51
60.82
57.14
53.12
49.40
46.42
44.37
43.12
42.36
41.64
40.56
38.81
36.22
32.78
28.58
23.83
18.76
13.67
8.80
4.26
-0.07
-4.46
-9.30
-14.85
-21.08
-27.63
-33.87
-39.31
-43.74
-47.48
-51.25
-55.99
-62.45
-70.84
-80.61
-90.40
-98.24
-101.96
-99.81
-90.99
-76.00
-56.55
-35.09
-14.17
4.21
18.94
29.81
37.26
42.07
45.13
47.16
48.69
49.97
50.96
51.44
51.10
49.68
47.11
43.54
39.38
35.17
31.48
28.70
26.96
26.06
25.52
24.85
23.63
21.74
19.22
16.23
12.84
9.01
4.62
-0.41
-5.94
-11.68
-17.20
-22.14
-26.31
-29.88
-33.29
-37.20
-42.27
-48.96
-57.19
-66.22
-74.63
-80.43
-81.71
-77.10
-66.37
-50.57
-31.80
-12.65
4.55
18.19
27.72
33.45
36.30
37.34
37.44
37.08
36.28
34.75
32.14
28.28
23.36
17.92
12.64
8.14
4.73
2.25
0.23
-2.00
-4.95
-8.86
-13.61
-18.76
-23.78
-28.35
-32.51
-36.60
-40.99
-45.73
-50.27
-53.41
-53.51
-48.86
-38.19
-21.06
1.76
28.01
54.08
75.44
87.79
88.32
76.94
56.64
32.68
10.89
-4.30
-11.16
-10.77
-6.01
0.01
5.18
8.75
10.99
12.44
13.37
13.78
13.70
13.44
13.58
14.68
16.82
19.49
21.66
22.38
21.16
18.30
14.76
11.72
10.20
10.53
12.34
14.72
16.55
16.91
15.44
12.39
8.46
4.53
1.25
-1.20
-3.11
-5.09
-7.75
-11.45
-16.12
-21.35
-26.55
-31.23
-35.12
-38.33
-41.30
-44.75
-49.45
-55.98
-64.30
-73.48
-81.65
-86.42
-85.61
-78.01
-63.97
-45.27
-24.57
-4.55
12.82
26.68
37.12
44.80
50.53
54.98
58.61
61.67
64.23
66.26
67.58
67.97
67.25
65.38
62.50
58.91
55.08
51.51
48.63
46.71
45.69
45.24
44.79
43.71
41.57
38.19
33.77
28.71
23.52
18.64
14.29
10.43
6.76
2.84
-1.77
-7.32
-13.74
-20.68
-27.61
-34.05
-39.76
-44.85
-49.68
-54.81
-60.78
-68.00
-76.58
-86.03
-95.16
-102.11
-104.74
-101.28
-91.06
-74.89
-54.88
-33.79
-14.20
2.23
14.92
24.22
30.90
35.82
39.59
42.64
45.18
47.29
48.88
49.76
49.63
48.38
46.05
42.99
39.73
36.83
34.72
33.54
33.14
33.10
32.98
32.36
31.01
28.94
26.24
23.04
19.41
15.29
10.60
5.31
-0.50
-6.60
-12.73
-18.57
-23.94
-28.81
-33.41
-38.19
-43.76
-50.61
-58.71
-67.28
-74.70
-78.90
-77.92
-70.77
-57.76
-40.58
-21.70
-3.65
11.74
23.66
32.24
38.19
42.34
45.35
47.56
49.07
49.90
50.07
49.61
48.58
47.01
44.94
42.46
39.74
37.05
34.73
33.05
32.15
31.91
31.90
31.58
30.40
28.05
24.54
20.22
15.57
11.05
6.91
3.14
-0.49
-4.28
-8.53
-13.42
-18.91
-24.81
-30.73
-36.26
-41.04
-45.03
-48.57
-52.36
-57.29
-64.01
-72.64
-82.35
-91.48
-97.80
-99.17
-94.21
-82.74
-65.91
-45.89
-25.22
-6.11
9.95
22.37
31.35
37.54
41.81
44.99
47.70
50.32
52.90
55.21
56.85
57.42
56.64
54.51
51.35
47.72
44.25
41.49
39.76
39.02
38.92
38.94
38.55
37.40
35.42
32.79
29.73
26.43
22.88
18.99
14.69
10.04
5.32
0.80
-3.30
-7.01
-10.56
-14.30
-18.45
-23.02
-27.83
-32.56
-36.94
-40.82
-44.30
-47.67
-51.47
-56.34
-62.83
-71.18
-80.89
-90.70
-98.57
-102.28
-99.99
-90.92
-75.60
-55.73
-33.69
-11.83
8.02
24.87
38.47
49.11
57.23
63.28
67.65
70.62
72.53
73.70
74.40
74.76
74.69
73.93
72.16
69.22
65.23
60.57
55.74
51.27
47.50
44.56
42.35
40.59
38.87
36.65
33.49
29.02
23.14
16.04
8.08
-0.30
-8.72
-16.88
-24.57
-31.53
-37.58
-42.58
-46.60
-49.90
-52.85
-55.71
-58.50
-61.03
-63.03
-64.50
-65.80
-67.64
-70.83
-75.89
-82.67
-90.20
-96.84
-100.59
-99.67
-93.06
-80.85
-64.24
-45.23
-26.08
-8.79
5.35
15.88
23.05
27.54
30.18
31.67
32.47
32.80
32.67
32.04
30.88
29.18
26.99
24.39
21.54
18.67
16.11
14.17
13.04
12.72
12.93
13.31
13.47
13.18
12.39
11.25
9.92
8.59
7.31
6.10
4.96
3.90
2.98
2.21
1.51
0.68
-0.48
-2.19
-4.61
-7.88
-12.25
-18.16
-26.03
-35.98
-47.43
-58.84
-67.99
-72.51
-70.73
-62.28
-48.28
-31.00
-13.06
3.26
16.59
26.55
33.50
38.21
41.49
43.95
45.97
47.68
49.04
49.87
49.96
49.17
47.48
45.02
42.08
39.04
36.30
34.14
32.73
32.08
32.03
32.30
32.51
32.27
31.27
29.37
26.61
23.23
19.58
15.95
12.56
9.37
6.19
2.65
-1.56
-6.64
-12.51
-18.88
-25.31
-31.38
-36.80
-41.54
-45.84
-50.20
-55.26
-61.65
-69.62
-78.83
-88.12
-95.65
-99.34
-97.53
-89.56
-76.04
-58.68
-39.73
-21.32
-4.96
8.60
19.29
27.44
33.57
38.23
41.97
45.28
48.46
51.57
54.37
56.44
57.31
56.71
54.69
51.66
48.30
45.28
43.09
41.91
41.64
41.92
42.27
42.31
41.78
40.59
38.72
36.21
33.07
29.34
25.16
20.76
16.45
12.42
8.70
5.03
1.04
-3.64
-9.18
-15.43
-22.08
-28.70
-34.97
-40.73
-46.08
-51.36
-57.12
-63.94
-72.18
-81.60
-91.10
-98.85
-102.73
-101.01
-93.03
-79.47
-62.11
-43.28
-25.12
-9.11
4.06
14.31
21.94
27.40
31.25
34.08
36.50
38.91
41.42
43.77
45.44
45.96
45.14
43.20
40.75
38.52
37.05
36.55
36.82
37.36
37.63
37.16
35.75
33.42
30.38
26.91
23.28
19.62
15.94
12.09
7.81
2.90
-2.76
-9.04
-15.62
-22.02
-27.77
-32.61
-36.66
-40.44
-44.79
-50.52
-58.04
-66.98
-75.98
-82.98
-85.72
-82.55
-73.00
-57.97
-39.49
-20.00
-1.72
13.86
26.11
35.13
41.38
45.45
47.90
49.19
49.72
49.78
49.55
49.04
48.23
47.02
45.39
43.46
41.41
39.49
37.94
36.91
36.34
36.01
35.50
34.35
32.17
28.84
24.56
19.77
14.96
10.49
6.37
2.30
-2.16
-7.38
-13.43
-20.02
-26.64
-32.82
-38.28
-43.13
-47.78
-52.82
-58.81
-66.11
-74.76
-84.28
-93.61
-101.15
-104.99
-103.41
-95.48
-81.45
-62.81
-41.91
-21.21
-2.69
12.61
24.56
33.67
40.66
46.20
50.79
54.71
58.10
60.94
63.11
64.38
64.57
63.52
61.28
58.12
54.47
50.87
47.86
45.75
44.61
44.19
43.98
43.40
41.96
39.44
35.93
31.74
27.23
22.74
18.42
14.22
9.98
5.41
0.26
-5.60
-12.06
-18.82
-25.36
-31.22
-36.15
-40.25
-43.99
-48.06
-53.16
-59.79
-68.03
-77.32
-86.37
-93.33
-96.10
-93.03
-83.46
-68.13
-49.01
-28.69
-9.58
6.75
19.80
29.84
37.49
43.39
47.94
51.45
54.21
56.54
58.59
60.36
61.52
61.63
60.27
57.32
53.07
48.18
43.51
39.85
37.59
36.67
36.52
36.30
35.26
32.96
29.43
25.08
20.48
16.08
12.01
8.13
4.09
-0.42
-5.61
-11.41
-17.55
-23.67
-29.33
-34.26
-38.42
-42.06
-45.72
-50.11
-55.80
-63.02
-71.34
-79.58
-85.98
-88.59
-85.91
-77.33
-63.43
-45.90
-26.96
-8.84
6.83
19.28
28.50
35.00
39.44
42.46
44.51
45.88
46.69
46.96
46.59
45.48
43.61
41.09
38.19
35.27
32.75
30.86
29.64
28.89
28.23
27.28
25.72
23.44
20.49
17.05
13.31
9.36
5.17
0.56
-4.60
-10.35
-16.53
-22.81
-28.80
-34.26
-39.22
-44.06
-49.40
-55.82
-63.52
-71.99
-79.94
-85.53
-86.92
-82.81
-73.01
-58.51
-41.18
-23.20
-6.45
7.88
19.36
28.12
34.58
39.26
42.61
45.05
46.87
48.26
49.20
49.46
48.75
46.85
43.74
39.76
35.50
31.64
28.71
26.89
25.99
25.39
24.37
22.30
18.90
14.37
9.23
4.08
-0.71
-5.19
-9.83
-15.22
-21.73
-29.29
-37.29
-44.89
-51.31
-56.23
-59.90
-63.08
-66.74
-71.59
-77.75
-84.36
-89.51
-90.37
-83.72
-66.81
-38.61
-0.69
42.35
83.74
116.33
134.84
137.46
126.28
106.22
83.09
61.82
45.43
34.98
30.18
29.97
32.85
37.00
40.37
41.07
38.00
31.26
22.13
12.61
4.65
-0.49
-2.57
-2.30
-0.93
0.20
0.14
-1.47
-4.33
-7.71
-10.90
-13.42
-15.33
-17.10
-19.32
-22.49
-26.73
-31.76
-37.10
-42.21
-46.69
-50.47
-53.76
-57.10
-61.18
-66.56
-73.29
-80.68
-87.13
-90.52
-88.86
-80.95
-66.92
-48.35
-27.66
-7.50
10.06
24.01
34.29
41.63
47.00
51.28
55.04
58.53
61.70
64.33
66.12
66.77
66.03
63.80
60.14
55.32
49.84
44.32
39.42
35.62
33.07
31.48
30.28
28.79
26.54
23.39
19.56
15.43
11.39
7.57
3.85
-0.08
-4.51
-9.57
-15.13
-20.81
-26.15
-30.80
-34.66
-37.95
-41.19
-45.00
-49.88
-55.98
-62.87
-69.51
-74.40
-75.93
-72.85
-64.75
-52.22
-36.76
-20.28
-4.62
8.91
19.68
27.66
33.23
36.94
39.36
41.01
42.26
43.24
43.86
43.84
42.90
40.89
37.97
34.57
31.31
28.79
27.32
26.86
27.01
27.15
26.71
25.31
22.90
19.66
15.87
11.70
7.21
2.37
-2.86
-8.37
-13.94
-19.36
-24.47
-29.25
-33.87
-38.51
-43.41
-48.82
-54.94
-61.84
-69.23
-76.27
-81.62
-83.71
-81.21
-73.57
-61.27
-45.71
-28.78
-12.33
2.29
14.37
23.78
30.80
35.90
39.67
42.66
45.33
47.90
50.34
52.36
53.60
53.74
52.68
50.49
47.51
44.20
41.11
38.68
37.21
36.63
36.58
36.47
35.68
33.76
30.66
26.63
22.13
17.62
13.34
9.29
5.28
1.05
-3.60
-8.74
-14.35
-20.28
-26.31
-32.14
-37.49
-42.19
-46.29
-50.18
-54.52
-60.00
-67.04
-75.33
-83.77
-90.51
-93.51
-91.19
-83.01
-69.68
-52.93
-34.93
-17.67
-2.51
10.00
19.90
27.58
33.53
38.21
42.05
45.43
48.61
51.62
54.24
56.08
56.75
56.08
54.18
51.49
48.55
45.88
43.79
42.40
41.59
41.15
40.79
40.18
38.99
36.89
33.69
29.40
24.27
18.73
13.20
7.96
3.10
-1.51
-6.07
-10.75
-15.65
-20.70
-25.79
-30.73
-35.41
-39.78
-43.92
-48.07
-52.61
-57.99
-64.50
-72.03
-79.86
-86.62
-90.61
-90.19
-84.45
-73.45
-58.36
-41.02
-23.46
-7.38
6.23
17.05
25.26
31.34
35.80
39.13
41.75
43.96
45.92
47.63
48.94
49.58
49.32
48.02
45.77
42.89
39.84
37.13
35.18
34.11
33.76
33.67
33.22
31.89
29.41
25.85
21.56
17.03
12.64
8.51
4.53
0.40
-4.16
-9.23
-14.69
-20.22
-25.41
-29.93
-33.60
-36.48
-38.87
-41.30
-44.37
-48.62
-54.25
-60.86
-67.35
-72.08
-73.26
-69.57
-60.69
-47.39
-31.44
-14.95
0.20
12.74
22.18
28.63
32.56
34.58
35.30
35.22
34.71
33.90
32.70
30.95
28.51
25.52
22.27
19.22
16.77
15.13
14.27
13.98
13.97
13.92
13.58
12.74
11.22
8.92
5.84
2.13
-1.90
-5.85
-9.38
-12.18
-14.09
-14.93
-14.41
-12.06
-7.42
-0.36
8.50
17.66
24.97
28.21
25.86
17.57
4.17
-12.72
-31.16
-49.33
-65.54
-78.14
-85.56
-86.59
-80.84
-69.13
-53.42
-36.33
-20.31
-6.99
3.09
10.38
15.74
20.04
23.79
27.16
30.03
32.23
33.65
34.32
34.36
33.88
33.02
31.91
30.71
29.66
29.05
29.08
29.83
31.13
32.59
33.73
34.12
33.54
31.91
29.40
26.23
22.66
18.89
15.09
11.34
7.60
3.75
-0.35
-4.84
-9.75
-14.98
-20.36
-25.66
-30.65
-35.18
-39.23
-42.90
-46.53
-50.58
-55.64
-62.10
-69.87
-78.21
-85.64
-90.33
-90.55
-85.27
-74.54
-59.52
-42.08
-24.29
-7.88
6.11
17.32
25.95
32.46
37.45
41.49
45.02
48.32
51.46
54.26
56.41
57.56
57.48
56.22
54.03
51.39
48.80
46.64
45.09
44.10
43.37
42.53
41.21
39.25
36.67
33.65
30.40
27.03
23.47
19.58
15.25
10.51
5.54
0.58
-4.17
-8.72
-13.18
-17.68
-22.29
-26.96
-31.53
-35.89
-40.03
-44.02
-48.13
-52.64
-57.87
-64.05
-71.19
-78.84
-86.06
-91.42
-93.31
-90.42
-82.21
-69.20
-52.85
-35.13
-17.99
-2.86
9.53
19.09
26.11
31.08
34.53
36.98
38.89
40.55
42.06
43.29
43.96
43.76
42.56
40.45
37.76
35.01
32.75
31.40
31.12
31.74
32.71
33.32
32.93
31.19
28.21
24.42
20.38
16.53
12.95
9.40
5.44
0.72
-4.87
-11.06
-17.38
-23.22
-28.22
-32.29
-35.77
-39.28
-43.53
-49.09
-56.04
-63.86
-71.44
-77.23
-79.66
-77.45
-70.07
-57.86
-42.06
-24.49
-7.08
8.50
21.25
30.81
37.45
41.77
44.44
46.06
47.04
47.65
47.98
48.05
47.74
46.94
45.58
43.72
41.53
39.31
37.35
35.88
34.96
34.47
34.15
33.62
32.49
30.47
27.42
23.43
18.82
14.04
9.50
5.42
1.69
-2.11
-6.47
-11.77
-18.08
-25.04
-32.05
-38.48
-43.97
-48.52
-52.55
-56.74
-61.88
-68.55
-76.90
-86.42
-95.87
-103.37
-106.88
-104.70
-96.10
-81.63
-62.98
-42.49
-22.47
-4.65
10.10
21.69
30.52
37.22
42.48
46.88
50.81
54.42
57.64
60.19
61.76
62.10
61.14
59.06
56.24
53.16
50.26
47.88
46.12
44.88
43.89
42.81
41.27
39.03
35.97
32.19
27.90
23.40
18.92
14.49
9.92
4.86
-1.00
-7.78
-15.26
-22.95
-30.31
-36.96
-42.82
-48.16
-53.41
-59.09
-65.65
-73.29
-81.89
-90.82
-98.92
-104.53
-105.86
-101.52
-91.02
-74.97
-55.04
-33.44
-12.25
6.95
23.21
36.05
45.25
50.75
52.76
51.89
49.14
45.71
42.52
39.96
37.81
35.44
32.32
28.38
24.20
20.82
19.40
20.83
25.57
33.85
46.00
62.68
84.56
111.69
142.66
174.17
201.46
219.40
223.73
211.87
183.36
139.76
84.70
23.67
-36.40
-88.28
-126.28
-147.93
-154.89
-152.20
-146.25
-142.24
-142.41
-145.79
-149.30
-149.54
-144.21
-132.77
-116.14
-96.08
-74.53
-53.23
-33.52
-16.39
-2.49
7.95
15.16
19.78
22.75
25.00
27.27
29.85
32.67
35.35
37.47
38.76
39.29
39.35
39.41
39.84
40.76
41.94
42.85
42.91
41.71
39.20
35.66
31.53
27.15
22.62
17.74
12.23
5.92
-1.04
-8.24
-15.17
-21.43
-26.97
-32.06
-37.28
-43.31
-50.69
-59.50
-69.18
-78.39
-85.25
-87.74
-84.42
-74.93
-60.23
-42.32
-23.60
-6.17
8.67
20.50
29.57
36.48
41.83
46.14
49.75
52.88
55.61
57.86
59.37
59.87
59.13
57.12
54.08
50.46
46.87
43.89
41.93
41.05
40.96
41.04
40.56
38.94
35.96
31.84
27.07
22.24
17.71
13.49
9.24
4.52
-1.03
-7.46
-14.47
-21.56
-28.15
-33.85
-38.60
-42.69
-46.72
-51.43
-57.45
-64.99
-73.62
-82.12
-88.65
-91.20
-88.22
-79.20
-64.91
-47.19
-28.39
-10.67
4.61
17.01
26.80
34.61
41.06
46.53
51.21
55.15
58.32
60.63
61.92
61.98
60.71
58.18
54.71
50.81
47.07
43.94
41.71
40.41
39.84
39.64
39.35
38.49
36.70
33.78
29.80
25.03
19.90
14.82
10.04
5.55
1.17
-3.42
-8.46
-13.97
-19.74
-25.42
-30.69
-35.41
-39.72
-43.99
-48.77
-54.53
-61.53
-69.55
-77.80
-84.86
-89.02
-88.69
-82.97
-71.97
-56.84
-39.44
-21.80
-5.59
8.15
19.02
27.12
32.91
37.02
40.07
42.59
44.82
46.71
47.96
48.24
47.33
45.30
42.45
39.23
36.11
33.47
31.52
30.31
29.69
29.35
28.92
28.04
26.44
24.06
20.98
17.41
13.57
9.58
5.40
0.95
-3.90
-9.14
-14.58
-19.90
-24.75
-28.90
-32.38
-35.58
-39.17
-43.87
-50.10
-57.63
-65.37
-71.55
-74.17
-71.70
-63.61
-50.63
-34.53
-17.49
-1.48
12.18
22.97
31.02
36.78
40.79
43.51
45.26
46.25
46.61
46.35
45.50
44.01
41.89
39.22
36.19
33.13
30.44
28.48
27.45
27.21
27.28
26.97
25.58
22.71
18.42
13.23
7.89
3.05
-0.99
-4.44
-7.84
-11.81
-16.64
-22.25
-28.17
-33.86
-38.97
-43.50
-47.82
-52.51
-58.10
-64.92
-72.84
-81.26
-88.99
-94.43
-95.88
-92.10
-82.74
-68.59
-51.46
-33.59
-16.99
-2.88
8.43
17.36
24.63
30.92
36.63
41.87
46.62
50.77
54.16
56.60
57.84
57.68
56.07
53.21
49.60
45.90
42.80
40.72
39.77
39.64
39.78
39.53
38.37
36.05
32.63
28.46
23.99
19.63
15.55
11.63
7.48
2.69
-2.98
-9.44
-16.26
-22.85
-28.69
-33.54
-37.53
-41.13
-45.02
-49.91
-56.31
-64.26
-73.10
-81.40
-87.20
-88.52
-84.04
-73.61
-58.41
-40.53
-22.39
-5.99
7.50
17.86
25.50
31.20
35.70
39.56
43.12
46.43
49.39
51.78
53.35
53.93
53.46
52.01
49.73
46.88
43.81
40.90
38.49
36.78
35.74
35.10
34.40
33.20
31.20
28.35
24.79
20.84
16.76
12.72
8.75
4.77
0.63
-3.78
-8.51
-13.54
-18.72
-23.91
-28.86
-33.42
-37.55
-41.34
-45.05
-49.10
-53.97
-59.98
-67.14
-74.89
-82.15
-87.35
-88.85
-85.49
-76.91
-63.77
-47.55
-30.17
-13.44
1.33
13.42
22.74
29.54
34.26
37.37
39.35
40.58
41.37
41.82
41.90
41.47
40.39
38.61
36.30
33.72
31.20
29.00
27.25
25.92
24.84
23.79
22.56
20.99
19.00
16.54
13.58
10.03
5.83
0.99
-4.37
-9.96
-15.43
-20.45
-24.81
-28.56
-32.02
-35.68
-40.14
-45.84
-52.86
-60.59
-67.75
-72.53
-73.17
-68.58
-58.72
-44.73
-28.57
-12.36
2.20
14.19
23.44
30.28
35.21
38.71
41.09
42.60
43.43
43.70
43.48
42.77
41.53
39.73
37.42
34.82
32.27
30.12
28.62
27.77
27.25
26.57
25.25
23.00
19.83
16.03
11.97
7.91
3.96
0.00
-4.14
-8.66
-13.64
-19.02
-24.61
-30.19
-35.55
-40.61
-45.44
-50.41
-56.04
-62.84
-71.01
-80.07
-88.75
-95.19
-97.41
-94.00
-84.64
-70.30
-52.89
-34.63
-17.48
-2.65
9.48
19.05
26.52
32.33
36.90
40.59
43.71
46.50
49.03
51.18
52.65
53.07
52.19
50.02
46.89
43.44
40.37
38.22
37.16
36.91
36.85
36.28
34.67
31.85
27.99
23.51
18.89
14.48
10.38
6.45
2.35
-2.36
-7.97
-14.53
-21.69
-28.86
-35.38
-40.91
-45.57
-50.02
-55.20
-61.92
-70.46
-80.25
-89.84
-97.22
-100.32
-97.67
-88.84
-74.61
-56.73
-37.41
-18.67
-2.03
11.82
22.79
31.28
37.87
43.19
47.70
51.72
55.31
58.31
60.47
61.54
61.39
60.05
57.71
54.71
51.52
48.64
46.50
45.30
44.89
44.78
44.24
42.68
39.85
35.90
31.36
26.76
22.39
18.18
13.76
8.72
2.85
-3.74
-10.67
-17.42
-23.56
-28.91
-33.54
-37.78
-42.11
-47.10
-53.25
-60.85
-69.78
-79.25
-87.81
-93.52
-94.48
-89.46
-78.34
-62.30
-43.46
-24.24
-6.73
7.76
18.89
27.00
32.81
37.06
40.40
43.19
45.61
47.59
48.94
49.40
48.80
47.10
44.49
41.34
38.11
35.27
33.13
31.76
31.00
30.46
29.72
28.46
26.54
23.95
20.75
16.95
12.49
7.30
1.44
-4.85
-11.18
-17.13
-22.49
-27.24
-31.71
-36.34
-41.62
-47.94
-55.43
-63.82
-72.32
-79.64
-84.15
-84.36
-79.38
-69.31
-55.23
-38.92
-22.39
-7.34
5.10
14.47
20.89
24.93
27.52
29.80
32.98
38.16
46.06
56.85
70.07
84.56
98.67
110.47
118.18
120.65
117.60
109.72
98.34
84.96
70.79
56.63
42.84
29.62
17.18
5.76
-4.51
-13.70
-22.15
-30.26
-38.25
-46.01
-53.11
-58.91
-62.95
-65.18
-66.05
-66.52
-67.76
-70.83
-76.26
-83.73
-91.96
-98.93
-102.34
-100.34
-92.09
-78.11
-60.11
-40.45
-21.39
-4.54
9.39
20.47
29.22
36.23
42.01
46.89
51.08
54.70
57.72
60.02
61.40
61.68
60.77
58.77
55.91
52.58
49.19
46.16
43.78
42.08
40.86
39.69
38.09
35.70
32.44
28.50
24.24
19.95
15.72
11.41
6.75
1.50
-4.34
-10.58
-16.83
-22.71
-27.97
-32.58
-36.73
-40.79
-45.23
-50.54
-57.11
-64.97
-73.56
-81.63
-87.38
-88.91
-84.88
-74.96
-60.08
-42.10
-23.30
-5.67
9.50
21.71
31.05
38.02
43.21
47.20
50.50
53.44
56.12
58.39
59.91
60.33
59.43
57.28
54.23
50.82
47.58
44.99
43.23
42.32
42.03
41.97
41.71
40.79
38.86
35.76
31.63
26.85
21.94
17.33
13.19
9.35
5.38
0.84
-4.52
-10.64
-17.15
-23.54
-29.39
-34.48
-38.87
-42.86
-46.86
-51.36
-56.78
-63.40
-71.04
-79.01
-85.96
-90.15
-89.90
-84.13
-72.85
-57.22
-39.25
-21.19
-4.92
8.45
18.59
25.81
30.73
34.09
36.56
38.66
40.68
42.62
44.20
45.06
44.82
43.33
40.76
37.53
34.22
31.40
29.48
28.59
28.55
28.90
29.07
28.55
27.11
24.82
21.97
18.85
15.60
12.20
8.42
4.12
-0.75
-6.06
-11.54
-16.89
-21.89
-26.44
-30.57
-34.49
-38.59
-43.37
-49.22
-56.21
-63.82
-70.87
-75.74
-76.77
-72.85
-63.81
-50.54
-34.76
-18.46
-3.38
9.45
19.69
27.55
33.48
37.89
41.09
43.29
44.64
45.32
45.54
45.37
44.82
43.80
42.26
40.28
38.07
35.93
34.11
32.74
31.78
31.11
30.50
29.64
28.24
26.06
22.97
19.07
14.64
10.06
5.70
1.74
-1.93
-5.57
-9.54
-14.13
-19.37
-25.08
-30.93
-36.50
-41.47
-45.74
-49.47
-53.07
-57.17
-62.38
-69.02
-76.90
-85.06
-91.84
-95.32
-93.82
-86.54
-73.88
-57.37
-39.20
-21.54
-5.95
6.83
16.87
24.65
30.78
35.82
40.15
44.02
47.54
50.69
53.31
55.15
55.95
55.58
54.07
51.71
48.88
46.04
43.56
41.65
40.31
39.38
38.60
37.63
36.20
34.08
31.17
27.48
23.12
18.37
13.58
9.06
4.96
1.18
-2.63
-6.86
-11.78
-17.39
-23.39
-29.32
-34.76
-39.47
-43.50
-47.20
-51.13
-55.95
-62.14
-69.85
-78.49
-86.78
-92.87
-94.86
-91.42
-82.25
-68.24
-51.13
-33.01
-15.74
-0.58
11.88
21.64
28.99
34.41
38.38
41.39
43.78
45.76
47.37
48.50
49.00
48.72
47.61
45.76
43.38
40.79
38.35
36.40
35.13
34.48
34.12
33.58
32.37
30.23
27.14
23.35
19.27
15.21
11.32
7.55
3.68
-0.49
-5.10
-10.08
-15.27
-20.37
-25.13
-29.43
-33.35
-37.25
-41.67
-47.11
-53.88
-61.75
-69.83
-76.66
-80.49
-79.81
-73.84
-62.83
-48.00
-31.22
-14.49
0.60
13.12
22.81
29.88
34.80
38.04
40.04
41.13
41.62
41.71
41.50
41.00
40.15
38.89
37.25
35.37
33.51
31.94
30.83
30.20
29.90
29.59
28.88
27.45
25.11
21.89
18.04
13.89
9.77
5.83
2.01
-1.98
-6.46
-11.65
-17.60
-24.07
-30.63
-36.79
-42.15
-46.59
-50.35
-54.05
-58.50
-64.45
-72.14
-81.03
-89.70
-96.11
-98.17
-94.40
-84.44
-69.20
-50.59
-30.94
-12.34
3.76
16.72
26.56
33.79
39.04
42.92
45.91
48.38
50.56
52.52
54.20
55.38
55.77
55.12
53.36
50.72
47.64
44.76
42.61
41.44
41.15
41.23
41.05
39.97
37.64
33.97
29.25
23.93
18.54
13.50
9.00
4.92
0.92
-3.42
-8.41
-14.10
-20.21
-26.26
-31.75
-36.43
-40.42
-44.21
-48.51
-54.02
-61.20
-70.03
-79.77
-88.94
-95.57
-97.63
-93.69
-83.44
-67.91
-49.15
-29.61
-11.44
4.02
16.32
25.69
32.71
38.00
42.12
45.47
48.38
50.99
53.25
54.97
55.87
55.76
54.63
52.70
50.33
47.95
45.97
44.59
43.80
43.37
42.92
42.03
40.40
37.92
34.65
30.78
26.49
21.92
17.15
12.19
7.02
1.57
-4.27
-10.60
-17.41
-24.55
-31.73
-38.60
-44.91
-50.63
-55.92
-61.16
-66.81
-73.37
-81.23
-90.48
-100.76
-110.99
-119.46
-124.14
-123.27
-116.00
-102.79
-85.38
-66.29
-48.06
-32.56
-20.55
-11.67
-4.64
2.34
11.24
23.83
41.30
63.86
90.30
117.95
143.17
162.23
172.50
173.31
166.05
153.54
138.89
124.51
111.56
100.07
89.51
79.21
68.69
57.63
45.78
32.95
19.12
4.60
-9.95
-23.66
-35.80
-45.87
-53.78
-59.75
-64.26
-67.86
-71.15
-74.67
-78.87
-83.96
-89.79
-95.68
-100.52
-102.85
-101.29
-94.89
-83.50
-67.90
-49.61
-30.51
-12.38
3.48
16.42
26.39
33.69
38.80
42.22
44.38
45.71
46.58
47.26
47.88
48.33
48.34
47.61
46.00
43.65
41.02
38.71
37.22
36.70
36.87
37.15
36.83
35.40
32.66
28.81
24.24
19.45
14.81
10.41
6.07
1.44
-3.82
-9.85
-16.51
-23.35
-29.85
-35.55
-40.29
-44.27
-47.96
-52.06
-57.26
-63.99
-72.18
-81.03
-89.00
-94.00
-94.05
-87.89
-75.53
-58.33
-38.62
-18.94
-1.34
13.08
24.14
32.34
38.44
43.13
46.94
50.20
53.10
55.67
57.81
59.26
59.74
59.11
57.35
54.73
51.69
48.73
46.29
44.65
43.83
43.59
43.54
43.17
42.06
39.90
36.68
32.57
27.88
22.97
18.11
13.42
8.84
4.16
-0.86
-6.40
-12.45
-18.81
-25.13
-31.06
-36.33
-40.97
-45.21
-49.59
-54.73
-61.15
-69.13
-78.33
-87.73
-95.60
-99.88
-98.75
-91.25
-77.73
-59.78
-39.81
-20.31
-3.15
10.78
21.54
29.78
36.30
41.73
46.41
50.46
53.86
56.57
58.56
59.75
60.03
59.32
57.60
55.01
51.89
48.66
45.78
43.57
42.14
41.36
40.88
40.25
39.03
36.85
33.60
29.39
24.55
19.52
14.70
10.28
6.22
2.24
-2.04
-6.94
-12.57
-18.77
-25.12
-31.16
-36.52
-41.07
-44.99
-48.70
-52.72
-57.61
-63.76
-71.19
-79.33
-86.97
-92.30
-93.45
-89.03
-78.76
-63.60
-45.50
-26.78
-9.39
5.50
17.55
26.96
34.16
39.54
43.44
46.19
48.15
49.63
50.75
51.42
51.38
50.34
48.19
45.14
41.63
38.25
35.47
33.58
32.54
32.03
31.61
30.81
29.30
26.96
23.91
20.48
16.98
13.58
10.19
6.44
1.97
-3.42
-9.54
-15.86
-21.73
-26.64
-30.52
-33.74
-37.02
-41.19
-46.93
-54.44
-63.21
-71.99
-78.94
-82.09
-79.94
-71.95
-58.77
-42.08
-24.08
-6.85
8.16
20.26
29.45
36.13
40.83
44.02
46.06
47.23
47.71
47.62
47.04
45.94
44.31
42.20
39.74
37.20
34.91
33.14
32.06
31.59
31.49
31.34
30.71
29.27
26.86
23.54
19.51
15.08
10.58
6.21
2.02
-2.14
-6.55
-11.50
-17.11
-23.30
-29.68
-35.77
-41.17
-45.77
-49.81
-53.88
-58.73
-65.02
-72.97
-82.18
-91.45
-98.96
-102.66
-100.87
-92.78
-78.91
-60.89
-41.05
-21.74
-4.71
9.19
19.98
28.18
34.52
39.65
44.07
48.08
51.75
55.01
57.59
59.18
59.51
58.50
56.32
53.39
50.22
47.30
44.96
43.29
42.25
41.64
41.17
40.51
39.29
37.26
34.26
30.39
25.89
21.10
16.34
11.75
7.29
2.75
-2.13
-7.52
-13.49
-19.86
-26.34
-32.56
-38.23
-43.24
-47.75
-52.16
-57.04
-62.97
-70.25
-78.74
-87.61
-95.41
-100.26
-100.39
-94.67
-83.07
-66.73
-47.68
-28.20
-10.23
5.04
17.26
26.68
33.88
39.46
43.95
47.78
51.23
54.44
57.27
59.45
60.56
60.33
58.71
55.98
52.66
49.37
46.60
44.64
43.51
42.98
42.65
42.06
40.75
38.40
34.94
30.54
25.65
20.77
16.23
12.04
7.95
3.48
-1.76
-7.90
-14.74
-21.78
-28.43
-34.23
-39.03
-43.02
-46.68
-50.66
-55.61
-61.95
-69.70
-78.26
-86.41
-92.45
-94.58
-91.44
-82.55
-68.51
-50.82
-31.53
-12.64
4.31
18.44
29.50
37.67
43.42
47.29
49.84
51.50
52.57
53.06
52.75
51.37
48.68
44.70
39.82
34.68
30.02
26.39
23.96
22.44
21.26
19.77
17.55
14.49
10.82
6.85
2.80
-1.32
-5.68
-10.43
-15.52
-20.70
-25.51
-29.56
-32.72
-35.17
-37.35
-39.81
-43.15
-47.76
-53.76
-60.80
-67.88
-73.48
-75.79
-73.28
-65.24
-52.12
-35.42
-17.28
0.23
15.54
27.88
37.18
43.85
48.48
51.64
53.74
55.04
55.61
55.37
54.27
52.33
49.72
46.77
43.83
41.25
39.22
37.77
36.78
35.99
35.11
33.82
31.88
29.11
25.52
21.25
16.57
11.73
6.92
2.09
-2.98
-8.54
-14.70
-21.30
-27.93
-34.06
-39.32
-43.65
-47.48
-51.55
-56.72
-63.62
-72.32
-82.04
-91.12
-97.42
-98.81
-93.94
-82.73
-66.45
-47.28
-27.64
-9.51
5.97
18.48
28.27
35.83
41.72
46.44
50.44
54.04
57.33
60.16
62.16
62.91
62.14
59.88
56.51
52.64
48.95
46.01
44.11
43.15
42.77
42.36
41.28
39.08
35.60
31.03
25.81
20.50
15.44
10.71
6.01
0.87
-5.11
-12.05
-19.59
-27.05
-33.66
-38.81
-42.23
-44.13
-45.09
-46.04
-48.02
-51.91
-58.02
-65.77
-73.61
-79.28
-80.56
-76.00
-65.55
-50.58
-33.32
-16.16
-0.84
11.85
21.94
29.94
36.48
42.01
46.77
50.86
54.26
56.88
58.59
59.26
58.86
57.51
55.48
53.13
50.82
48.77
47.09
45.72
44.51
43.37
42.12
40.63
38.76
36.35
33.31
29.70
25.66
21.42
17.17
12.99
8.85
4.60
0.12
-4.68
-9.85
-15.37
-21.19
-27.15
-32.99
-38.36
-43.00
-46.87
-50.34
-54.10
-58.94
-65.43
-73.52
-82.33
-90.30
-95.47
-96.07
-91.00
-80.24
-64.84
-46.64
-27.80
-10.22
4.82
16.80
25.87
32.58
37.58
41.41
44.42
46.81
48.65
49.91
50.54
50.41
49.43
47.56
44.96
41.98
39.10
36.84
35.47
34.99
35.05
35.06
34.47
32.87
30.21
26.70
22.76
18.78
14.95
11.21
7.26
2.79
-2.37
-8.03
-13.77
-19.08
-23.63
-27.41
-30.77
-34.30
-38.63
-44.20
-51.19
-59.29
-67.69
-74.97
-79.41
-79.39
-73.95
-63.17
-48.26
-31.18
-14.05
1.44
14.37
24.56
32.29
38.03
42.21
45.17
47.11
48.17
48.39
47.83
46.58
44.75
42.55
40.19
37.85
35.71
33.89
32.50
31.55
30.97
30.47
29.67
28.15
25.63
22.09
17.78
13.09
8.46
4.18
0.34
-3.22
-6.81
-10.80
-15.44
-20.76
-26.54
-32.41
-37.91
-42.76
-46.90
-50.59
-54.36
-58.85
-64.64
-71.98
-80.50
-89.12
-96.06
-99.29
-97.10
-88.74
-74.78
-56.97
-37.72
-19.31
-3.38
9.40
19.16
26.53
32.26
37.02
41.22
45.09
48.69
51.93
54.58
56.39
57.17
56.79
55.33
53.01
50.21
47.36
44.85
42.97
41.78
41.09
40.56
39.72
38.18
35.67
32.18
27.89
23.17
18.38
13.77
9.41
5.17
0.81
-3.90
-9.10
-14.75
-20.65
-26.50
-32.00
-36.97
-41.34
-45.21
-48.87
-52.78
-57.46
-63.38
-70.66
-78.85
-86.75
-92.56
-94.34
-90.66
-81.13
-66.62
-49.01
-30.61
-13.41
1.31
13.09
22.11
28.82
33.78
37.52
40.59
43.44
46.30
49.13
51.54
52.98
52.93
51.21
48.02
43.97
39.80
36.25
33.74
32.36
31.79
31.53
31.01
29.79
27.71
24.80
21.24
17.24
12.90
8.28
3.46
-1.40
-6.04
-10.13
-13.32
-15.19
-15.29
-13.19
-8.61
-1.80
6.28
13.95
19.10
19.78
14.75
3.90
-11.88
-30.86
-50.93
-69.86
-85.62
-96.46
-101.27
-99.72
-92.38
-80.69
-66.58
-52.07
-38.77
-27.64
-18.86
-12.01
-6.33
-1.02
4.35
9.82
15.01
19.34
22.39
24.12
24.89
25.32
26.01
27.33
29.28
31.65
34.00
35.96
37.25
37.66
37.12
35.66
33.33
30.29
26.73
22.85
18.73
14.40
9.76
4.76
-0.61
-6.26
-11.97
-17.58
-22.99
-28.32
-33.85
-40.03
-47.24
-55.60
-64.80
-73.82
-81.13
-84.90
-83.53
-76.26
-63.48
-46.73
-28.22
-10.27
5.49
18.27
28.18
35.80
41.78
46.62
50.50
53.51
55.76
57.39
58.53
59.20
59.28
58.59
56.99
54.58
51.71
48.86
46.49
44.85
43.88
43.26
42.50
41.12
38.82
35.50
31.29
26.50
21.48
16.53
11.78
7.19
2.59
-2.29
-7.72
-13.84
-20.61
-27.77
-34.90
-41.56
-47.41
-52.40
-56.87
-61.50
-67.12
-74.33
-83.14
-92.69
-101.27
-106.71
-106.98
-100.86
-88.41
-70.93
-50.63
-29.90
-10.76
5.57
18.72
28.92
36.73
42.78
47.60
51.58
54.96
57.87
60.24
61.92
62.69
62.38
60.94
58.58
55.70
52.83
50.45
48.85
48.05
47.86
47.88
47.74
47.07
45.62
43.24
39.88
35.63
30.65
25.25
19.75
14.42
9.36
4.48
-0.50
-5.85
-11.74
-18.13
-24.75
-31.19
-37.10
-42.30
-46.96
-51.45
-56.36
-62.31
-69.71
-78.57
-88.27
-97.45
-104.19
-106.42
-102.58
-92.19
-76.04
-56.13
-34.97
-14.90
2.51
16.69
27.88
36.76
44.06
50.31
55.81
60.63
64.66
67.70
69.47
69.65
68.04
64.57
59.49
53.31
46.77
40.67
35.66
32.11
30.00
28.93
28.26
27.34
25.66
23.01
19.45
15.23
10.74
6.29
2.17
-1.48
-4.63
-7.45
-10.23
-13.31
-16.94
-21.18
-25.86
-30.61
-35.09
-39.10
-42.82
-46.67
-51.26
-57.13
-64.40
-72.66
-80.75
-87.05
-89.73
-87.34
-79.26
-65.93
-48.78
-29.82
-11.08
5.74
19.66
30.31
37.86
42.82
45.90
47.77
48.96
49.78
50.27
50.25
49.54
48.07
46.02
43.71
41.53
39.74
38.37
37.32
36.35
35.21
33.73
31.77
29.30
26.30
22.72
18.46
13.44
7.60
1.04
-5.92
-12.87
-19.39
-25.30
-30.75
-36.19
-42.16
-49.06
-57.01
-65.82
-75.09
-84.21
-92.41
-98.66
-101.77
-100.53
-94.15
-82.54
-66.50
-47.67
-28.17
-10.14
4.67
15.31
21.86
25.36
27.61
30.85
37.33
49.05
67.33
92.27
122.20
153.32
180.25
197.36
200.77
189.83
167.53
139.22
110.45
84.95
63.74
45.87
29.85
14.99
1.75
-8.98
-16.79
-22.44
-27.53
-33.70
-41.72
-51.12
-60.52
-68.34
-73.57
-76.11
-76.79
-76.89
-77.69
-80.10
-84.43
-90.40
-97.14
-103.30
-107.27
-107.43
-102.59
-92.32
-77.11
-58.35
-37.94
-17.94
-0.06
14.55
25.41
32.72
37.23
39.99
42.15
44.55
47.56
50.99
54.16
56.21
56.37
54.30
50.17
44.67
38.84
33.74
30.19
28.44
28.14
28.45
28.38
27.14
24.42
20.46
15.79
10.97
6.32
1.87
-2.60
-7.36
-12.57
-18.22
-24.19
-30.26
-36.19
-41.80
-46.94
-51.60
-56.00
-60.54
-65.73
-71.97
-79.29
-87.08
-93.97
-98.09
-97.54
-91.02
-78.35
-60.59
-39.75
-18.19
2.12
19.93
34.79
46.73
55.99
62.77
67.28
69.84
70.94
71.13
70.91
70.46
69.69
68.25
65.87
62.50
58.42
54.19
50.40
47.47
45.46
44.08
42.77
40.99
38.36
34.83
30.61
26.03
21.34
16.58
11.64
6.27
0.36
-6.01
-12.57
-18.95
-24.84
-30.13
-35.01
-39.87
-45.31
-51.82
-59.65
-68.45
-77.27
-84.54
-88.46
-87.39
-80.53
-68.18
-51.78
-33.51
-15.71
-0.16
12.20
21.34
27.84
32.44
35.78
38.20
39.84
40.73
40.89
40.36
39.17
37.36
35.01
32.26
29.31
26.40
23.75
21.52
19.80
18.61
17.73
16.78
15.24
12.66
8.80
3.83
-1.76
-7.42
-12.79
-17.84
-22.92
-28.47
-34.74
-41.71
-49.14
-56.73
-64.36
-72.09
-79.90
-87.39
-93.41
-96.15
-93.52
-83.77
-66.01
-40.47
-8.41
28.05
66.12
102.46
133.45
155.73
166.98
166.69
156.36
139.14
118.76
98.55
80.59
65.68
53.67
43.99
36.02
29.22
23.17
17.60
12.43
7.71
3.56
-0.01
-3.14
-6.06
-8.94
-11.76
-14.33
-16.44
-18.13
-19.74
-21.87
-24.97
-29.18
-34.12
-39.10
-43.38
-46.52
-48.59
-50.16
-52.02
-55.00
-59.65
-66.11
-73.99
-82.34
-89.72
-94.38
-94.64
-89.30
-78.16
-62.10
-43.01
-23.25
-5.00
10.28
22.02
30.57
36.76
41.55
45.66
49.48
53.05
56.20
58.61
59.99
60.11
58.93
56.55
53.28
49.59
46.01
43.02
40.94
39.78
39.29
38.98
38.33
36.87
34.39
30.88
26.59
21.89
17.18
12.75
8.74
5.17
1.88
-1.44
-5.09
-9.36
-14.36
-19.98
-25.94
-31.81
-37.16
-41.76
-45.61
-49.01
-52.52
-56.84
-62.54
-69.87
-78.46
-87.15
-94.15
-97.36
-95.08
-86.58
-72.43
-54.36
-34.79
-16.06
0.17
13.12
22.94
30.28
35.99
40.81
45.21
49.36
53.15
56.31
58.50
59.49
59.19
57.74
55.41
52.57
49.61
46.87
44.60
42.89
41.68
40.75
39.83
38.64
37.01
34.82
32.04
28.66
24.74
20.41
15.88
11.38
7.09
3.08
-0.70
-4.40
-8.18
-12.20
-16.55
-21.24
-26.15
-31.03
-35.57
-39.57
-43.09
-46.51
-50.42
-55.47
-61.95
-69.65
-77.65
-84.49
-88.44
-87.99
-82.30
-71.44
-56.50
-39.20
-21.48
-4.99
9.19
20.56
29.08
35.00
38.72
40.74
41.63
41.96
42.12
42.27
42.30
41.91
40.82
38.97
36.55
34.03
31.92
30.62
30.24
30.54
31.06
31.18
30.41
28.46
25.38
21.42
17.03
12.59
8.36
4.35
0.37
-3.86
-8.60
-13.90
-19.61
-25.41
-30.93
-35.90
-40.27
-44.29
-48.48
-53.45
-59.72
-67.29
-75.48
-82.81
-87.39
-87.36
-81.60
-70.14
-54.25
-36.05
-17.88
-1.64
11.65
21.84
29.43
35.16
39.70
43.43
46.50
48.93
50.68
51.77
52.21
51.99
51.03
49.32
46.90
43.99
40.98
38.31
36.32
35.14
34.63
34.40
33.93
32.76
30.60
27.41
23.38
18.80
14.01
9.27
4.75
0.53
-3.42
-7.22
-11.06
-15.23
-19.91
-25.14
-30.72
-36.24
-41.24
-45.47
-49.02
-52.33
-56.10
-60.95
-67.26
-74.86
-82.96
-90.18
-94.81
-95.17
-90.15
-79.59
-64.41
-46.36
-27.60
-10.04
5.05
17.16
26.46
33.41
38.61
42.58
45.74
48.37
50.65
52.56
54.00
54.75
54.61
53.52
51.57
49.06
46.40
44.04
42.25
41.13
40.48
39.91
39.01
37.47
35.18
32.22
28.78
25.04
21.17
17.24
13.31
9.44
5.68
2.00
-1.68
-5.57
-9.86
-14.66
-19.94
-25.51
-31.09
-36.42
-41.28
-45.67
-49.80
-54.08
-59.08
-65.35
-73.17
-82.22
-91.44
-99.08
-103.06
-101.55
-93.71
-79.97
-62.04
-42.30
-23.10
-6.13
7.84
18.80
27.21
33.64
38.58
42.38
45.32
47.61
49.33
50.49
50.96
50.61
49.36
47.28
44.63
41.80
39.22
37.27
36.17
35.87
36.12
36.47
36.48
35.77
34.21
31.84
28.85
25.49
21.96
18.39
14.73
10.88
6.62
1.81
-3.62
-9.55
-15.68
-21.65
-27.13
-31.95
-36.19
-40.11
-44.11
-48.69
-54.26
-61.10
-69.12
-77.66
-85.44
-90.70
-91.64
-87.00
-76.52
-61.12
-42.60
-23.18
-4.83
11.06
23.83
33.48
40.35
44.99
47.93
49.66
50.53
50.81
50.65
50.09
49.18
47.94
46.46
44.93
43.57
42.63
42.23
42.33
42.64
42.73
42.15
40.57
37.78
33.80
28.71
22.61
15.54
7.52
-1.42
-11.14
-21.35
-31.63
-41.42
-50.20
-57.47
-62.91
-66.52
-68.70
-70.25
-72.19
-75.40
-80.15
-85.74
-90.48
-92.14
-88.74
-79.31
-64.33
-45.54
-25.36
-6.09
10.74
24.41
34.93
42.62
47.91
51.30
53.41
54.92
56.43
58.20
60.01
61.33
61.49
60.10
57.26
53.48
49.55
46.17
43.71
42.18
41.30
40.68
39.90
38.66
36.70
33.80
29.92
25.15
19.77
14.24
8.96
4.07
-0.55
-5.30
-10.55
-16.45
-22.84
-29.30
-35.42
-41.00
-46.11
-51.14
-56.62
-63.14
-71.10
-80.50
-90.71
-100.30
-107.21
-109.23
-104.67
-93.05
-75.36
-53.79
-31.10
-9.80
8.40
22.84
33.73
41.77
47.82
52.56
56.47
59.77
62.50
64.59
65.87
66.17
65.37
63.50
60.75
57.50
54.22
51.34
49.13
47.65
46.75
46.13
45.42
44.19
42.12
38.93
34.61
29.38
23.72
18.15
13.09
8.64
4.53
0.27
-4.64
-10.51
-17.31
-24.67
-32.02
-38.79
-44.61
-49.44
-53.57
-57.60
-62.31
-68.47
-76.53
-86.28
-96.61
-105.57
-110.73
-109.88
-101.84
-86.91
-66.87
-44.44
-22.38
-2.79
13.30
25.78
35.19
42.22
47.53
51.62
54.89
57.65
60.02
61.96
63.25
63.61
62.86
61.04
58.45
55.49
52.63
50.27
48.63
47.73
47.35
47.06
46.32
44.58
41.53
37.22
32.05
26.63
21.50
16.89
12.64
8.27
3.27
-2.67
-9.50
-16.79
-23.93
-30.36
-35.75
-40.15
-43.93
-47.80
-52.53
-58.86
-67.11
-76.98
-87.26
-95.97
-100.74
-99.46
-91.05
-75.91
-55.90
-33.79
-12.41
6.11
20.77
31.58
39.20
44.41
47.79
49.74
50.49
50.34
49.58
48.45
47.08
45.41
43.36
40.95
38.43
36.12
34.36
33.23
32.56
32.00
31.16
29.80
27.81
25.19
21.92
17.92
13.06
7.30
0.70
-6.46
-13.78
-20.82
-27.27
-33.06
-38.40
-43.74
-49.69
-56.83
-65.43
-75.24
-85.27
-93.83
-98.82
-98.29
-91.10
-77.36
-58.51
-36.93
-15.26
4.32
20.47
32.80
41.60
47.56
51.48
54.12
56.13
57.87
59.39
60.42
60.59
59.56
57.26
53.94
50.09
46.25
42.89
40.26
38.41
37.17
36.16
34.93
33.05
30.29
26.65
22.33
17.60
12.54
7.10
1.05
-5.78
-13.34
-21.34
-29.33
-36.86
-43.67
-49.82
-55.66
-61.82
-68.95
-77.55
-87.61
-98.37
-108.16
-114.75
-115.87
-109.97
-96.87
-77.82
-55.25
-31.90
-10.11
8.72
24.12
36.24
45.57
52.57
57.72
61.55
64.62
67.35
69.89
71.99
73.07
72.53
70.06
65.87
60.71
55.56
51.36
48.61
47.25
46.73
46.22
44.93
42.38
38.52
33.66
28.28
22.84
17.51
12.23
6.68
0.54
-6.37
-13.94
-21.77
-29.33
-36.18
-42.12
-47.31
-52.30
-57.84
-64.74
-73.54
-84.11
-95.38
-105.32
-111.35
-111.06
-103.07
-87.59
-66.45
-42.50
-18.76
2.44
19.88
33.42
43.59
51.14
56.76
60.92
64.00
66.31
68.09
69.43
70.21
70.15
68.90
66.32
62.60
58.28
54.15
50.90
48.88
47.96
47.59
47.03
45.68
43.27
39.89
35.83
31.41
26.79
21.90
16.53
10.49
3.71
-3.69
-11.39
-18.97
-26.01
-32.20
-37.44
-41.97
-46.32
-51.27
-57.64
-65.95
-76.02
-86.73
-96.13
-101.77
-101.44
-93.85
-79.14
-58.99
-36.04
-13.30
6.72
22.50
33.67
40.79
44.90
47.09
48.18
48.64
48.61
48.13
47.17
45.81
44.14
42.26
40.27
38.28
36.47
35.02
34.07
33.65
33.58
33.52
33.05
31.79
29.54
26.28
22.15
17.30
11.87
5.89
-0.56
-7.35
-14.21
-20.80
-26.85
-32.38
-37.81
-43.90
-51.48
-60.97
-71.97
-83.04
-91.89
-95.96
-93.26
-83.04
-66.21
-45.01
-22.40
-1.17
16.77
30.64
40.66
47.59
52.35
55.72
58.22
60.15
61.61
62.53
62.67
61.77
59.63
56.30
52.16
47.81
43.95
41.06
39.28
38.32
37.59
36.45
34.42
31.33
27.30
22.59
17.43
11.86
5.82
-0.83
-8.10
-15.80
-23.55
-30.88
-37.41
-42.99
-47.87
-52.67
-58.31
-65.80
-75.79
-88.08
-101.34
-113.08
-120.30
-120.35
-111.88
-95.45
-73.35
-48.80
-24.99
-4.19
12.58
25.31
34.63
41.31
46.12
49.74
52.77
55.64
58.45
60.98
62.65
62.87
61.26
57.94
53.50
48.84
44.83
42.06
40.72
40.45
40.58
40.24
38.71
35.66
31.16
25.71
19.88
14.15
8.59
3.02
-2.98
-9.71
-17.21
-25.19
-33.13
-40.56
-47.16
-53.00
-58.44
-64.13
-70.81
-79.11
-89.19
-100.40
-111.18
-119.13
-121.70
-116.93
-104.20
-84.54
-60.44
-35.03
-11.17
9.18
25.26
37.32
46.10
52.52
57.33
61.07
64.11
66.63
68.61
69.86
70.09
69.04
66.62
62.98
58.53
53.85
49.62
46.35
44.35
43.46
43.15
42.66
41.24
38.43
34.26
29.17
23.80
18.69
13.98
9.38
4.37
-1.54
-8.49
-16.18
-24.00
-31.29
-37.64
-42.99
-47.62
-52.03
-56.78
-62.44
-69.47
-78.09
-87.96
-97.97
-106.14
-110.03
-107.47
-97.37
-80.24
-58.18
-34.16
-11.16
8.68
24.40
36.12
44.57
50.61
54.96
58.11
60.35
61.85
62.60
62.51
61.40
59.14
55.83
51.78
47.54
43.71
40.68
38.61
37.33
36.48
35.60
34.29
32.30
29.46
25.79
21.36
16.30
10.70
4.65
-1.81
-8.60
-15.52
-22.30
-28.60
-34.20
-39.09
-43.63
-48.46
-54.31
-61.62
-70.22
-79.04
-86.20
-89.49
-87.04
-77.94
-62.70
-43.05
-21.53
-0.66
17.61
32.23
42.99
50.25
54.64
56.88
57.62
57.44
56.69
55.51
53.86
51.58
48.62
45.08
41.23
37.48
34.19
31.59
29.72
28.40
27.25
25.81
23.66
20.53
16.40
11.42
5.86
-0.05
-6.22
-12.60
-19.15
-25.75
-32.19
-38.26
-43.82
-48.87
-53.64
-58.55
-64.22
-71.25
-79.93
-89.85
-99.67
-107.16
-109.79
-105.59
-93.87
-75.61
-53.14
-29.42
-7.13
11.97
27.16
38.57
46.82
52.66
56.84
60.04
62.76
65.29
67.56
69.19
69.64
68.46
65.53
61.16
56.00
50.88
46.50
43.20
40.97
39.41
37.98
36.15
33.54
30.03
25.66
20.64
15.20
9.52
3.65
-2.45
-8.86
-15.59
-22.51
-29.36
-35.81
-41.63
-46.79
-51.57
-56.53
-62.36
-69.70
-78.74
-88.97
-98.93
-106.45
-109.11
-105.02
-93.56
-75.61
-53.43
-29.90
-7.69
11.37
26.53
37.98
46.43
52.66
57.41
61.18
64.28
66.88
68.95
70.29
70.63
69.71
67.37
63.73
59.13
54.11
49.27
45.16
42.13
40.26
39.26
38.57
37.49
35.37
31.88
27.09
21.47
15.64
10.11
5.08
0.31
-4.59
-10.05
-16.21
-22.90
-29.73
-36.21
-41.96
-46.78
-50.73
-54.16
-57.63
-61.90
-67.66
-75.23
-84.15
-93.02
-99.61
-101.47
-96.64
-84.47
-65.93
-43.39
-19.93
1.53
19.09
32.00
40.61
45.87
48.83
50.34
51.01
51.19
51.16
51.03
50.78
50.17
48.86
46.51
43.08
38.89
34.64
31.15
29.07
28.56
29.25
30.34
30.93
30.34
28.26
24.84
20.52
15.74
10.90
6.10
1.28
-3.82
-9.41
-15.54
-22.03
-28.51
-34.54
-39.87
-44.58
-49.11
-54.16
-60.38
-68.06
-76.93
-85.99
-93.63
-97.90
-97.03
-89.96
-76.72
-58.55
-37.66
-16.55
2.58
18.32
30.28
38.78
44.55
48.26
50.38
51.12
50.59
48.95
46.45
43.42
40.18
36.92
33.71
30.54
27.43
24.49
21.90
19.87
18.50
17.67
17.04
16.11
14.36
11.43
7.19
1.88
-4.06
-10.06
-15.66
-20.62
-24.97
-29.00
-33.20
-38.12
-44.30
-52.07
-61.33
-71.31
-80.50
-86.80
-88.10
-82.87
-70.82
-53.13
-32.08
-10.44
9.36
25.80
38.37
47.36
53.46
57.39
59.63
60.49
60.16
58.81
56.64
53.87
50.65
47.07
43.20
39.08
34.84
30.73
27.05
24.07
21.90
20.38
19.08
17.35
14.59
10.39
4.67
-2.27
-9.84
-17.38
-24.31
-30.31
-35.41
-40.00
-44.76
-50.52
-57.98
-67.35
-78.06
-88.59
-96.70
-99.99
-96.65
-86.10
-69.24
-48.24
-25.83
-4.55
13.77
28.33
39.15
46.81
52.07
55.67
58.19
59.98
61.21
61.86
61.75
60.72
58.60
55.39
51.26
46.54
41.67
37.09
33.17
30.08
27.74
25.82
23.74
20.87
16.70
11.00
3.99
-3.75
-11.46
-18.46
-24.44
-29.50
-34.11
-38.97
-44.77
-52.06
-61.08
-71.62
-82.80
-93.01
-100.08
-101.75
-96.42
-83.78
-65.03
-42.67
-19.69
1.28
18.61
31.87
41.54
48.56
53.85
58.06
61.55
64.34
66.32
67.22
66.79
64.91
61.72
57.64
53.29
49.34
46.22
44.04
42.53
41.21
39.57
37.23
34.08
30.23
25.90
21.26
16.34
11.01
5.09
-1.54
-8.84
-16.55
-24.31
-31.69
-38.35
-44.15
-49.21
-53.96
-59.13
-65.53
-73.72
-83.49
-93.61
-101.85
-105.53
-102.43
-91.63
-73.95
-51.73
-28.07
-5.82
13.08
27.92
38.98
47.02
52.86
57.15
60.31
62.62
64.24
65.16
65.18
64.04
61.53
57.67
52.87
47.85
43.36
39.99
37.87
36.67
35.80
34.60
32.63
29.79
26.21
22.15
17.85
13.40
8.78
3.87
-1.46
-7.21
-13.23
-19.28
-25.00
-30.15
-34.68
-38.84
-43.21
-48.53
-55.41
-63.92
-73.34
-82.02
-87.75
-88.33
-82.34
-69.69
-51.74
-30.90
-9.91
8.91
24.12
35.34
42.97
47.81
50.73
52.36
53.07
52.93
51.91
49.96
47.15
43.72
40.08
36.62
33.67
31.35
29.60
28.24
27.10
26.03
24.95
23.78
22.35
20.36
17.47
13.39
8.05
1.70
-5.24
-12.19
-18.69
-24.47
-29.48
-33.91
-38.09
-42.47
-47.52
-53.71
-61.15
-69.48
-77.59
-83.75
-85.93
-82.48
-72.73
-57.34
-38.14
-17.60
1.84
18.44
31.41
40.80
47.20
51.41
54.16
56.05
57.47
58.54
59.18
59.09
57.98
55.68
52.31
48.25
44.03
40.23
37.23
35.19
34.01
33.29
32.48
31.02
28.44
24.61
19.78
14.46
9.24
4.49
0.20
-3.95
-8.48
-13.73
-19.73
-26.19
-32.55
-38.30
-43.09
-46.92
-50.19
-53.64
-58.12
-64.28
-72.16
-80.88
-88.68
-93.26
-92.47
-85.15
-71.55
-53.36
-33.12
-13.45
3.69
17.45
27.91
35.79
41.89
46.86
50.99
54.41
57.09
59.03
60.18
60.51
59.90
58.31
55.79
52.60
49.18
46.09
43.79
42.48
41.97
41.80
41.35
40.13
37.93
34.90
31.39
27.81
24.36
21.00
17.50
13.62
9.27
4.53
-0.29
-4.88
-9.01
-12.67
-16.01
-19.28
-22.76
-26.61
-30.86
-35.38
-40.05
-44.71
-49.28
-53.75
-58.16
-62.64
-67.46
-72.99
-79.46
-86.67
-93.69
-98.82
-99.95
-95.29
-84.15
-67.32
-46.93
-25.75
-6.24
10.05
22.67
32.01
38.81
43.81
47.57
50.47
52.86
54.91
56.67
58.04
58.75
58.55
57.30
55.11
52.31
49.40
46.81
44.83
43.50
42.57
41.69
40.47
38.69
36.32
33.43
30.16
26.59
22.69
18.44
13.82
8.90
3.85
-1.07
-5.64
-9.72
-13.33
-16.66
-20.01
-23.65
-27.70
-32.10
-36.64
-41.05
-45.12
-48.81
-52.25
-55.80
-59.91
-65.07
-71.47
-78.75
-85.88
-91.20
-92.83
-89.32
-80.11
-65.85
-48.19
-29.29
-11.22
4.49
17.08
26.47
33.06
37.49
40.42
42.42
43.89
44.99
45.67
45.75
45.07
43.52
41.20
38.41
35.52
32.95
30.97
29.64
28.82
28.24
27.57
26.52
24.92
22.65
19.73
16.23
12.28
8.04
3.63
-0.86
-5.45
-10.18
-15.12
-20.21
-25.26
-30.06
-34.46
-38.54
-42.70
-47.50
-53.51
-60.94
-69.40
-77.76
-84.31
-87.12
-84.68
-76.32
-62.56
-45.00
-25.85
-7.40
8.66
21.46
30.95
37.57
42.02
44.86
46.55
47.43
47.73
47.60
47.11
46.18
44.67
42.46
39.59
36.36
33.28
30.90
29.67
29.64
30.46
31.41
31.65
30.47
27.60
23.27
18.09
12.77
7.84
3.45
-0.62
-4.86
-9.73
-15.46
-21.95
-28.78
-35.40
-41.29
-46.23
-50.41
-54.38
-58.94
-64.84
-72.48
-81.61
-91.18
-99.43
-104.31
-103.95
-97.32
-84.56
-67.01
-46.84
-26.49
-7.99
7.44
19.48
28.58
35.55
41.25
46.33
51.10
55.55
59.43
62.44
64.32
64.98
64.46
62.88
60.42
57.29
53.82
50.45
47.66
45.80
44.93
44.72
44.57
43.78
41.84
38.55
34.07
28.77
23.11
17.48
12.12
7.03
2.04
-3.16
-8.85
-15.14
-21.88
-28.65
-34.98
-40.51
-45.20
-49.37
-53.62
-58.63
-64.96
-72.90
-82.21
-92.06
-100.98
-106.99
-108.14
-103.00
-91.27
-73.92
-53.02
-31.13
-10.56
7.12
21.31
32.20
40.38
46.55
51.32
55.19
58.56
61.67
64.54
66.92
68.36
68.43
66.96
64.12
60.46
56.62
53.22
50.59
48.77
47.58
46.72
45.84
44.60
42.67
39.85
36.04
31.38
26.21
20.92
15.84
11.11
6.66
2.20
-2.60
-8.03
-14.16
-20.74
-27.33
-33.39
-38.49
-42.56
-45.94
-49.37
-53.79
-59.98
-68.28
-78.23
-88.60
-97.49
-102.76
-102.58
-95.92
-82.92
-64.88
-43.96
-22.64
-3.09
13.24
25.75
34.63
40.57
44.44
47.07
49.04
50.65
51.93
52.69
52.67
51.69
49.72
46.99
43.94
41.07
38.82
37.42
36.80
36.67
36.57
36.03
34.70
32.44
29.32
25.48
21.12
16.32
11.10
5.39
-0.80
-7.33
-13.93
-20.22
-25.90
-30.87
-35.30
-39.65
-44.55
-50.57
-58.02
-66.71
-75.80
-83.77
-88.71
-88.73
-82.58
-70.13
-52.51
-31.90
-10.89
8.24
23.96
35.75
43.87
49.07
52.22
54.08
55.18
55.84
56.20
56.30
56.10
55.50
54.38
52.62
50.19
47.20
44.01
41.13
39.04
37.96
37.70
37.74
37.29
35.72
32.71
28.33
22.98
17.17
11.41
5.98
0.97
-3.76
-8.49
-13.51
-19.04
-25.06
-31.33
-37.43
-42.96
-47.67
-51.68
-55.48
-59.82
-65.51
-73.03
-82.24
-92.13
-100.93
-106.39
-106.41
-99.72
-86.31
-67.58
-45.90
-23.94
-3.98
12.63
25.55
35.17
42.31
47.77
52.21
56.01
59.34
62.22
64.53
66.08
66.58
65.84
63.79
60.59
56.69
52.69
49.18
46.62
45.09
44.36
44.00
43.46
42.29
40.22
37.18
33.28
28.71
23.75
18.68
13.69
8.91
4.31
-0.27
-5.07
-10.31
-16.13
-22.43
-28.96
-35.30
-41.04
-45.92
-49.98
-53.60
-57.41
-62.16
-68.42
-76.38
-85.50
-94.50
-101.40
-104.02
-100.62
-90.53
-74.50
-54.47
-32.98
-12.41
5.60
20.30
31.70
40.17
46.22
50.39
53.32
55.65
57.88
60.20
62.31
63.59
63.39
61.41
57.88
53.51
49.20
45.69
43.32
42.00
41.34
40.87
40.19
39.08
37.44
35.25
32.50
29.24
25.51
21.44
17.20
12.94
8.73
4.54
0.20
-4.48
-9.69
-15.51
-21.84
-28.39
-34.76
-40.52
-45.42
-49.48
-53.10
-56.93
-61.69
-67.85
-75.33
-83.33
-90.36
-94.51
-93.96
-87.60
-75.36
-58.43
-38.92
-19.23
-1.47
13.02
23.79
31.12
35.70
38.32
39.69
40.33
40.63
40.78
40.82
40.60
39.91
38.51
36.38
33.71
30.98
28.72
27.36
27.05
27.54
28.27
28.61
28.05
26.37
23.70
20.37
16.75
13.05
9.32
5.37
0.92
-4.17
-9.85
-15.82
-21.62
-26.90
-31.53
-35.76
-40.13
-45.29
-51.68
-59.37
-67.78
-75.68
-81.38
-83.05
-79.29
-69.61
-54.73
-36.42
-17.06
1.05
16.32
28.06
36.50
42.30
46.25
48.92
50.67
51.64
51.94
51.67
50.88
49.58
47.71
45.24
42.25
39.01
35.90
33.37
31.66
30.76
30.33
29.84
28.73
26.65
23.59
19.78
15.62
11.47
7.50
3.64
-0.32
-4.68
-9.67
-15.37
-21.70
-28.36
-34.93
-41.01
-46.32
-50.84
-54.98
-59.45
-65.06
-72.38
-81.25
-90.60
-98.48
-102.58
-100.92
-92.55
-77.91
-58.72
-37.51
-16.85
1.25
15.73
26.49
34.17
39.69
44.03
47.87
51.59
55.22
58.53
61.20
62.89
63.30
62.28
59.84
56.18
51.74
47.18
43.27
40.58
39.33
39.21
39.50
39.29
37.86
34.92
30.68
25.68
20.50
15.52
10.81
6.23
1.51
-3.60
-9.24
-15.42
-21.97
-28.60
-34.89
-40.49
-45.23
-49.31
-53.30
-58.03
-64.30
-72.43
-81.95
-91.45
-98.81
-101.75
-98.58
-88.80
-73.27
-54.03
-33.54
-14.12
2.67
16.16
26.41
33.94
39.41
43.52
46.79
49.65
52.29
54.68
56.56
57.50
57.10
55.13
51.68
47.14
42.15
37.40
33.44
30.49
28.41
26.82
25.15
22.93
19.82
15.76
10.83
5.29
-0.58
-6.50
-12.28
-17.91
-23.48
-29.24
-35.43
-42.11
-49.00
-55.42
-60.34
-62.71
-61.87
-57.86
-51.64
-44.85
-39.38
-36.75
-37.62
-41.53
-46.98
-51.94
-54.40
-52.97
-47.18
-37.49
-25.03
-11.16
2.79
15.80
27.15
36.39
43.31
47.94
50.54
51.57
51.59
51.09
50.36
49.45
48.23
46.54
44.31
41.70
39.08
36.92
35.66
35.48
36.23
37.42
38.37
38.47
37.36
35.02
31.80
28.18
24.61
21.28
18.10
14.75
10.86
6.19
0.69
-5.42
-11.77
-17.94
-23.64
-28.80
-33.67
-38.77
-44.67
-51.64
-59.38
-66.75
-72.02
-73.24
-68.99
-58.93
-43.99
-26.10
-7.66
9.20
23.07
33.45
40.59
45.20
48.10
49.95
51.15
51.84
51.95
51.35
49.99
47.95
45.44
42.69
39.94
37.33
35.00
33.02
31.45
30.21
29.05
27.59
25.45
22.43
18.64
14.43
10.17
6.08
2.00
-2.40
-7.48
-13.30
-19.58
-25.82
-31.49
-36.39
-40.64
-44.66
-49.04
-54.30
-60.83
-68.60
-77.07
-85.01
-90.65
-92.09
-87.86
-77.56
-62.07
-43.37
-23.87
-5.77
9.52
21.52
30.47
37.01
41.85
45.59
48.67
51.34
53.67
55.53
56.66
56.76
55.64
53.33
50.16
46.63
43.24
40.36
38.04
36.09
34.21
32.14
29.77
27.10
24.16
20.82
16.84
11.97
6.11
-0.53
-7.49
-14.26
-20.43
-25.90
-30.86
-35.69
-40.84
-46.79
-53.92
-62.40
-71.90
-81.48
-89.47
-93.88
-93.00
-86.04
-73.53
-57.22
-39.53
-22.75
-8.44
2.84
11.36
17.83
22.99
27.38
31.23
34.61
37.44
39.62
41.06
41.64
41.27
39.87
37.46
34.23
30.62
27.29
24.98
24.34
25.70
28.92
33.36
37.99
41.68
43.35
42.35
38.54
32.28
24.37
15.72
7.10
-1.12
-9.06
-17.22
-26.26
-36.54
-47.83
-59.12
-68.76
-74.91
-76.10
-71.75
-62.34
-49.21
-34.13
-18.77
-4.35
8.40
19.13
27.65
33.86
37.77
39.54
39.57
38.43
36.64
34.50
32.04
29.05
25.25
20.54
15.19
9.76
5.01
1.59
-0.27
-0.82
-0.86
-1.24
-2.73
-5.60
-9.59
-14.06
-18.31
-21.83
-24.56
-26.90
-29.49
-33.09
-38.24
-45.05
-53.00
-60.88
-66.97
-69.37
-66.65
-58.25
-44.86
-28.21
-10.56
5.93
19.83
30.63
38.58
44.38
48.70
51.98
54.34
55.75
56.14
55.61
54.36
52.65
50.61
48.28
45.52
42.29
38.62
34.77
31.13
28.08
25.79
24.16
22.80
21.11
18.55
14.77
9.76
3.85
-2.41
-8.45
-13.89
-18.67
-23.06
-27.52
-32.62
-38.79
-46.23
-54.70
-63.34
-70.74
-75.15
-74.96
-69.27
-58.28
-43.28
-26.30
-9.52
5.35
17.29
26.08
32.05
35.78
37.88
38.87
39.18
39.08
38.68
38.01
36.97
35.50
33.62
31.47
29.30
27.40
25.96
25.07
24.59
24.26
23.76
22.85
21.39
19.35
16.81
13.79
10.30
6.22
1.48
-3.86
-9.57
-15.25
-20.48
-24.97
-28.74
-32.07
-35.53
-39.73
-45.11
-51.70
-58.95
-65.73
-70.44
-71.41
-67.43
-58.20
-44.52
-28.16
-11.29
4.12
16.79
26.29
32.92
37.30
40.01
41.46
41.87
41.39
40.21
38.58
36.74
34.86
33.02
31.16
29.27
27.35
25.50
23.89
22.64
21.70
20.90
19.88
18.34
16.04
12.92
9.05
4.57
-0.42
-5.79
-11.43
-17.14
-22.66
-27.76
-32.35
-36.47
-40.38
-44.38
-48.85
-54.13
-60.43
-67.64
-75.14
-81.70
-85.61
-85.17
-79.23
-67.74
-51.82
-33.50
-15.08
1.51
15.12
25.48
32.94
38.14
41.72
44.21
45.99
47.36
48.50
49.50
50.24
50.37
49.53
47.46
44.25
40.43
36.85
34.31
33.24
33.47
34.28
34.67
33.80
31.29
27.35
22.58
17.70
13.26
9.46
6.10
2.75
-1.11
-5.82
-11.45
-17.73
-24.22
-30.44
-36.02
-40.86
-45.10
-49.17
-53.63
-59.12
-65.95
-73.89
-81.87
-88.12
-90.57
-87.52
-78.36
-63.75
-45.55
-26.13
-7.71
8.16
20.78
30.18
36.83
41.43
44.64
47.11
49.28
51.41
53.49
55.35
56.70
57.21
56.63
54.89
52.10
48.64
45.02
41.80
39.33
37.69
36.65
35.79
34.69
33.12
31.03
28.49
25.58
22.30
18.62
14.52
10.09
5.50
0.93
-3.58
-8.10
-12.76
-17.64
-22.67
-27.68
-32.45
-36.87
-40.93
-44.77
-48.65
-52.82
-57.62
-63.33
-70.03
-77.35
-84.30
-89.34
-90.75
-87.16
-78.10
-64.23
-47.18
-29.01
-11.74
3.22
15.14
23.98
30.09
34.08
36.59
38.21
39.39
40.40
41.28
41.96
42.25
41.95
40.95
39.22
36.91
34.36
32.01
30.29
29.36
29.09
28.99
28.44
27.01
24.52
21.22
17.55
13.92
10.48
7.15
3.66
-0.27
-4.76
-9.72
-14.86
-19.81
-24.25
-28.01
-31.23
-34.34
-37.99
-42.74
-48.87
-56.06
-63.34
-69.21
-71.96
-70.18
-63.20
-51.36
-35.92
-18.84
-2.20
12.34
23.81
32.06
37.48
40.79
42.66
43.65
44.04
43.99
43.55
42.66
41.27
39.36
36.99
34.34
31.72
29.47
27.84
26.91
26.54
26.38
25.96
24.88
22.91
20.01
16.37
12.28
7.99
3.69
-0.61
-4.97
-9.53
-14.38
-19.57
-25.01
-30.53
-35.86
-40.81
-45.36
-49.79
-54.63
-60.51
-67.77
-76.19
-84.75
-91.76
-95.28
-93.69
-86.27
-73.48
-56.84
-38.44
-20.34
-4.01
9.79
21.00
29.89
36.80
42.00
45.77
48.47
50.54
52.37
54.10
55.55
56.25
55.75
53.85
50.76
47.03
43.42
40.58
38.85
38.12
37.94
37.64
36.58
34.33
30.83
26.37
21.46
16.57
11.95
7.55
3.08
-1.83
-7.40
-13.55
-19.96
-26.12
-31.57
-36.07
-39.72
-42.94
-46.47
-51.08
-57.35
-65.38
-74.55
-83.45
-90.14
-92.60
-89.39
-80.08
-65.51
-47.47
-28.27
-10.07
5.60
18.07
27.45
34.36
39.65
44.03
47.99
51.68
55.02
57.73
59.53
60.20
59.62
57.80
54.92
51.37
47.62
44.23
41.66
40.07
39.32
38.89
38.06
36.21
33.01
28.60
23.51
18.39
13.75
9.73
6.08
2.32
-2.02
-7.11
-12.85
-18.88
-24.77
-30.18
-34.95
-39.15
-43.04
-47.07
-51.84
-57.91
-65.51
-74.24
-82.81
-89.31
-91.61
-88.17
-78.55
-63.68
-45.56
-26.58
-8.90
6.14
18.02
26.93
33.41
38.09
41.48
43.97
45.74
46.80
47.10
46.56
45.19
43.16
40.77
38.36
36.21
34.51
33.28
32.46
31.85
31.25
30.42
29.16
27.27
24.66
21.25
17.04
12.10
6.59
0.73
-5.24
-11.07
-16.56
-21.62
-26.24
-30.56
-34.89
-39.69
-45.46
-52.49
-60.58
-68.82
-75.59
-78.94
-77.19
-69.52
-56.37
-39.32
-20.68
-2.77
12.66
24.72
33.36
39.15
42.93
45.49
47.41
48.93
50.01
50.40
49.85
48.24
45.71
42.58
39.29
36.25
33.74
31.89
30.63
29.78
29.02
27.92
26.07
23.12
18.98
13.81
8.02
2.10
-3.54
-8.80
-13.85
-19.05
-24.81
-31.35
-38.57
-46.09
-53.40
-60.10
-66.15
-71.91
-78.10
-85.48
-94.44
-104.55
-114.41
-121.86
-124.57
-120.88
-110.43
-94.41
-75.21
-55.61
-37.88
-23.12
-11.09
-0.43
10.79
24.39
41.59
62.65
86.74
112.05
136.08
156.15
169.91
175.87
173.67
164.15
149.06
130.71
111.43
93.14
77.06
63.69
52.83
43.87
36.06
28.71
21.34
13.70
5.79
-2.21
-9.98
-17.14
-23.33
-28.34
-32.20
-35.15
-37.63
-40.09
-42.86
-46.06
-49.51
-52.87
-55.72
-57.84
-59.29
-60.51
-62.18
-65.03
-69.56
-75.79
-83.02
-89.88
-94.49
-95.00
-90.04
-79.29
-63.61
-44.80
-25.13
-6.64
9.28
22.10
31.94
39.29
44.72
48.77
51.96
54.76
57.51
60.26
62.73
64.42
64.83
63.76
61.39
58.32
55.23
52.61
50.63
49.11
47.79
46.41
44.91
43.26
41.47
39.42
36.90
33.69
29.68
25.01
19.95
14.91
10.23
6.09
2.45
-0.96
-4.53
-8.64
-13.48
-18.96
-24.69
-30.17
-34.93
-38.80
-41.98
-44.99
-48.54
-53.27
-59.48
-66.93
-74.79
-81.61
-85.68
-85.41
-79.85
-69.04
-54.11
-36.93
-19.61
-3.90
9.13
19.19
26.51
31.61
35.08
37.40
38.97
40.11
40.98
41.58
41.77
41.31
40.07
38.09
35.72
33.45
31.82
31.15
31.41
32.19
32.84
32.72
31.41
28.86
25.36
21.36
17.24
13.20
9.19
5.01
0.49
-4.48
-9.77
-15.14
-20.22
-24.71
-28.43
-31.50
-34.35
-37.70
-42.33
-48.74
-56.79
-65.49
-73.10
-77.58
-77.22
-71.22
-59.92
-44.76
-27.73
-10.85
4.28
16.76
26.35
33.29
38.14
41.51
43.97
45.91
47.45
48.56
49.03
48.68
47.46
45.48
42.93
40.09
37.24
34.65
32.55
31.07
30.24
29.86
29.54
28.81
27.27
24.65
21.03
16.72
12.22
7.94
4.10
0.65
-2.72
-6.38
-10.63
-15.55
-20.94
-26.46
-31.73
-36.46
-40.56
-44.14
-47.54
-51.25
-55.86
-61.84
-69.30
-77.65
-85.54
-91.05
-92.21
-87.66
-77.18
-61.89
-43.87
-25.53
-8.91
4.80
15.40
23.34
29.43
34.42
38.81
42.87
46.63
49.98
52.68
54.51
55.25
54.87
53.51
51.47
49.18
47.01
45.20
43.84
42.86
42.11
41.43
40.65
39.58
38.04
35.88
32.96
29.27
24.93
20.21
15.43
10.85
6.60
2.62
-1.27
-5.29
-9.58
-14.18
-19.03
-23.92
-28.66
-33.06
-37.04
-40.74
-44.48
-48.71
-53.96
-60.59
-68.58
-77.29
-85.49
-91.47
-93.51
-90.36
-81.67
-68.17
-51.45
-33.50
-16.25
-1.09
11.23
20.60
27.33
31.96
35.16
37.53
39.59
41.64
43.69
45.50
46.68
46.83
45.79
43.64
40.79
37.80
35.21
33.40
32.48
32.28
32.40
32.36
31.71
30.09
27.42
23.82
19.66
15.36
11.26
7.44
3.74
-0.19
-4.65
-9.79
-15.43
-21.17
-26.50
-31.03
-34.66
-37.68
-40.72
-44.50
-49.58
-56.06
-63.39
-70.33
-75.28
-76.63
-73.26
-64.93
-52.38
-37.12
-21.00
-5.78
7.30
17.67
25.32
30.71
34.43
37.06
39.02
40.52
41.54
41.96
41.58
40.33
38.31
35.83
33.31
31.19
29.75
29.08
29.04
29.27
29.34
28.80
27.36
24.92
21.61
17.65
13.31
8.85
4.39
-0.02
-4.43
-8.91
-13.55
-18.39
-23.41
-28.49
-33.47
-38.25
-42.84
-47.49
-52.58
-58.57
-65.68
-73.65
-81.54
-87.80
-90.63
-88.55
-80.93
-68.24
-52.01
-34.29
-17.09
-1.87
10.65
20.43
27.83
33.36
37.52
40.77
43.53
46.06
48.51
50.80
52.65
53.77
53.85
52.84
50.91
48.48
45.99
43.89
42.44
41.66
41.36
41.16
40.65
39.46
37.38
34.36
30.50
26.01
21.16
16.17
11.21
6.38
1.66
-3.03
-7.77
-12.65
-17.71
-22.89
-28.10
-33.17
-38.02
-42.65
-47.23
-52.08
-57.64
-64.30
-72.14
-80.62
-88.48
-93.95
-95.16
-90.87
-80.88
-66.23
-48.84
-30.85
-14.09
0.36
12.19
21.61
29.09
35.15
40.24
44.74
48.91
52.81
56.28
59.02
60.70
61.11
60.29
58.48
56.09
53.53
51.14
49.07
47.35
45.86
44.44
42.91
41.11
38.92
36.24
33.08
29.46
25.51
21.33
17.02
12.67
8.30
3.92
-0.50
-5.03
-9.69
-14.51
-19.45
-24.43
-29.35
-34.11
-38.63
-42.89
-46.98
-51.04
-55.36
-60.31
-66.25
-73.27
-80.86
-87.81
-92.29
-92.43
-86.92
-75.67
-59.87
-41.69
-23.57
-7.51
5.40
15.01
21.82
26.60
30.06
32.71
34.83
36.51
37.71
38.33
38.23
37.34
35.65
33.28
30.48
27.59
25.02
23.11
21.99
21.53
21.28
20.65
19.15
16.54
12.93
8.67
4.16
-0.40
-5.07
-10.07
-15.65
-21.87
-28.56
-35.35
-41.87
-47.84
-53.15
-58.03
-62.94
-68.56
-75.55
-84.11
-93.64
-102.51
-108.30
-108.35
-100.56
-84.14
-59.86
-29.87
2.76
34.79
63.33
86.40
103.18
114.16
120.90
125.48
129.64
134.08
138.19
140.45
139.12
133.07
122.19
107.38
90.10
71.98
54.44
38.63
25.34
14.95
7.37
1.98
-2.19
-6.16
-10.69
-16.01
-21.89
-27.73
-32.97
-37.22
-40.47
-43.04
-45.42
-48.01
-51.06
-54.51
-58.14
-61.71
-65.10
-68.42
-71.95
-76.11
-81.26
-87.54
-94.62
-101.56
-106.82
-108.58
-105.22
-95.89
-80.94
-61.86
-40.94
-20.61
-2.71
11.76
22.74
30.83
36.89
41.74
46.03
50.16
54.30
58.38
62.10
65.02
66.64
66.65
65.10
62.40
59.28
56.49
54.60
53.74
53.69
53.91
53.81
52.91
50.95
47.91
43.93
39.31
34.36
29.44
24.78
20.53
16.64
12.90
8.99
4.63
-0.37
-5.97
-11.88
-17.70
-23.06
-27.73
-31.79
-35.65
-39.93
-45.31
-52.30
-60.99
-70.75
-80.17
-87.30
-90.10
-87.12
-78.04
-63.86
-46.55
-28.43
-11.44
3.24
15.25
24.75
32.10
37.70
41.93
45.23
48.02
50.62
53.08
55.11
56.28
56.21
54.78
52.24
49.14
46.11
43.67
42.07
41.29
41.09
41.08
40.87
40.14
38.63
36.29
33.16
29.44
25.38
21.19
16.99
12.79
8.46
3.89
-1.03
-6.30
-11.82
-17.38
-22.74
-27.65
-31.93
-35.59
-38.88
-42.31
-46.55
-52.17
-59.41
-67.89
-76.52
-83.61
-87.31
-86.11
-79.38
-67.61
-52.27
-35.38
-18.93
-4.34
7.72
17.22
24.49
29.95
33.98
36.87
38.91
40.35
41.39
42.09
42.37
42.02
40.91
39.06
36.73
34.37
32.47
31.34
30.98
31.11
31.21
30.76
29.40
27.06
23.91
20.22
16.24
12.07
7.72
3.09
-1.81
-6.89
-11.98
-16.92
-21.59
-26.00
-30.29
-34.71
-39.64
-45.52
-52.65
-60.92
-69.59
-77.18
-81.85
-81.85
-76.19
-65.07
-49.85
-32.64
-15.61
-0.43
12.05
21.71
28.98
34.43
38.62
41.97
44.75
47.15
49.18
50.74
51.60
51.52
50.32
47.99
44.73
40.97
37.26
34.18
32.13
31.23
31.23
31.58
31.54
30.51
28.15
24.53
20.03
15.17
10.38
5.82
1.39
-3.17
-8.12
-13.54
-19.30
-25.10
-30.57
-35.48
-39.79
-43.69
-47.55
-51.87
-57.21
-63.93
-71.97
-80.60
-88.38
-93.38
-93.71
-88.20
-76.87
-60.97
-42.61
-24.09
-7.25
6.89
18.11
26.79
33.49
38.77
43.08
46.72
49.87
52.63
54.98
56.77
57.79
57.79
56.65
54.44
51.49
48.33
45.56
43.66
42.82
42.88
43.33
43.51
42.77
40.76
37.47
33.20
28.44
23.66
19.16
14.96
10.92
6.75
2.21
-2.86
-8.46
-14.40
-20.38
-26.03
-31.05
-35.31
-38.94
-42.29
-45.90
-50.37
-56.16
-63.40
-71.71
-80.06
-86.87
-90.33
-88.96
-82.02
-69.93
-54.09
-36.53
-19.34
-4.13
8.22
17.57
24.33
29.23
33.05
36.45
39.76
43.01
45.93
48.10
49.20
49.07
47.81
45.69
43.08
40.34
37.81
35.76
34.36
33.66
33.51
33.54
33.27
32.25
30.23
27.27
23.69
19.94
16.38
13.17
10.16
7.01
3.36
-1.01
-6.09
-11.58
-17.05
-22.08
-26.35
-29.87
-32.92
-36.00
-39.74
-44.70
-51.12
-58.80
-66.89
-74.01
-78.45
-78.58
-73.37
-62.85
-48.13
-31.12
-14.06
1.21
13.62
22.95
29.63
34.31
37.55
39.75
41.11
41.80
41.97
41.78
41.25
40.34
38.93
36.99
34.66
32.30
30.33
29.09
28.65
28.71
28.73
28.05
26.21
23.13
19.15
14.78
10.58
6.80
3.35
-0.14
-4.14
-8.88
-14.34
-20.17
-25.89
-31.05
-35.46
-39.23
-42.74
-46.60
-51.46
-57.75
-65.42
-73.72
-81.19
-85.95
-86.16
-80.69
-69.52
-53.88
-35.85
-17.74
-1.47
11.83
21.92
29.21
34.40
38.23
41.31
44.06
46.66
49.06
51.02
52.24
52.47
51.61
49.75
47.17
44.18
41.13
38.36
36.19
34.83
34.26
34.16
33.90
32.82
30.42
26.64
21.85
16.73
11.93
7.81
4.27
0.94
-2.72
-7.03
-12.07
-17.59
-23.17
-28.43
-33.13
-37.25
-41.02
-44.78
-48.95
-53.98
-60.15
-67.38
-75.11
-82.10
-86.68
-87.10
-82.15
-71.59
-56.43
-38.60
-20.45
-4.07
9.27
19.25
26.33
31.39
35.28
38.63
41.71
44.58
47.09
49.10
50.40
50.84
50.32
48.90
46.80
44.34
41.96
39.98
38.65
37.99
37.83
37.85
37.62
36.75
34.92
32.05
28.25
23.86
19.31
14.94
10.94
7.24
3.59
-0.35
-4.84
-9.97
-15.64
-21.53
-27.26
-32.46
-36.96
-40.80
-44.26
-47.81
-52.03
-57.45
-64.32
-72.31
-80.43
-87.01
-90.16
-88.24
-80.54
-67.55
-50.86
-32.72
-15.37
-0.45
11.27
19.79
25.69
29.74
32.65
35.00
37.13
39.15
41.00
42.46
43.22
43.01
41.75
39.60
36.93
34.24
31.99
30.47
29.67
29.36
29.08
28.37
26.87
24.47
21.34
17.81
14.27
10.88
7.55
3.96
-0.24
-5.20
-10.72
-16.34
-21.52
-25.86
-29.35
-32.31
-35.33
-39.10
-44.17
-50.70
-58.24
-65.66
-71.25
-73.18
-70.04
-61.43
-48.14
-31.93
-15.00
0.71
13.89
24.03
31.24
35.96
38.76
40.20
40.77
40.83
40.61
40.15
39.37
38.22
36.65
34.72
32.55
30.30
28.17
26.33
24.91
23.93
23.22
22.44
21.19
19.14
16.14
12.33
7.98
3.39
-1.23
-5.85
-10.60
-15.62
-20.99
-26.65
-32.39
-37.94
-43.10
-47.88
-52.48
-57.39
-63.18
-70.35
-78.98
-88.46
-97.40
-103.82
-105.67
-101.51
-91.11
-75.59
-57.16
-38.35
-21.20
-6.81
4.82
14.53
23.58
33.26
44.57
57.96
73.18
89.18
104.34
116.79
125.00
128.23
126.67
121.38
113.72
105.03
96.31
88.11
80.58
73.60
66.80
59.74
52.02
43.48
34.27
24.80
15.56
6.85
-1.31
-9.21
-17.24
-25.74
-34.76
-44.03
-53.03
-61.17
-67.97
-73.25
-77.23
-80.54
-84.02
-88.45
-94.22
-100.99
-107.60
-112.21
-112.81
-107.80
-96.60
-79.86
-59.37
-37.55
-16.79
1.18
15.54
26.36
34.30
40.25
45.04
49.29
53.31
57.13
60.58
63.31
64.96
65.22
63.97
61.33
57.68
53.53
49.42
45.78
42.84
40.58
38.85
37.31
35.62
33.43
30.55
26.99
22.92
18.65
14.52
10.78
7.45
4.34
1.07
-2.75
-7.35
-12.68
-18.37
-23.85
-28.55
-32.16
-34.79
-36.95
-39.40
-42.94
-48.10
-54.95
-62.97
-71.05
-77.58
-80.77
-79.11
-71.83
-59.28
-42.93
-24.93
-7.59
7.27
18.75
26.82
32.13
35.56
37.92
39.73
41.21
42.34
42.96
42.92
42.12
40.61
38.54
36.12
33.56
31.04
28.73
26.75
25.21
24.15
23.46
22.90
22.14
20.85
18.80
15.83
11.90
6.97
1.04
-5.82
-13.34
-21.07
-28.44
-34.91
-40.16
-44.16
-47.24
-49.97
-53.02
-56.96
-61.94
-67.45
-72.21
-74.43
-72.41
-65.18
-52.96
-37.19
-20.07
-3.82
9.99
20.67
28.38
33.69
37.27
39.61
41.04
41.76
41.87
41.41
40.32
38.48
35.80
32.30
28.15
23.73
19.48
15.89
13.23
11.54
10.53
9.68
8.39
6.13
2.74
-1.58
-6.25
-10.55
-13.77
-15.48
-15.52
-13.94
-10.91
-6.66
-1.49
4.12
9.45
13.57
15.53
14.51
10.03
2.06
-8.94
-22.00
-35.56
-47.69
-56.35
-59.92
-57.72
-50.21
-39.00
-26.26
-14.08
-3.90
3.72
9.02
12.71
15.59
18.32
21.16
24.11
26.86
29.06
30.43
30.89
30.56
29.70
28.57
27.37
26.21
25.24
24.65
24.63
25.27
26.37
27.49
28.06
27.58
25.88
23.09
19.69
16.19
12.97
10.11
7.37
4.35
0.65
-3.96
-9.40
-15.31
-21.14
-26.41
-30.88
-34.66
-38.22
-42.24
-47.40
-54.07
-62.08
-70.57
-78.00
-82.46
-82.20
-76.17
-64.49
-48.47
-30.27
-12.28
3.57
16.22
25.63
32.42
37.50
41.69
45.45
48.91
51.94
54.33
55.80
56.22
55.51
53.74
51.12
47.97
44.70
41.71
39.33
37.72
36.85
36.44
36.08
35.28
33.65
31.00
27.40
23.22
18.89
14.79
11.07
7.57
3.95
-0.21
-5.16
-10.91
-17.18
-23.49
-29.32
-34.31
-38.32
-41.53
-44.46
-47.77
-52.19
-58.15
-65.55
-73.58
-80.74
-85.17
-85.18
-79.75
-68.92
-53.84
-36.42
-18.83
-2.88
10.30
20.34
27.50
32.40
35.71
38.02
39.77
41.18
42.33
43.16
43.53
43.26
42.21
40.36
37.85
35.01
32.23
29.88
28.14
26.98
26.12
25.15
23.72
21.63
18.95
15.90
12.71
9.51
6.20
2.55
-1.60
-6.25
-11.15
-15.93
-20.26
-24.00
-27.35
-30.75
-34.79
-39.94
-46.44
-53.99
-61.72
-68.22
-71.86
-71.20
-65.50
-54.98
-40.85
-24.95
-9.19
4.90
16.45
25.25
31.53
35.73
38.30
39.66
40.15
40.03
39.53
38.73
37.66
36.28
34.56
32.58
30.52
28.61
27.08
26.04
25.41
25.01
24.53
23.61
22.02
19.66
16.61
13.07
9.29
5.39
1.39
-2.90
-7.65
-12.94
-18.68
-24.57
-30.22
-35.28
-39.67
-43.58
-47.49
-52.05
-57.86
-65.20
-73.70
-82.25
-89.06
-92.15
-89.94
-81.87
-68.59
-51.82
-33.78
-16.50
-1.39
11.00
20.70
28.19
34.09
38.99
43.38
47.57
51.63
55.30
58.12
59.59
59.38
57.51
54.37
50.60
46.93
43.93
41.93
40.88
40.43
40.00
38.93
36.74
33.30
28.83
23.86
18.93
14.40
10.21
5.98
1.19
-4.51
-11.07
-18.08
-24.96
-31.23
-36.72
-41.63
-46.48
-51.95
-58.66
-66.96
-76.66
-86.88
-96.07
-102.23
-103.53
-98.77
-87.89
-71.95
-52.82
-32.65
-13.34
3.80
18.10
29.48
38.22
44.84
49.92
53.98
57.38
60.30
62.66
64.26
64.87
64.29
62.52
59.75
56.38
52.94
49.92
47.62
46.01
44.83
43.59
41.85
39.30
35.87
31.70
27.10
22.35
17.67
13.11
8.55
3.71
-1.67
-7.67
-14.12
-20.58
-26.54
-31.65
-35.91
-39.76
-43.95
-49.20
-55.93
-63.87
-72.01
-78.77
-82.29
-81.03
-74.22
-62.15
-46.15
-28.21
-10.54
5.05
17.42
26.25
31.92
35.23
37.11
38.37
39.50
40.60
41.39
41.42
40.42
38.35
35.55
32.57
29.94
28.02
26.87
26.31
26.03
25.73
25.16
24.19
22.78
20.91
18.55
15.61
11.97
7.52
2.27
-3.57
-9.65
-15.49
-20.71
-25.12
-28.78
-32.00
-35.31
-39.29
-44.44
-50.89
-58.23
-65.30
-70.41
-71.70
-67.81
-58.44
-44.45
-27.74
-10.58
5.04
17.86
27.48
34.23
38.79
41.86
43.96
45.40
46.27
46.57
46.28
45.42
44.02
42.12
39.81
37.20
34.52
32.03
30.04
28.69
27.90
