1706091138.00
64.000000
-0.00
-0.00
-0.00
-0.00
-0.00
-0.00
-0.00
-0.00
-0.00
-0.00
0.00
0.01
0.01
-0.00
-0.03
-0.05
-0.05
0.00
0.13
0.36
0.66
1.01
1.37
1.72
2.06
2.40
2.79
3.24
3.80
4.42
5.06
5.66
6.20
6.68
7.15
7.68
8.31
9.14
10.09
11.04
11.88
12.56
13.14
13.76
14.65
15.96
17.91
20.32
22.90
25.38
27.58
29.57
31.68
34.32
37.81
42.54
48.15
54.10
59.83
64.97
69.58
74.14
79.34
85.71
93.76
103.00
112.62
121.73
129.77
136.75
143.30
150.75
157.77
166.64
177.95
191.79
206.97
220.57
228.25
225.36
208.53
176.87
132.76
80.05
23.07
-34.94
-92.44
-149.16
-205.23
-260.37
-313.74
-363.87
-409.82
-450.88
-486.46
-515.68
-537.14
-549.10
-549.80
-538.16
-513.95
-478.36
-433.50
-382.01
-326.52
-269.27
-211.99
-155.95
-102.16
-51.51
-4.96
36.61
72.55
102.58
126.84
145.84
160.29
170.90
178.29
182.85
184.89
184.62
182.32
178.34
173.08
166.96
160.32
153.42
146.39
139.30
132.20
125.14
118.17
111.36
104.79
98.52
92.56
86.95
81.68
76.78
72.24
68.08
64.30
60.90
57.91
55.31
53.09
51.27
49.80
48.66
47.80
47.10
46.47
45.74
44.72
43.25
41.16
38.32
34.67
30.19
24.93
19.02
12.67
6.10
-0.40
-6.57
-12.15
-16.94
-20.80
-23.64
-25.45
-26.28
-26.23
-25.44
-24.05
-22.22
-20.10
-17.79
-15.39
-12.95
-10.50
-8.09
-5.70
-3.32
-0.91
1.55
4.11
6.80
9.68
12.68
15.80
19.00
22.28
25.63
29.05
32.56
36.18
39.99
43.90
47.87
51.90
56.00
60.20
64.53
69.04
73.80
78.91
84.21
89.63
95.09
100.58
106.07
111.57
117.08
122.64
128.32
133.84
139.00
143.61
147.42
150.18
151.50
150.89
147.65
143.09
137.66
131.67
125.28
118.66
111.90
105.09
98.35
91.78
85.57
79.54
73.65
67.88
62.24
56.79
51.56
46.63
42.09
38.05
34.38
30.99
27.85
24.92
22.19
19.67
17.36
15.31
13.56
12.02
10.62
9.32
8.09
6.89
5.71
4.52
3.33
2.14
0.93
-0.30
-1.55
-2.77
-3.94
-5.04
-6.06
-6.98
-7.79
-8.48
-9.04
-9.47
-9.76
-9.94
-10.04
-10.10
-10.15
-10.18
-10.17
-10.05
-9.81
-9.45
-9.02
-8.63
-8.41
-8.45
-8.79
-9.37
-10.08
-10.85
-11.63
-12.54
-13.76
-15.54
-18.02
-21.20
-24.88
-28.73
-32.43
-35.85
-39.08
-42.46
-46.43
-51.28
-57.02
-63.31
-69.57
-75.32
-80.39
-85.14
-90.33
-96.84
-105.29
-115.72
-127.52
-139.77
-151.58
-162.60
-173.15
-184.10
-196.55
-211.48
-229.51
-250.80
-274.73
-299.78
-323.49
-342.87
-355.21
-359.03
-354.61
-343.88
-329.60
-314.23
-299.27
-285.12
-271.79
-259.60
-249.66
-243.60
-242.74
-247.03
-254.44
-260.93
-261.44
-251.38
-228.11
-192.01
-146.34
-96.16
-46.76
-2.17
35.51
65.97
89.92
108.29
121.77
130.90
136.30
138.91
139.93
140.54
141.55
143.19
145.11
146.70
147.32
146.64
144.68
141.70
138.07
134.00
129.53
124.47
118.49
111.30
102.74
92.85
82.01
70.78
59.89
49.96
41.34
33.86
26.94
19.70
11.41
1.72
-9.16
-20.58
-31.75
-42.06
-51.33
-59.84
-68.17
-77.13
-87.62
-100.46
-116.02
-133.82
-151.94
-167.07
-175.06
-172.20
-156.52
-128.76
-92.28
-52.02
-12.99
21.07
48.32
68.65
82.95
92.43
98.12
100.83
101.35
100.54
99.29
98.31
97.98
98.20
98.58
98.67
98.25
97.43
96.46
95.57
94.63
93.16
90.45
85.93
79.42
71.27
62.24
53.16
44.66
36.89
29.50
21.89
13.44
3.88
-6.61
-17.40
-27.78
-37.15
-45.37
-52.88
-60.62
-69.84
-81.68
-96.56
-113.64
-130.57
-143.70
-149.03
-143.45
-125.92
-97.98
-63.37
-26.89
7.11
35.70
57.76
73.58
84.12
90.37
93.05
92.75
90.15
86.18
82.03
78.80
77.15
77.03
77.70
78.11
77.35
75.01
71.33
66.97
62.63
58.57
54.47
49.55
42.89
33.87
22.50
9.47
-4.09
-16.99
-28.37
-38.02
-46.34
-54.18
-62.68
-72.92
-85.64
-100.79
-117.27
-132.61
-143.35
-145.89
-137.61
-117.91
-88.65
-53.65
-17.54
15.56
43.05
64.03
78.97
88.97
95.15
98.37
99.26
98.45
96.63
94.53
92.77
91.64
91.03
90.59
89.87
88.68
87.08
85.30
83.59
81.92
79.96
77.14
72.91
66.93
59.26
50.40
41.10
32.18
24.22
17.32
11.13
4.90
-2.18
-10.68
-20.62
-31.45
-42.21
-51.95
-60.15
-66.91
-72.99
-79.53
-87.75
-98.46
-111.73
-126.57
-140.86
-151.59
-155.62
-150.59
-135.87
-112.96
-85.11
-56.43
-30.48
-9.41
6.38
17.79
26.29
33.06
38.74
43.49
47.36
50.47
53.22
56.03
59.20
62.74
66.42
69.88
72.82
75.07
76.58
77.40
77.48
76.75
75.10
72.45
68.83
64.30
59.01
53.08
46.60
39.67
32.41
25.02
17.78
11.00
4.82
-0.83
-6.44
-12.65
-20.11
-29.14
-39.50
-50.48
-61.07
-70.37
-77.95
-84.05
-89.54
-95.79
-104.31
-116.17
-131.51
-148.90
-165.25
-176.30
-177.79
-166.85
-143.18
-109.33
-69.93
-30.34
4.94
33.23
53.90
67.72
76.15
80.59
82.10
81.46
79.40
76.79
74.53
73.41
73.86
75.78
78.63
81.64
84.14
85.75
86.47
86.53
86.12
85.23
83.55
80.58
75.82
69.10
60.65
51.17
41.64
33.00
25.88
20.34
15.82
11.33
5.83
-1.48
-10.76
-21.47
-32.64
-43.15
-52.20
-59.60
-65.90
-72.29
-80.29
-91.37
-106.24
-124.32
-143.26
-159.17
-167.45
-164.24
-147.85
-119.47
-82.95
-43.51
-6.19
25.41
49.64
66.42
76.53
81.05
80.94
77.25
71.08
63.71
56.43
50.36
46.16
44.00
43.57
44.15
44.93
45.22
44.69
43.40
41.65
39.67
37.28
33.94
28.81
21.23
11.09
-1.05
-14.05
-26.59
-37.60
-46.59
-53.71
-59.68
-65.45
-72.07
-80.46
-91.25
-104.39
-118.89
-132.52
-142.01
-143.88
-135.50
-116.15
-87.53
-53.29
-18.07
13.93
39.88
58.69
70.67
76.99
79.03
78.06
75.20
71.37
67.34
63.57
60.15
56.89
53.45
49.61
45.45
41.38
37.82
34.97
32.55
29.76
25.56
19.07
9.97
-1.38
-14.03
-26.83
-38.84
-49.72
-59.85
-70.30
-82.35
-96.88
-113.66
-130.91
-145.37
-153.07
-150.64
-136.48
-111.63
-79.49
-44.79
-12.15
15.20
35.90
50.20
59.16
63.96
65.54
64.69
62.26
59.34
57.07
56.17
56.72
58.08
59.20
59.17
57.63
54.94
51.82
48.88
46.21
43.14
38.55
31.39
21.25
8.59
-5.36
-19.06
-31.28
-41.50
-50.20
-58.64
-68.54
-81.50
-98.29
-118.17
-138.66
-155.73
-164.81
-162.22
-146.50
-118.99
-83.49
-45.02
-8.31
23.38
48.64
67.54
80.92
89.70
94.65
96.39
95.66
93.41
90.72
88.46
87.07
86.37
85.74
84.52
82.34
79.33
76.03
72.99
70.37
67.64
63.77
57.61
48.48
36.49
22.53
7.96
-5.95
-18.44
-29.49
-39.79
-50.47
-62.83
-77.90
-96.02
-116.42
-136.86
-153.83
-163.33
-162.02
-148.53
-124.03
-92.00
-57.03
-23.38
6.13
30.42
49.71
64.70
75.97
83.87
88.79
91.56
93.33
95.24
97.95
101.27
104.26
105.72
104.87
101.72
97.14
92.38
88.37
85.22
82.08
77.55
70.31
59.82
46.54
31.80
17.21
4.00
-7.43
-17.65
-27.92
-39.79
-54.43
-72.10
-91.68
-110.56
-125.05
-131.32
-126.58
-110.04
-83.35
-50.14
-14.88
18.31
46.63
68.84
84.98
95.72
101.88
104.24
103.51
100.52
96.23
91.56
87.21
83.44
80.06
76.64
72.75
68.14
62.84
57.01
50.73
43.84
35.98
26.70
15.82
3.52
-9.62
-22.77
-35.18
-46.53
-57.13
-68.03
-80.70
-96.35
-115.22
-135.78
-154.66
-167.28
-169.27
-157.99
-133.68
-99.51
-60.58
-22.24
11.45
38.54
58.94
73.58
83.48
89.19
90.85
88.68
83.34
76.12
68.64
62.42
58.24
55.99
54.80
53.47
50.98
46.79
40.95
33.80
25.73
16.93
7.39
-3.01
-14.41
-26.87
-40.45
-55.28
-71.49
-88.89
-106.52
-122.30
-133.17
-135.78
-127.56
-107.82
-78.19
-42.35
-4.94
29.74
58.75
80.87
96.22
105.64
110.11
110.40
107.19
101.29
93.78
85.95
79.00
73.72
70.17
67.63
64.90
60.68
54.09
44.92
33.66
21.21
8.54
-3.74
-15.41
-26.67
-37.96
-49.87
-62.98
-77.80
-94.42
-112.04
-128.73
-141.46
-146.81
-142.03
-126.11
-100.35
-68.02
-33.41
-0.51
27.96
50.86
68.27
80.81
89.18
93.91
95.50
94.65
92.30
89.48
86.98
85.12
83.68
82.13
79.93
76.80
72.81
68.15
62.92
56.83
49.29
39.59
27.31
12.65
-3.54
-19.96
-35.32
-48.85
-60.61
-71.54
-83.10
-96.81
-113.45
-132.48
-151.68
-167.42
-175.45
-172.16
-155.79
-127.22
-89.86
-48.65
-8.64
26.35
54.42
75.52
90.77
101.60
109.21
114.29
117.30
118.67
119.00
118.90
118.81
118.84
118.73
118.13
116.81
114.92
112.85
111.03
109.55
107.92
105.25
100.52
93.08
82.99
71.03
58.43
46.40
35.61
25.97
16.73
6.88
-4.28
-16.79
-29.96
-42.73
-54.10
-63.65
-71.71
-79.31
-87.97
-99.22
-114.13
-132.63
-153.08
-172.15
-185.35
-188.31
-178.16
-154.67
-120.46
-80.24
-39.30
-2.04
28.95
52.94
70.48
82.56
90.06
93.65
93.99
92.01
88.85
85.74
83.52
82.41
81.98
81.51
80.43
78.59
76.35
74.27
72.67
71.31
69.42
66.02
60.40
52.44
42.78
32.47
22.54
13.56
5.47
-2.38
-10.83
-20.43
-31.23
-42.65
-53.78
-63.76
-72.14
-79.13
-85.63
-93.10
-103.09
-116.75
-134.05
-153.29
-171.07
-183.01
-184.97
-174.60
-152.24
-121.01
-85.83
-51.95
-23.52
-2.81
9.85
15.48
15.72
12.18
6.19
-1.39
-9.99
-19.31
-29.23
-39.63
-50.38
-61.10
-71.15
-79.59
-85.36
-87.59
-85.94
-80.87
-73.64
-66.07
-59.99
-56.73
-56.67
-59.20
-63.03
-66.56
-68.58
-68.66
-67.33
-66.00
-66.40
-69.88
-76.63
-85.32
-93.17
-96.73
-92.87
-79.70
-57.18
-26.92
8.22
45.03
80.56
112.57
139.64
161.09
176.91
187.60
194.01
197.26
198.61
199.20
199.85
200.69
201.08
199.72
195.23
186.85
175.00
161.27
147.81
136.46
127.90
121.39
115.26
107.71
97.67
85.19
71.29
57.36
44.59
33.54
24.05
15.17
5.34
-7.35
-24.64
-47.22
-74.06
-102.00
-126.38
-142.33
-146.45
-138.00
-119.05
-93.56
-65.89
-39.50
-16.30
3.08
18.64
30.44
38.39
42.49
43.11
41.18
38.00
34.88
32.73
31.88
32.14
33.07
34.24
35.33
36.20
36.68
36.46
35.11
32.16
27.34
20.73
12.79
4.21
-4.30
-12.30
-19.83
-27.33
-35.42
-44.61
-54.98
-66.13
-77.44
-88.39
-98.87
-109.32
-120.54
-133.23
-147.45
-162.28
-175.68
-184.96
-187.39
-181.09
-165.64
-142.33
-113.83
-83.46
-54.33
-28.75
-8.00
7.65
18.58
25.53
29.40
31.19
31.90
32.56
34.09
37.20
42.26
49.12
57.19
65.57
73.32
79.77
84.66
88.03
90.04
90.64
89.57
86.50
81.34
74.48
66.71
58.89
51.59
44.81
37.99
30.42
21.60
11.58
0.91
-9.51
-18.94
-27.09
-34.34
-41.60
-50.16
-61.12
-74.92
-90.86
-106.89
-119.92
-126.54
-123.99
-111.10
-88.64
-59.13
-26.06
7.07
37.43
63.20
83.47
98.01
107.10
111.41
112.04
110.44
108.16
106.45
106.00
106.72
107.98
108.90
108.78
107.48
105.35
103.06
101.17
99.76
98.16
95.02
88.56
77.04
59.37
35.59
7.12
-23.51
-53.39
-80.18
-102.90
-122.18
-139.82
-157.77
-176.93
-196.39
-213.33
-223.78
-223.88
-211.14
-185.28
-148.33
-104.09
-57.17
-11.89
28.41
61.68
86.98
104.17
113.70
116.49
113.96
108.05
100.89
94.34
89.53
86.62
84.94
83.50
81.50
78.66
75.23
71.68
68.33
65.06
61.38
56.57
50.11
41.82
32.08
21.70
11.65
2.73
-4.80
-11.32
-17.90
-25.94
-36.76
-51.01
-68.28
-86.89
-104.12
-116.83
-122.18
-118.56
-105.98
-86.10
-61.74
-36.04
-11.66
9.68
27.21
40.83
50.68
56.93
59.77
59.60
57.18
53.50
49.63
46.30
43.71
41.59
39.49
37.13
34.73
32.89
32.31
33.37
35.74
38.41
39.98
39.08
34.95
27.61
17.82
6.82
-4.21
-14.48
-23.78
-32.53
-41.51
-51.64
-63.52
-77.12
-91.48
-104.70
-114.23
-117.59
-113.20
-100.94
-82.31
-59.95
-36.77
-15.10
3.74
19.43
32.21
42.30
49.69
54.24
55.94
55.25
53.09
50.64
48.90
48.36
48.79
49.47
49.58
48.56
46.42
43.60
40.74
38.17
35.81
33.12
29.43
24.25
17.50
9.59
1.20
-6.97
-14.44
-21.12
-27.26
-33.32
-39.88
-47.53
-56.67
-67.44
-79.49
-91.74
-102.41
-109.25
-110.13
-103.78
-90.26
-71.05
-48.66
-25.80
-4.70
13.26
27.60
38.32
45.73
50.12
51.84
51.39
49.41
46.62
43.59
40.65
37.85
35.08
32.25
29.39
26.68
24.31
22.28
20.27
17.72
13.95
8.49
1.31
-7.14
-16.08
-24.65
-32.29
-38.93
-45.08
-51.65
-59.68
-69.83
-82.07
-95.34
-107.59
-116.21
-118.76
-113.73
-101.08
-82.25
-59.72
-36.22
-14.01
5.43
21.42
33.78
42.53
47.83
50.04
49.77
47.89
45.33
42.84
40.81
39.26
37.97
36.66
35.16
33.35
31.17
28.46
24.94
20.35
14.52
7.52
-0.27
-8.34
-16.09
-23.12
-29.33
-35.08
-41.06
-48.17
-57.14
-68.06
-80.08
-91.29
-99.13
-101.07
-95.54
-82.42
-63.16
-40.21
-16.28
6.38
26.39
43.11
56.39
66.17
72.43
75.24
75.01
72.53
68.93
65.31
62.41
60.42
59.00
57.53
55.48
52.65
49.21
45.56
42.04
38.67
35.12
30.72
24.80
16.96
7.27
-3.73
-15.14
-26.09
-36.03
-44.91
-53.22
-61.86
-71.85
-83.95
-98.30
-114.08
-129.40
-141.57
-147.74
-145.71
-134.67
-115.57
-90.80
-63.48
-36.51
-11.99
9.02
26.30
39.99
50.29
57.39
61.59
63.55
64.23
64.77
66.17
68.99
73.31
78.71
84.54
90.16
95.00
98.62
100.61
100.53
98.05
93.02
85.63
76.46
66.40
56.37
47.02
38.53
30.66
22.89
14.81
6.26
-2.49
-11.04
-18.98
-26.12
-32.53
-38.52
-44.62
-51.50
-59.95
-70.55
-83.28
-97.07
-109.71
-118.26
-119.90
-112.91
-97.37
-75.17
-49.35
-23.16
0.97
21.71
38.78
52.43
62.98
70.59
75.33
77.40
77.33
75.96
74.16
72.60
71.57
70.98
70.56
70.11
69.58
69.07
68.65
68.19
67.32
65.43
62.00
56.81
50.08
42.43
34.65
27.33
20.66
14.33
7.76
0.41
-7.88
-16.80
-25.72
-33.94
-41.09
-47.26
-53.03
-59.34
-67.15
-77.06
-88.91
-101.51
-112.74
-119.93
-120.66
-113.47
-98.42
-77.08
-52.08
-26.26
-2.05
18.94
35.92
48.62
57.09
61.53
62.43
60.59
57.15
53.35
50.21
48.16
47.03
46.22
45.08
43.28
40.85
38.18
35.65
33.43
31.34
28.84
25.35
20.42
13.96
6.26
-2.06
-10.34
-17.98
-24.72
-30.64
-36.24
-42.25
-49.51
-58.64
-69.68
-81.79
-93.23
-101.58
-104.44
-100.15
-88.39
-70.34
-48.34
-25.13
-3.16
15.90
31.24
42.71
50.50
54.95
56.40
55.31
52.34
48.32
44.13
40.49
37.74
35.83
34.39
33.03
31.50
29.79
28.03
26.24
24.21
21.41
17.22
11.21
3.41
-5.60
-14.90
-23.57
-31.03
-37.35
-43.20
-49.63
-57.72
-68.06
-80.51
-93.92
-106.21
-114.80
-117.19
-111.82
-98.59
-78.95
-55.44
-30.92
-7.73
12.70
29.75
43.30
53.36
59.98
63.41
64.27
63.55
62.32
61.39
60.99
60.88
60.49
59.38
57.35
54.61
51.55
48.61
46.01
43.61
41.00
37.57
32.76
26.41
18.83
10.84
3.51
-2.22
-6.09
-8.61
-11.12
-15.23
-22.28
-32.76
-45.99
-60.15
-72.60
-80.52
-81.66
-74.96
-61.02
-41.99
-20.98
-1.28
14.54
25.23
30.91
32.55
31.31
27.89
22.37
14.51
4.24
-8.04
-21.41
-34.90
-47.94
-60.55
-73.20
-86.13
-98.86
-109.97
-117.58
-120.16
-117.36
-110.37
-101.63
-93.99
-89.70
-89.41
-91.95
-94.46
-93.23
-84.46
-64.93
-32.48
13.50
71.26
136.18
200.70
255.49
291.81
304.18
292.24
260.68
217.34
170.47
126.54
89.53
61.43
43.02
34.11
33.18
37.04
41.23
41.43
35.12
22.44
6.04
-10.33
-23.46
-31.78
-35.45
-35.81
-34.51
-32.83
-31.45
-30.39
-29.25
-27.60
-25.11
-21.80
-17.97
-14.00
-10.23
-6.83
-3.88
-1.55
-0.19
-0.18
-1.75
-4.81
-8.82
-12.91
-16.34
-18.78
-20.48
-22.24
-24.93
-29.06
-34.55
-40.79
-46.98
-52.55
-57.39
-61.88
-66.78
-72.98
-81.25
-91.99
-104.90
-118.74
-131.28
-139.68
-141.24
-134.36
-119.08
-97.16
-71.44
-44.96
-20.13
1.67
19.92
34.64
45.94
53.90
58.64
60.52
60.24
58.85
57.38
56.69
57.14
58.61
60.61
62.53
63.88
64.43
64.19
63.31
61.86
59.81
56.93
52.99
47.78
41.26
33.58
25.07
16.15
7.24
-1.31
-9.37
-16.96
-24.27
-31.62
-39.41
-48.08
-58.03
-69.39
-81.83
-94.24
-104.72
-110.89
-110.51
-102.33
-86.55
-64.96
-40.30
-15.55
6.99
26.03
41.20
52.68
60.79
65.83
68.14
68.31
67.19
65.75
64.77
64.59
65.08
65.78
66.24
66.23
65.81
65.19
64.48
63.57
62.04
59.48
55.61
50.50
44.57
38.38
32.41
26.83
21.50
16.02
9.97
3.06
-4.67
-12.92
-21.22
-29.10
-36.33
-42.94
-49.33
-56.12
-64.09
-73.90
-85.86
-99.55
-113.60
-125.72
-133.08
-133.16
-124.56
-107.57
-84.16
-57.33
-30.25
-5.40
15.86
33.16
46.70
56.78
63.68
67.66
69.15
68.91
67.90
67.02
66.83
67.42
68.46
69.47
70.06
70.15
69.88
69.52
69.17
68.77
67.96
66.29
63.34
58.90
53.08
46.29
39.19
32.41
26.39
21.12
16.22
11.06
5.06
-2.00
-9.89
-18.11
-26.09
-33.47
-40.28
-46.80
-53.46
-60.74
-69.08
-78.83
-90.16
-102.66
-115.16
-125.65
-131.63
-130.84
-122.09
-105.78
-83.83
-59.07
-34.33
-11.71
7.73
23.83
36.84
47.04
54.63
59.72
62.56
63.71
63.93
64.06
64.73
66.18
68.23
70.46
72.36
73.63
74.20
74.22
73.84
73.12
71.93
70.08
67.38
63.83
59.57
54.87
50.08
45.43
41.07
37.10
33.42
29.87
26.18
22.02
17.14
11.50
5.33
-0.96
-6.91
-12.24
-16.94
-21.26
-25.55
-30.15
-35.28
-41.03
-47.39
-54.11
-60.53
-65.39
-67.04
-63.91
-55.20
-41.39
-24.18
-5.98
10.98
25.29
36.65
45.42
52.17
57.14
60.26
61.31
60.33
57.66
53.95
49.88
45.94
42.41
39.45
37.16
35.64
34.97
35.11
35.86
36.83
37.52
37.50
36.58
34.93
33.02
31.53
30.90
31.17
31.80
31.89
30.51
27.12
21.75
14.98
7.58
0.15
-7.05
-14.09
-21.15
-28.27
-35.24
-41.69
-47.26
-51.82
-55.62
-59.26
-63.53
-69.23
-76.91
-86.54
-97.32
-107.61
-115.21
-117.94
-114.33
-104.15
-88.58
-69.75
-50.11
-31.68
-15.70
-2.61
7.66
15.36
20.73
23.93
25.23
25.05
23.94
22.57
21.51
21.17
21.69
22.98
24.67
26.33
27.50
27.97
27.75
27.06
26.19
25.28
24.22
22.61
19.95
15.90
10.53
4.39
-1.72
-7.01
-11.10
-14.14
-16.72
-19.73
-23.93
-29.84
-37.61
-46.90
-56.83
-66.05
-72.91
-76.05
-75.02
-70.83
-65.91
-63.35
-65.77
-74.07
-87.00
-101.46
-113.57
-120.04
-119.12
-110.91
-96.95
-79.40
-60.37
-41.52
-24.01
-8.60
4.15
13.85
20.40
24.12
25.74
26.29
26.85
28.16
30.46
33.39
36.33
38.64
40.03
40.68
41.02
41.51
42.31
43.15
43.40
42.40
39.71
35.35
29.77
23.74
17.99
12.96
8.59
4.39
-0.34
-6.17
-13.24
-21.16
-29.26
-36.79
-43.38
-49.18
-54.83
-61.30
-69.60
-80.33
-93.46
-108.04
-122.19
-133.40
-139.14
-137.64
-128.48
-112.90
-93.27
-72.40
-52.66
-35.28
-20.54
-8.03
2.62
11.23
16.96
18.44
14.22
3.38
-13.94
-36.30
-61.04
-84.95
-105.13
-119.80
-128.62
-132.55
-133.27
-132.44
-131.18
-129.64
-126.78
-120.35
-107.31
-84.70
-50.97
-7.07
43.19
93.96
139.05
173.72
195.94
206.68
209.21
208.11
208.19
213.56
226.65
247.33
272.55
296.83
313.81
318.31
308.05
284.22
250.69
212.45
174.10
139.25
110.60
90.37
80.32
81.05
91.09
106.43
121.15
129.16
126.29
111.63
87.65
58.91
30.12
4.67
-16.10
-32.42
-45.24
-55.39
-63.18
-68.63
-71.84
-73.29
-73.76
-74.08
-74.74
-75.77
-76.85
-77.65
-78.17
-78.94
-80.80
-84.57
-90.59
-98.50
-107.29
-115.73
-122.84
-128.23
-132.38
-136.42
-141.67
-149.11
-158.80
-169.57
-179.16
-184.81
-184.00
-175.36
-159.03
-136.63
-110.69
-83.84
-58.24
-35.23
-15.38
1.24
14.67
24.98
32.26
36.75
38.89
39.38
38.92
38.10
37.25
36.47
35.84
35.44
35.33
35.48
35.57
34.96
32.88
28.72
22.28
13.97
4.55
-5.10
-14.31
-22.93
-31.34
-40.37
-51.01
-63.98
-79.20
-95.49
-110.52
-121.29
-124.98
-119.86
-105.88
-84.70
-59.19
-32.49
-7.26
14.84
33.13
47.64
58.69
66.56
71.40
73.37
72.81
70.34
66.93
63.61
61.25
60.27
60.53
61.43
62.25
62.38
61.40
59.17
55.57
50.38
43.26
33.93
22.45
9.42
-4.04
-16.72
-27.76
-37.14
-45.80
-55.39
-67.53
-83.05
-101.40
-120.46
-136.99
-147.46
-149.04
-140.49
-122.41
-97.11
-67.85
-37.93
-9.94
14.68
35.59
53.11
67.79
80.04
89.99
97.62
103.02
106.54
108.84
110.74
112.93
115.73
119.03
122.33
125.01
126.59
126.87
125.95
124.10
121.58
118.45
114.56
109.70
103.73
96.77
89.16
81.40
73.87
66.74
59.89
53.01
45.69
37.60
28.56
18.57
7.78
-3.57
-15.14
-26.59
-37.63
-48.19
-58.45
-68.94
-80.42
-93.68
-109.27
-126.98
-145.56
-162.64
-175.10
-179.87
-174.81
-159.52
-135.43
-105.48
-73.16
-41.55
-12.78
12.20
33.23
50.52
64.27
74.63
81.80
86.20
88.49
89.42
89.68
89.64
89.36
88.67
87.34
85.30
82.65
79.65
76.51
73.37
70.11
66.42
61.90
56.13
48.83
40.01
29.97
19.27
8.55
-1.71
-11.34
-20.50
-29.67
-39.46
-50.45
-63.04
-77.41
-93.25
-109.74
-125.37
-138.10
-145.77
-146.66
-140.00
-126.31
-107.21
-85.01
-62.02
-40.07
-20.39
-3.79
8.95
16.72
18.27
12.67
0.03
-18.05
-38.58
-57.96
-73.11
-82.47
-86.37
-86.60
-85.46
-84.52
-83.83
-81.73
-75.31
-61.40
-37.58
-3.00
41.20
91.99
144.95
195.07
237.67
269.41
289.06
297.96
299.76
299.56
302.17
310.28
323.09
336.23
343.19
337.75
316.45
280.17
234.15
186.45
145.47
117.38
104.35
104.15
111.06
117.99
118.62
109.30
89.63
61.99
30.18
-2.00
-31.69
-57.11
-77.24
-91.44
-99.42
-101.59
-99.25
-94.45
-89.47
-86.06
-84.73
-84.79
-84.77
-83.24
-79.53
-74.08
-68.18
-63.38
-60.80
-60.65
-62.18
-64.08
-65.06
-64.41
-62.31
-59.65
-57.74
-57.62
-59.70
-63.63
-68.52
-73.32
-77.33
-80.36
-82.82
-85.53
-89.45
-95.33
-103.44
-113.30
-123.61
-132.37
-137.32
-136.46
-128.77
-114.45
-94.99
-72.61
-49.65
-27.94
-8.50
8.36
22.78
34.90
44.69
52.05
56.95
59.63
60.66
60.81
60.74
60.82
61.08
61.31
61.29
60.92
60.30
59.61
58.93
58.20
57.12
55.34
52.57
48.71
43.90
38.45
32.76
27.18
21.96
17.13
12.58
8.04
3.18
-2.26
-8.44
-15.20
-22.27
-29.24
-35.75
-41.62
-46.97
-52.21
-57.87
-64.54
-72.60
-82.10
-92.46
-102.41
-110.11
-113.53
-111.05
-102.05
-87.19
-68.27
-47.63
-27.45
-9.23
6.32
19.07
29.15
36.64
41.63
44.30
45.03
44.45
43.30
42.20
41.52
41.26
41.20
40.98
40.29
38.99
37.16
34.99
32.67
30.23
27.54
24.25
20.07
14.84
8.71
2.09
-4.48
-10.54
-15.87
-20.56
-24.95
-29.54
-34.80
-41.13
-48.74
-57.56
-67.01
-76.00
-82.91
-85.99
-83.86
-76.02
-63.07
-46.61
-28.72
-11.34
4.16
17.09
27.36
35.14
40.67
44.16
45.85
46.03
45.14
43.74
42.37
41.50
41.33
41.69
42.12
42.01
40.87
38.59
35.44
31.95
28.63
25.63
22.72
19.37
15.05
9.45
2.67
-4.87
-12.59
-19.96
-26.72
-32.87
-38.68
-44.59
-51.14
-58.82
-68.00
-78.56
-89.70
-99.87
-106.94
-108.84
-104.24
-93.09
-76.71
-57.31
-37.29
-18.55
-2.10
11.72
23.00
31.79
38.20
42.31
44.41
45.02
44.75
44.11
43.41
42.69
41.95
41.19
40.48
39.95
39.66
39.50
39.23
38.47
36.84
34.07
30.14
25.24
19.76
14.14
8.61
3.20
-2.30
-8.16
-14.51
-21.19
-27.84
-34.04
-39.58
-44.68
-49.91
-56.10
-64.02
-73.99
-85.62
-97.60
-107.93
-114.24
-114.57
-107.96
-94.83
-76.92
-56.72
-36.76
-18.87
-3.95
8.04
17.58
25.17
31.17
35.61
38.50
39.99
40.45
40.42
40.44
40.81
41.52
42.32
42.92
43.22
43.38
43.76
44.62
45.93
47.14
47.48
46.29
43.34
39.11
34.43
30.05
26.07
21.81
16.05
7.66
-3.77
-17.67
-32.73
-47.48
-60.90
-72.67
-82.96
-92.20
-100.77
-108.99
-117.26
-126.03
-135.54
-145.42
-154.32
-160.10
-160.39
-153.61
-139.60
-119.85
-97.02
-74.03
-53.23
-35.88
-22.16
-11.54
-3.23
3.42
8.79
13.14
16.68
19.73
22.73
26.12
30.22
35.02
40.22
45.29
49.69
53.13
55.60
57.26
58.28
58.61
57.90
55.60
51.27
44.75
36.38
26.88
17.16
8.01
-0.13
-7.22
-13.60
-19.83
-26.59
-34.52
-44.17
-55.72
-68.71
-81.87
-93.04
-99.66
-99.46
-91.27
-75.38
-53.54
-28.39
-2.80
20.81
40.73
56.08
66.66
72.80
75.16
74.62
72.16
68.71
65.06
61.84
59.45
58.04
57.54
57.66
57.96
58.06
57.54
56.13
53.49
49.35
43.48
35.97
27.15
17.66
8.21
-0.82
-9.47
-18.28
-28.10
-39.72
-53.42
-68.69
-83.99
-96.99
-105.11
-106.18
-99.17
-84.53
-64.13
-40.67
-16.88
5.09
24.06
39.65
51.86
60.73
66.20
68.22
67.01
63.26
58.13
52.96
48.90
46.53
45.69
45.67
45.50
44.34
41.73
37.65
32.38
26.29
19.69
12.75
5.51
-2.17
-10.57
-20.09
-31.19
-44.13
-58.57
-73.31
-86.20
-94.58
-96.01
-89.06
-73.98
-52.69
-28.23
-3.91
17.69
35.18
48.42
57.93
64.37
68.10
69.16
67.61
63.90
59.00
54.26
50.93
49.64
50.21
51.66
52.69
52.21
49.58
44.80
38.24
30.43
21.81
12.65
3.01
-7.20
-18.17
-30.18
-43.49
-58.23
-74.01
-89.64
-103.04
-111.59
-112.82
-105.25
-89.09
-66.22
-39.75
-12.97
11.48
32.18
48.84
61.86
71.79
78.97
83.55
85.58
85.28
83.10
79.71
75.79
71.93
68.48
65.56
63.12
61.00
58.94
56.58
53.44
49.07
43.13
35.55
26.56
16.71
6.57
-3.48
-13.49
-24.01
-35.85
-49.69
-65.48
-82.07
-97.14
-107.69
-110.88
-104.96
-89.97
-67.70
-41.18
-13.66
12.20
34.85
53.80
69.17
81.26
90.25
96.27
99.60
100.77
100.59
99.97
99.57
99.67
100.17
100.69
100.86
100.45
99.47
98.04
96.27
94.16
91.51
87.95
83.07
76.64
68.76
59.92
50.89
42.43
34.96
28.36
22.01
15.10
6.99
-2.49
-12.98
-23.76
-34.04
-43.35
-51.63
-59.35
-67.37
-76.71
-88.23
-102.16
-117.75
-133.06
-145.26
-151.23
-148.61
-136.55
-116.11
-89.95
-61.41
-33.60
-8.61
12.68
30.37
45.00
57.08
66.88
74.47
79.91
83.36
85.21
86.01
86.34
86.59
86.91
87.22
87.32
87.05
86.37
85.43
84.39
83.32
82.06
80.22
77.30
72.92
67.04
59.98
52.40
44.99
38.23
32.19
26.57
20.80
14.42
7.16
-0.90
-9.47
-18.14
-26.60
-34.65
-42.25
-49.47
-56.56
-63.89
-72.01
-81.34
-91.90
-102.94
-112.84
-119.35
-120.23
-114.12
-100.99
-82.30
-60.37
-37.75
-16.43
2.43
18.41
31.52
41.82
49.35
54.18
56.63
57.30
57.03
56.69
56.86
57.73
59.10
60.52
61.61
62.19
62.32
62.17
61.91
61.48
60.65
59.01
56.24
52.19
47.00
41.02
34.73
28.64
23.04
17.99
13.23
8.32
2.86
-3.40
-10.38
-17.75
-25.05
-31.88
-38.08
-43.73
-49.09
-54.55
-60.45
-67.12
-74.68
-82.96
-91.27
-98.33
-102.49
-102.15
-96.26
-84.80
-68.82
-50.30
-31.40
-14.07
0.52
11.96
20.45
26.50
30.62
33.20
34.55
35.00
34.97
34.96
35.42
36.52
38.15
39.93
41.39
42.22
42.37
41.97
41.28
40.40
39.29
37.71
35.44
32.40
28.74
24.77
20.84
17.20
13.90
10.81
7.70
4.37
0.66
-3.54
-8.23
-13.34
-18.59
-23.62
-28.05
-31.66
-34.54
-37.11
-40.09
-44.20
-49.93
-57.22
-65.30
-72.75
-77.73
-78.48
-73.91
-64.02
-49.98
-33.82
-17.72
-3.47
7.94
16.34
21.97
25.29
26.71
26.72
25.86
24.82
24.18
24.33
25.26
26.64
28.07
29.22
30.07
30.76
31.48
32.27
33.00
33.38
33.12
32.00
29.98
27.19
23.84
20.15
16.25
12.12
7.71
2.91
-2.27
-7.75
-13.24
-18.51
-23.31
-27.56
-31.37
-34.98
-38.73
-42.98
-48.03
-53.97
-60.62
-67.32
-73.02
-76.42
-76.38
-72.30
-64.41
-53.73
-41.75
-29.95
-19.41
-10.68
-3.81
1.34
4.88
6.87
7.36
6.60
5.10
3.46
2.32
2.01
2.54
3.58
4.71
5.56
5.98
6.07
6.00
5.86
5.56
4.81
3.29
0.84
-2.48
-6.36
-10.41
-14.26
-17.71
-20.78
-23.61
-26.49
-29.73
-33.71
-38.74
-44.81
-51.49
-57.76
-62.32
-63.85
-61.59
-55.63
-46.86
-36.66
-26.43
-17.16
-9.32
-2.95
2.04
5.73
8.11
9.16
9.03
8.01
6.54
5.06
3.89
3.19
2.95
3.06
3.39
3.77
4.03
4.02
3.56
2.46
0.61
-1.97
-5.03
-8.20
-11.10
-13.53
-15.53
-17.49
-19.92
-23.30
-27.82
-33.30
-39.06
-44.05
-47.16
-47.40
-44.27
-37.88
-28.97
-18.77
-8.65
0.18
6.88
11.16
13.13
13.23
11.99
9.97
7.58
5.19
3.04
1.35
0.26
-0.14
0.12
0.91
1.97
2.95
3.56
3.51
2.69
1.10
-1.16
-3.94
-7.06
-10.42
-13.94
-17.58
-21.49
-25.91
-31.05
-36.94
-43.15
-48.76
-52.54
-53.35
-50.56
-44.36
-35.67
-25.88
-16.26
-7.70
-0.62
4.94
9.05
11.82
13.31
13.66
13.18
12.29
11.39
10.75
10.39
10.11
9.72
9.05
8.14
7.13
6.20
5.43
4.68
3.67
2.05
-0.39
-3.71
-7.64
-11.82
-15.83
-19.41
-22.55
-25.49
-28.67
-32.56
-37.47
-43.25
-49.26
-54.32
-57.03
-56.23
-51.47
-43.16
-32.47
-20.97
-10.08
-0.74
6.71
12.35
16.48
19.37
21.22
22.15
22.34
22.05
21.58
21.23
21.12
21.25
21.47
21.61
21.53
21.21
20.72
20.14
19.47
18.66
17.60
16.17
14.34
12.10
9.51
6.59
3.33
-0.28
-4.21
-8.45
-12.93
-17.55
-22.23
-26.87
-31.44
-36.06
-41.00
-46.64
-53.34
-61.02
-69.06
-76.19
-80.80
-81.41
-77.29
-68.63
-56.53
-42.65
-28.67
-15.88
-5.07
3.54
10.01
14.59
17.64
19.54
20.73
21.57
22.36
23.28
24.34
25.50
26.70
27.96
29.28
30.69
32.07
33.16
33.57
33.01
31.39
28.94
26.17
23.62
21.63
20.18
18.85
17.03
14.21
10.18
5.16
-0.32
-5.59
-10.18
-13.99
-17.33
-20.75
-24.86
-30.02
-36.28
-43.45
-51.09
-58.60
-65.25
-70.14
-72.36
-71.21
-66.41
-58.16
-46.99
-33.24
-16.81
2.91
26.41
53.30
81.65
108.07
128.58
139.91
140.63
131.47
114.94
94.13
71.94
50.43
31.02
14.68
2.01
-6.86
-12.69
-17.03
-21.88
-28.83
-38.44
-49.84
-61.07
-69.90
-74.62
-74.69
-70.87
-64.95
-59.16
-55.54
-55.34
-58.83
-65.39
-73.87
-83.12
-92.31
-101.03
-109.03
-115.88
-120.78
-122.65
-120.53
-114.00
-103.67
-91.16
-78.75
-68.67
-62.44
-60.47
-62.20
-66.41
-71.73
-77.08
-81.66
-84.97
-86.71
-86.63
-84.53
-80.32
-74.07
-66.26
-58.19
-51.94
-49.94
-53.81
-63.20
-75.43
-86.23
-91.35
-88.14
-76.43
-57.94
-35.00
-9.32
18.46
48.32
79.89
111.99
142.73
170.23
193.24
211.09
223.33
229.12
227.17
216.52
197.60
172.96
147.08
125.07
110.75
105.14
106.21
110.01
112.39
110.61
103.77
92.45
77.90
61.20
43.13
24.39
5.91
-11.09
-25.33
-35.85
-42.25
-44.85
-44.61
-42.84
-40.68
-38.84
-37.42
-36.06
-34.28
-31.85
-28.94
-25.99
-23.46
-21.56
-20.19
-19.19
-18.58
-18.76
-20.33
-23.75
-28.94
-35.00
-40.29
-42.92
-41.26
-34.54
-23.07
-8.21
8.10
23.89
37.70
48.80
57.12
63.07
67.09
69.46
70.27
69.46
67.08
63.48
59.25
55.14
51.70
49.07
46.96
44.71
41.69
37.52
32.25
26.24
19.91
13.51
6.98
0.05
-7.62
-16.32
-26.19
-37.34
-49.79
-63.26
-77.02
-89.66
-99.28
-103.94
-102.27
-94.01
-80.10
-62.44
-43.23
-24.34
-7.01
8.29
21.49
32.68
41.87
48.98
54.03
57.30
59.41
61.13
63.15
65.81
69.02
72.41
75.56
78.10
79.76
80.28
79.37
76.82
72.56
66.90
60.39
53.66
47.11
40.73
34.11
26.68
18.11
8.70
-0.49
-7.74
-11.17
-9.21
-1.25
12.19
29.54
48.66
67.40
84.14
98.12
109.36
118.44
126.12
133.03
139.41
145.13
149.79
152.98
154.59
154.81
154.18
153.21
152.12
150.64
148.23
144.35
138.83
131.99
124.45
116.79
109.23
101.53
93.20
83.69
72.68
60.06
45.95
30.72
15.13
0.41
-11.81
-19.92
-22.89
-20.81
-15.03
-7.82
-1.56
1.99
2.28
-0.16
-4.08
-8.36
-12.46
-16.67
-21.86
-29.04
-38.91
-51.50
-66.17
-81.75
-96.86
-110.31
-121.36
-129.92
-136.41
-141.56
-146.11
-150.40
-154.31
-157.31
-158.77
-158.29
-155.97
-152.48
-148.88
-146.19
-144.99
-145.00
-144.97
-142.90
-136.63
-124.55
-106.11
-82.15
-54.62
-26.05
1.12
25.07
44.85
60.26
71.61
79.45
84.40
87.04
87.95
87.72
86.89
85.83
84.62
83.03
80.59
76.86
71.65
65.17
57.97
50.73
43.98
37.90
32.18
26.16
19.06
10.24
-0.46
-12.47
-24.48
-34.58
-40.75
-41.47
-36.20
-25.59
-11.28
4.67
20.33
34.39
46.30
55.99
63.58
69.11
72.51
73.66
72.55
69.52
65.13
60.11
55.07
50.33
45.86
41.41
36.67
31.53
26.16
20.87
15.99
11.64
7.64
3.59
-1.04
-6.79
-14.08
-23.09
-33.64
-44.91
-55.47
-63.38
-66.73
-64.28
-55.94
-42.92
-27.38
-11.75
2.05
12.96
20.87
26.25
29.65
31.41
31.68
30.56
28.25
25.29
22.29
19.86
18.28
17.51
17.15
16.66
15.54
13.54
10.70
7.30
3.70
0.22
-3.10
-6.46
-10.27
-15.08
-21.39
-29.57
-39.74
-51.44
-63.53
-74.06
-80.61
-80.97
-73.92
-59.82
-40.65
-19.43
0.64
17.13
28.78
35.51
38.04
37.37
34.45
30.04
24.78
19.20
13.80
8.99
4.98
1.85
-0.61
-2.70
-4.75
-6.93
-9.27
-11.68
-13.99
-16.14
-18.21
-20.39
-22.89
-25.87
-29.41
-33.57
-38.48
-44.40
-51.60
-60.12
-69.43
-78.33
-85.12
-88.03
-85.83
-78.35
-66.56
-52.31
-37.73
-24.58
-13.84
-5.67
0.28
4.47
7.16
8.38
8.07
6.38
3.77
0.89
-1.60
-3.30
-4.22
-4.67
-5.04
-5.64
-6.48
-7.35
-8.00
-8.33
-8.45
-8.78
-9.82
-12.08
-15.92
-21.44
-28.42
-36.22
-43.74
-49.59
-52.32
-50.82
-44.69
-34.45
-21.52
-7.80
4.82
14.99
22.16
26.56
28.87
29.81
29.86
29.20
27.79
25.64
23.00
20.44
18.56
17.75
18.01
18.89
19.71
19.90
19.19
17.74
15.89
13.96
12.00
9.82
7.07
3.45
-1.23
-7.03
-13.96
-21.82
-30.08
-37.72
-43.26
-45.10
-42.25
-34.62
-23.28
-10.07
2.89
13.99
22.36
27.92
31.05
32.29
32.08
30.74
28.58
25.89
23.02
20.27
17.85
15.77
13.92
12.16
10.41
8.69
7.00
5.35
3.56
1.42
-1.27
-4.54
-8.28
-12.27
-16.27
-20.18
-24.01
-27.97
-32.34
-37.46
-43.61
-50.72
-58.13
-64.47
-67.92
-66.69
-59.85
-47.77
-32.23
-15.79
-0.93
10.75
18.94
24.25
27.66
29.94
31.33
31.72
30.94
29.08
26.58
24.07
22.09
20.93
20.47
20.34
20.07
19.25
17.75
15.62
13.10
10.48
7.96
5.56
3.16
0.55
-2.50
-6.08
-10.14
-14.48
-18.82
-22.90
-26.61
-29.98
-33.28
-36.94
-41.42
-47.09
-54.02
-61.75
-69.27
-75.06
-77.45
-75.04
-67.28
-54.63
-38.51
-20.97
-4.07
10.61
22.21
30.54
35.84
38.59
39.22
38.19
35.99
33.21
30.42
28.07
26.39
25.25
24.36
23.34
22.00
20.35
18.58
16.97
15.65
14.61
13.65
12.49
10.89
8.70
5.87
2.42
-1.53
-5.87
-10.45
-15.13
-19.81
-24.39
-28.83
-33.12
-37.42
-42.02
-47.39
-53.86
-61.34
-68.96
-75.11
-77.77
-75.24
-66.78
-53.04
-35.90
-17.82
-1.13
12.62
22.76
29.40
33.00
34.12
33.34
31.19
28.25
25.00
21.85
18.98
16.39
13.99
11.70
9.56
7.70
6.19
5.01
3.95
2.70
0.90
-1.63
-4.95
-8.98
-13.54
-18.37
-23.21
-27.92
-32.52
-37.32
-42.84
-49.57
-57.63
-66.41
-74.52
-80.09
-81.31
-77.07
-67.38
-53.38
-36.97
-20.24
-5.01
7.61
17.19
23.85
27.97
30.00
30.19
28.77
25.86
21.75
16.89
11.93
7.51
4.07
1.64
-0.13
-1.81
-3.97
-7.01
-11.03
-15.91
-21.34
-27.02
-32.63
-37.93
-42.80
-47.46
-52.61
-59.38
-68.94
-81.76
-96.94
-112.05
-123.70
-128.74
-125.49
-114.29
-97.21
-76.96
-55.88
-35.35
-16.09
1.31
15.87
26.34
31.69
31.71
27.22
19.81
11.22
2.82
-4.71
-11.24
-16.97
-22.16
-27.09
-31.96
-36.97
-42.24
-47.85
-53.68
-59.49
-65.05
-70.27
-75.41
-81.15
-88.34
-97.55
-108.60
-120.21
-129.98
-135.01
-132.65
-121.40
-101.40
-74.39
-43.15
-10.74
20.36
48.52
73.08
94.13
112.10
127.51
140.78
152.13
161.47
168.48
172.58
173.13
169.66
162.17
151.22
137.99
123.77
109.72
96.56
84.42
73.07
62.05
50.87
38.96
25.63
10.10
-8.39
-30.07
-54.31
-79.21
-101.87
-118.97
-127.67
-126.42
-115.45
-96.65
-72.90
-47.42
-22.88
-1.13
16.85
30.78
40.79
47.19
50.44
51.15
50.02
47.83
45.29
42.95
41.09
39.64
38.20
36.14
32.91
28.21
22.23
15.49
8.70
2.34
-3.44
-8.92
-14.67
-21.28
-29.32
-39.22
-51.27
-65.42
-80.86
-95.94
-108.07
-114.39
-112.54
-101.54
-82.17
-56.77
-28.51
-0.45
25.02
46.49
63.30
75.31
82.60
85.44
84.37
80.30
74.45
68.17
62.71
58.87
56.83
56.08
55.59
54.20
51.09
46.05
39.49
32.26
25.11
18.37
11.76
4.52
-4.32
-15.51
-29.25
-44.98
-61.24
-75.87
-86.38
-90.44
-86.57
-74.58
-55.65
-32.00
-6.28
19.00
41.87
60.94
75.24
84.21
87.62
85.86
80.04
71.95
63.66
56.97
52.95
51.63
52.23
53.51
54.38
54.16
52.77
50.45
47.53
44.10
39.94
34.50
27.10
17.15
4.35
-10.92
-27.46
-43.21
-55.65
-62.31
-61.47
-52.75
-37.07
-16.38
6.84
30.20
51.72
69.83
83.39
91.60
94.09
91.11
83.65
73.42
62.54
53.10
46.52
43.23
42.57
43.12
43.35
42.12
39.10
34.69
29.58
24.36
19.11
13.48
6.80
-1.54
-12.02
-24.71
-39.19
-54.38
-68.44
-78.94
-83.38
-79.88
-67.91
-48.61
-24.49
1.18
25.40
46.00
61.84
72.69
78.70
80.22
77.73
71.95
64.06
55.58
48.11
42.88
40.39
40.24
41.38
42.50
42.45
40.63
36.95
31.73
25.41
18.31
10.59
2.26
-6.77
-16.63
-27.57
-39.82
-53.46
-68.03
-82.14
-93.52
-99.38
-97.29
-86.09
-66.44
-40.69
-12.15
15.88
40.95
61.64
77.37
87.96
93.39
93.87
90.07
83.27
75.24
67.88
62.56
59.83
59.30
59.95
60.63
60.49
59.23
57.02
54.23
51.14
47.67
43.44
37.90
30.66
21.67
11.34
0.40
-10.29
-20.04
-28.44
-35.55
-41.85
-48.18
-55.59
-65.03
-77.01
-91.10
-105.77
-118.32
-125.60
-124.82
-114.53
-95.16
-68.98
-39.37
-9.84
16.93
39.45
57.31
70.76
80.22
86.10
88.87
89.22
88.17
86.84
86.16
86.53
87.73
89.13
90.02
90.05
89.30
88.21
87.26
86.66
86.16
85.11
82.77
78.51
72.24
64.37
55.71
47.24
39.69
33.34
27.89
22.67
16.84
9.85
1.61
-7.49
-16.67
-25.20
-32.71
-39.35
-45.81
-53.11
-62.17
-73.47
-86.62
-100.25
-112.09
-119.54
-120.31
-113.14
-98.30
-77.51
-53.51
-29.26
-7.11
11.52
26.22
37.30
45.33
50.86
54.31
56.06
56.58
56.44
56.21
56.38
57.09
58.21
59.31
59.98
59.96
59.30
58.27
57.18
56.22
55.31
54.10
52.15
49.13
44.93
39.79
34.16
28.61
23.61
19.40
15.82
12.45
8.78
4.32
-1.02
-7.07
-13.36
-19.34
-24.65
-29.10
-32.82
-36.15
-39.52
-43.47
-48.52
-55.08
-63.21
-72.32
-81.12
-87.76
-90.36
-87.52
-78.93
-65.47
-48.94
-31.59
-15.41
-1.79
8.67
16.05
20.82
23.61
25.08
25.75
26.07
26.32
26.68
27.21
27.85
28.52
29.06
29.34
29.30
28.96
28.40
27.67
26.83
25.85
24.72
23.34
21.62
19.44
16.72
13.46
9.82
6.07
2.54
-0.55
-3.24
-5.77
-8.51
-11.80
-15.73
-20.12
-24.63
-28.88
-32.62
-35.80
-38.53
-41.09
-43.90
-47.45
-52.21
-58.33
-65.38
-72.23
-77.20
-78.55
-75.09
-66.68
-54.32
-39.84
-25.26
-12.21
-1.55
6.53
12.29
16.06
18.14
18.74
18.22
17.02
15.75
14.92
14.78
15.31
16.14
16.99
17.61
18.03
18.39
18.78
19.12
19.17
18.67
17.43
15.46
12.93
10.04
6.95
3.81
0.71
-2.24
-4.92
-7.30
-9.46
-11.64
-14.05
-16.84
-19.91
-23.03
-25.94
-28.50
-30.76
-32.96
-35.44
-38.56
-42.59
-47.56
-53.18
-58.77
-63.27
-65.45
-64.26
-59.21
-50.60
-39.48
-27.39
-15.84
-5.99
1.58
6.85
10.08
11.71
12.18
11.84
10.99
9.94
8.98
8.37
8.34
8.90
9.96
11.21
12.33
13.05
13.26
13.04
12.56
11.89
10.95
9.53
7.43
4.64
1.41
-1.85
-4.70
-6.89
-8.49
-9.74
-11.00
-12.49
-14.31
-16.33
-18.44
-20.56
-22.69
-24.88
-27.16
-29.45
-31.66
-33.72
-35.79
-38.23
-41.46
-45.77
-50.89
-55.96
-59.58
-60.30
-57.12
-49.94
-39.70
-27.98
-16.58
-6.86
0.59
5.83
9.35
11.61
12.83
13.04
12.22
10.60
8.62
6.91
5.91
5.80
6.42
7.36
8.23
8.74
8.78
8.35
7.61
6.67
5.67
4.67
3.64
2.42
0.85
-1.27
-3.96
-7.08
-10.35
-13.45
-16.15
-18.46
-20.51
-22.54
-24.84
-27.58
-30.97
-35.03
-39.61
-44.19
-47.95
-49.90
-49.23
-45.60
-39.31
-31.20
-22.31
-13.65
-5.89
0.56
5.46
8.69
10.25
10.32
9.33
7.87
6.54
5.75
5.63
5.95
6.36
6.51
6.21
5.49
4.54
3.56
2.67
1.79
0.70
-0.96
-3.45
-6.86
-10.97
-15.33
-19.38
-22.67
-25.07
-26.82
-28.42
-30.44
-33.36
-37.32
-42.08
-46.96
-51.02
-53.25
-52.78
-49.21
-42.67
-33.86
-23.88
-13.91
-4.97
2.33
7.70
11.22
13.08
13.58
13.01
11.74
10.10
8.41
6.94
5.74
4.75
3.89
3.08
2.34
1.73
1.25
0.78
0.03
-1.30
-3.43
-6.38
-9.98
-13.96
-18.07
-22.15
-26.18
-30.27
-34.64
-39.62
-45.47
-52.23
-59.47
-66.22
-71.11
-72.76
-70.26
-63.58
-53.59
-41.80
-29.85
-18.94
-9.71
-2.20
3.76
8.28
11.37
12.98
13.18
12.32
11.01
9.91
9.50
9.90
10.89
11.98
12.73
12.88
12.44
11.57
10.45
9.04
7.12
4.38
0.60
-4.12
-9.41
-14.70
-19.52
-23.76
-27.72
-32.07
-37.58
-44.78
-53.57
-63.18
-72.08
-78.39
-80.42
-77.05
-68.30
-55.18
-39.39
-22.82
-7.08
6.83
18.44
27.69
34.75
39.85
43.28
45.44
46.81
47.85
48.95
50.34
52.01
53.92
55.91
57.96
60.08
62.26
64.49
66.67
68.64
70.20
71.15
71.23
70.25
68.08
64.83
60.89
56.81
53.16
50.24
48.01
46.16
44.29
42.20
39.84
37.29
34.51
31.36
27.59
23.11
17.96
12.48
7.02
1.79
-3.24
-8.29
-13.66
-19.56
-25.99
-32.78
-39.66
-46.33
-52.60
-58.42
-63.98
-69.71
-76.31
-84.46
-94.52
-106.12
-117.88
-127.57
-132.58
-130.83
-121.45
-105.26
-84.40
-61.78
-40.08
-21.07
-5.41
7.23
17.61
26.42
34.10
40.77
46.38
51.03
54.93
58.48
62.03
65.74
69.47
72.92
75.80
77.97
79.54
80.75
81.79
82.71
83.31
83.27
82.22
79.99
76.62
72.48
68.08
64.00
60.61
58.00
55.84
53.57
50.58
46.52
41.39
35.60
29.74
24.29
19.51
15.25
11.14
6.69
1.50
-4.63
-11.64
-19.26
-27.09
-34.71
-41.84
-48.43
-54.76
-61.39
-69.04
-78.36
-89.50
-101.92
-114.14
-123.97
-129.04
-127.50
-118.68
-103.33
-83.46
-61.62
-40.19
-20.75
-3.97
10.25
22.34
32.74
41.72
49.41
55.87
61.32
65.97
70.06
73.75
77.01
79.74
81.87
83.45
84.71
85.93
87.35
88.99
90.56
91.57
91.49
89.91
86.77
82.38
77.34
72.35
67.98
64.51
61.78
59.30
56.47
52.80
48.10
42.57
36.64
30.85
25.56
20.86
16.54
12.16
7.28
1.68
-4.56
-11.08
-17.40
-23.13
-28.22
-32.88
-37.63
-43.06
-49.74
-58.03
-67.87
-78.66
-89.11
-97.29
-100.98
-98.29
-88.25
-71.25
-49.00
-24.06
0.82
23.39
42.22
56.70
66.88
73.15
76.11
76.46
75.02
72.63
69.98
67.45
64.90
61.74
57.24
50.84
42.57
33.15
23.85
16.03
10.67
8.03
7.62
8.54
9.85
10.96
11.74
12.40
13.21
14.31
15.54
16.56
17.02
16.69
15.62
14.10
12.58
11.41
10.71
10.21
9.20
6.65
1.48
-7.20
-19.80
-36.06
-54.92
-74.55
-92.48
-105.99
-112.66
-111.11
-101.41
-85.13
-65.01
-44.09
-24.98
-9.28
2.52
10.68
15.79
18.39
18.86
17.62
15.17
12.28
9.79
8.41
8.55
10.23
13.18
17.02
21.37
25.85
30.13
33.90
36.89
38.99
40.26
40.87
40.92
40.35
38.96
36.57
33.19
29.14
24.87
20.63
16.29
11.22
4.60
-4.33
-15.94
-30.15
-46.44
-63.85
-80.96
-95.84
-106.22
-109.94
-105.66
-93.46
-74.99
-53.04
-30.75
-10.70
5.69
18.10
27.08
33.46
38.04
41.37
43.83
45.62
46.86
47.64
47.99
47.96
47.60
46.97
46.12
44.98
43.47
41.42
38.66
35.04
30.45
24.88
18.38
11.19
3.58
-4.11
-11.63
-18.79
-25.54
-31.82
-37.57
-42.76
-47.41
-51.77
-56.27
-61.49
-68.00
-76.11
-85.60
-95.63
-104.68
-110.88
-112.42
-108.07
-97.73
-82.48
-64.36
-45.69
-28.56
-14.22
-3.06
5.20
11.19
15.51
18.67
21.01
22.96
24.99
27.66
31.36
36.18
41.85
47.70
52.94
56.96
59.44
60.47
60.36
59.45
57.87
55.52
52.15
47.59
41.91
35.46
28.81
22.62
17.35
13.07
9.44
5.70
0.94
-5.67
-14.72
-26.34
-40.11
-54.99
-69.32
-80.95
-87.63
-87.63
-80.24
-66.16
-47.34
-26.57
-6.59
10.49
23.69
32.97
38.94
42.44
44.15
44.57
44.02
42.79
41.14
39.34
37.49
35.64
33.77
31.95
30.43
29.54
29.52
30.31
31.33
31.67
30.33
26.63
20.52
12.57
3.84
-4.65
-12.16
-18.54
-24.18
-29.92
-36.74
-45.43
-56.20
-68.37
-80.32
-89.61
-93.72
-90.77
-80.26
-63.32
-42.37
-20.41
-0.09
16.87
29.86
39.13
45.35
49.25
51.36
52.01
51.47
49.99
47.91
45.68
43.70
42.19
41.16
40.29
39.09
37.02
33.73
29.13
23.42
16.93
9.95
2.66
-4.93
-12.84
-21.22
-30.18
-39.99
-50.92
-63.06
-76.03
-88.73
-99.38
-105.77
-106.11
-99.60
-86.88
-69.86
-51.04
-32.77
-16.57
-2.95
8.28
17.53
25.03
30.62
34.03
35.14
34.29
32.24
29.98
28.33
27.64
27.71
27.89
27.45
25.83
22.91
18.93
14.28
9.26
3.99
-1.70
-8.08
-15.49
-24.25
-34.60
-46.56
-59.64
-72.66
-83.64
-90.19
-90.16
-82.45
-67.48
-47.23
-24.68
-2.88
15.83
30.31
40.50
47.00
50.49
51.43
50.02
46.48
41.29
35.29
29.51
24.87
21.84
20.27
19.54
18.84
17.49
15.20
11.99
8.08
3.60
-1.45
-7.34
-14.41
-22.95
-33.09
-44.79
-57.82
-71.74
-85.67
-98.17
-107.21
-110.58
-106.55
-94.54
-75.55
-51.87
-26.55
-2.41
18.56
35.39
47.94
56.50
61.49
63.41
62.98
61.11
58.81
56.91
55.81
55.41
55.27
54.94
54.18
53.06
51.76
50.30
48.37
45.41
40.90
34.64
26.96
18.57
10.23
2.41
-4.89
-12.24
-20.55
-30.73
-43.39
-58.30
-74.16
-88.63
-98.70
-101.50
-95.24
-79.92
-57.42
-30.92
-4.02
20.33
40.36
55.56
66.27
73.22
77.12
78.53
77.94
75.95
73.39
71.13
69.94
70.14
71.49
73.24
74.50
74.53
73.07
70.30
66.71
62.79
58.79
54.60
49.85
44.10
37.05
28.67
19.30
9.51
-0.01
-8.73
-16.41
-23.18
-29.44
-35.74
-42.68
-50.87
-60.76
-72.46
-85.46
-98.26
-108.49
-113.34
-110.43
-98.72
-79.00
-53.80
-26.62
-0.91
20.83
37.49
49.18
56.74
61.25
63.58
64.40
64.20
63.49
62.76
62.45
62.80
63.77
65.08
66.37
67.25
67.48
66.88
65.42
63.04
59.75
55.55
50.53
44.82
38.57
31.95
25.00
17.64
9.80
1.46
-7.20
-15.78
-23.83
-31.07
-37.58
-43.81
-50.57
-58.74
-68.96
-81.31
-94.96
-108.10
-118.22
-122.58
-119.05
-106.91
-87.15
-62.31
-35.71
-10.48
11.16
28.20
40.63
49.03
54.05
56.26
56.19
54.44
51.78
49.13
47.24
46.61
47.14
48.31
49.34
49.56
48.64
46.67
44.03
41.07
37.96
34.49
30.21
24.71
17.80
9.74
1.17
-7.11
-14.48
-20.66
-25.85
-30.58
-35.49
-41.28
-48.50
-57.62
-68.77
-81.48
-94.45
-105.49
-111.96
-111.47
-102.73
-86.12
-63.65
-38.36
-13.46
8.52
26.14
39.08
47.81
53.11
55.79
56.56
56.02
54.77
53.42
52.44
52.13
52.48
53.14
53.64
53.60
52.86
51.55
49.89
47.96
45.51
42.01
36.91
29.94
21.31
11.74
2.11
-6.88
-14.98
-22.52
-30.27
-39.22
-50.15
-63.26
-77.88
-92.28
-103.90
-110.00
-108.51
-98.71
-81.64
-59.82
-36.41
-14.42
4.08
18.17
27.90
33.87
36.84
37.46
36.25
33.61
30.04
26.10
22.44
19.64
18.06
17.75
18.34
19.20
19.56
18.76
16.39
12.38
6.95
0.53
-6.42
-13.54
-20.62
-27.70
-35.04
-43.06
-52.25
-62.92
-74.87
-87.16
-97.94
-104.76
-105.26
-97.96
-82.93
-61.85
-37.61
-13.38
8.23
25.68
38.57
47.21
52.24
54.31
53.99
51.84
48.48
44.59
40.84
37.75
35.60
34.39
33.85
33.60
33.10
31.91
29.64
26.03
21.02
14.67
7.23
-0.97
-9.53
-18.11
-26.54
-34.93
-43.70
-53.48
-64.78
-77.58
-90.88
-102.64
-110.04
-110.43
-102.19
-85.55
-62.54
-36.52
-11.07
11.03
28.33
40.67
48.74
53.45
55.55
55.64
54.26
52.08
49.89
48.40
47.97
48.48
49.40
50.03
49.83
48.65
46.69
44.23
41.33
37.69
32.77
26.11
17.63
7.81
-2.46
-12.28
-21.02
-28.60
-35.47
-42.44
-50.42
-60.18
-71.95
-85.25
-98.56
-109.43
-114.99
-112.84
-101.97
-83.28
-59.35
-33.65
-9.44
11.13
27.24
39.11
47.46
52.99
56.19
57.48
57.37
56.56
55.82
55.80
56.75
58.47
60.36
61.65
61.76
60.48
58.06
55.03
51.82
48.54
44.84
40.04
33.49
24.87
14.45
3.04
-8.22
-18.32
-26.71
-33.52
-39.55
-46.09
-54.37
-65.22
-78.50
-92.86
-105.89
-114.60
-116.30
-109.39
-94.03
-72.12
-46.69
-21.06
2.12
21.33
36.26
47.30
55.11
60.25
63.15
64.20
63.88
62.85
61.85
61.49
62.02
63.24
64.60
65.42
65.12
63.46
60.64
57.08
53.18
49.16
44.86
39.89
33.80
26.40
17.75
8.34
-1.17
-10.10
-17.94
-24.61
-30.38
-35.86
-41.79
-48.86
-57.65
-68.40
-80.91
-94.17
-106.36
-114.98
-117.48
-112.06
-98.38
-77.84
-53.17
-27.70
-4.28
15.17
29.97
40.34
47.02
50.88
52.71
53.22
52.92
52.32
51.83
51.78
52.34
53.46
54.87
56.10
56.69
56.27
54.69
52.03
48.48
44.37
39.94
35.42
30.93
26.48
21.87
16.78
10.85
3.92
-3.93
-12.28
-20.61
-28.40
-35.41
-41.75
-47.86
-54.41
-62.20
-71.84
-83.41
-96.13
-108.18
-116.87
-119.43
-113.78
-99.45
-77.78
-51.65
-24.51
0.57
21.65
38.10
50.26
58.87
64.62
68.01
69.39
69.22
68.13
66.88
66.14
66.25
67.20
68.53
69.64
69.99
69.21
67.23
64.22
60.48
56.30
51.91
47.29
42.28
36.60
30.03
22.48
14.14
5.37
-3.38
-11.67
-19.24
-26.08
-32.40
-38.71
-45.66
-53.97
-64.18
-76.31
-89.56
-102.20
-111.77
-115.68
-112.04
-100.31
-81.71
-58.89
-35.16
-13.49
4.33
17.86
27.71
34.88
40.11
43.61
45.28
45.09
43.41
41.07
38.99
37.85
37.78
38.37
38.92
38.88
38.06
36.65
35.01
33.39
31.69
29.44
26.06
20.98
13.97
5.23
-4.66
-14.89
-24.67
-33.52
-41.34
-48.48
-55.61
-63.54
-72.98
-84.29
-97.22
-110.74
-123.00
-131.68
-134.49
-129.90
-117.69
-99.08
-76.46
-52.62
-30.08
-10.50
5.44
17.84
27.22
34.14
39.14
42.65
45.06
46.71
47.84
48.59
48.96
48.93
48.53
47.90
47.25
46.77
46.42
45.87
44.48
41.55
36.52
29.29
20.21
10.04
-0.28
-9.98
-18.64
-26.35
-33.71
-41.64
-50.91
-61.68
-73.09
-83.18
-89.26
-88.80
-80.29
-63.99
-41.91
-17.19
6.88
27.72
44.01
55.57
62.87
66.59
67.26
65.33
61.33
55.98
50.16
44.71
40.21
36.80
34.33
32.43
30.76
29.06
27.19
25.04
22.52
19.61
16.33
12.85
9.38
6.09
2.91
-0.49
-4.69
-10.47
-18.65
-29.80
-43.90
-60.00
-76.02
-89.04
-95.95
-94.49
-84.01
-65.96
-43.38
-20.06
0.71
16.97
28.32
35.63
40.22
43.25
45.28
46.32
46.20
44.83
42.51
39.87
37.59
36.09
35.29
34.59
33.17
30.35
25.86
19.94
13.16
6.13
-0.81
-7.64
-14.68
-22.37
-31.12
-41.20
-52.71
-65.51
-79.08
-92.36
-103.71
-111.00
-112.20
-106.00
-92.35
-72.76
-49.82
-26.54
-5.41
12.18
26.01
36.72
45.15
51.84
56.92
60.23
61.71
61.58
60.31
58.36
55.93
52.87
48.88
43.86
38.23
32.82
28.60
26.18
25.37
25.25
24.48
21.82
16.52
8.45
-2.11
-14.63
-28.29
-41.84
-53.43
-60.76
-61.65
-54.83
-40.63
-20.97
1.08
22.32
40.39
54.24
64.03
70.61
74.77
76.87
76.79
74.33
69.59
63.23
56.42
50.46
46.27
43.95
42.79
41.58
39.16
34.98
29.22
22.65
16.16
10.28
4.88
-0.75
-7.62
-16.61
-28.19
-42.13
-57.48
-72.52
-84.98
-92.44
-92.92
-85.55
-71.01
-51.40
-29.69
-8.82
9.10
23.15
33.38
40.30
44.33
45.67
44.45
41.07
36.46
32.03
29.15
28.63
30.30
32.99
35.00
34.80
31.65
25.84
18.42
10.62
3.26
-3.57
-10.50
-18.45
-28.28
-40.49
-54.99
-71.00
-86.91
-100.40
-108.75
-109.58
-101.61
-85.24
-62.52
-36.55
-10.51
13.20
33.25
49.25
61.22
69.28
73.54
74.33
72.46
69.19
65.92
63.64
62.54
62.04
61.06
58.57
54.07
47.72
40.23
32.47
25.12
18.43
12.10
5.37
-2.78
-13.37
-26.95
-43.29
-61.04
-77.80
-90.61
-96.75
-94.56
-84.13
-67.24
-46.93
-26.50
-8.66
5.13
14.63
20.43
23.33
23.94
22.55
19.43
15.04
10.15
5.69
2.37
0.36
-0.72
-1.57
-2.81
-4.58
-6.48
-7.83
-8.10
-7.30
-6.21
-6.13
-8.56
-14.72
-25.20
-39.73
-57.06
-75.06
-90.86
-101.37
-104.03
-97.54
-82.35
-60.58
-35.43
-10.11
13.03
32.87
49.37
62.97
73.93
82.06
86.89
88.13
86.07
81.67
76.26
71.03
66.53
62.56
58.41
53.34
47.02
39.75
32.20
25.09
18.73
12.90
6.97
0.20
-7.99
-17.92
-29.62
-42.90
-57.20
-71.41
-83.78
-92.01
-93.94
-88.17
-74.76
-55.28
-32.36
-8.80
13.14
32.20
48.06
60.84
70.80
78.05
82.72
85.13
85.79
85.37
84.43
83.14
81.33
78.64
74.73
69.70
64.08
58.69
54.21
50.86
48.14
45.03
40.40
33.53
24.43
13.82
2.88
-7.26
-15.93
-23.09
-29.38
-35.89
-43.85
-54.21
-67.13
-81.64
-95.48
-105.58
-108.84
-103.18
-88.31
-65.94
-39.25
-11.89
13.01
33.64
49.45
60.89
68.76
73.81
76.58
77.42
76.76
75.15
73.18
71.31
69.72
68.20
66.35
63.82
60.47
56.49
52.31
48.42
45.16
42.51
40.10
37.22
33.06
26.93
18.55
8.21
-3.37
-15.21
-26.39
-36.45
-45.39
-53.69
-62.11
-71.36
-81.98
-94.02
-106.88
-119.15
-128.72
-133.11
-130.24
-119.14
-100.39
-76.19
-49.66
-24.02
-1.70
16.08
29.22
38.35
44.34
47.95
49.77
50.25
49.79
48.72
47.32
45.73
43.99
42.08
40.00
37.80
35.59
33.46
31.36
29.03
25.98
21.69
15.74
8.13
-0.75
-10.19
-19.35
-27.64
-34.82
-41.18
-47.42
-54.45
-63.03
-73.38
-84.75
-95.32
-102.51
-103.68
-97.06
-82.49
-61.63
-37.46
-13.36
7.92
24.96
37.63
46.62
52.85
56.94
59.18
59.70
58.77
56.91
54.78
52.85
51.25
49.67
47.64
44.87
41.45
37.81
34.49
31.70
29.19
26.27
22.12
16.22
8.56
-0.29
-9.41
-17.94
-25.39
-31.87
-37.99
-44.73
-53.08
-63.60
-75.97
-88.76
-99.60
-105.67
-104.69
-95.67
-79.45
-58.46
-35.98
-15.05
2.31
15.37
24.44
30.29
33.55
34.63
33.88
31.77
29.12
26.92
25.99
26.70
28.73
31.27
33.40
34.41
34.13
32.80
30.93
28.98
27.04
24.85
21.90
17.64
11.78
4.49
-3.64
-11.83
-19.37
-25.94
-31.59
-36.80
-42.27
-48.76
-56.90
-66.83
-77.97
-88.73
-96.71
-99.17
-93.95
-80.41
-59.82
-35.10
-9.86
12.68
30.58
43.33
51.45
55.81
57.10
55.71
51.91
46.22
39.57
33.19
28.21
25.23
24.16
24.25
24.49
24.09
22.71
20.54
18.06
15.71
13.66
11.66
9.21
5.74
0.91
-5.31
-12.52
-20.04
-27.10
-33.18
-38.17
-42.51
-47.05
-52.78
-60.56
-70.70
-82.76
-95.44
-106.64
-113.84
-114.70
-107.75
-92.95
-71.86
-47.23
-22.27
0.31
18.83
32.78
42.49
48.64
51.83
52.58
51.41
49.07
46.50
44.65
44.12
44.91
46.42
47.76
48.12
47.17
45.09
42.42
39.70
37.17
34.65
31.62
27.48
21.80
14.52
5.94
-3.39
-12.80
-21.72
-29.83
-37.20
-44.23
-51.58
-60.03
-70.18
-82.30
-95.94
-109.78
-121.69
-129.04
-129.47
-121.57
-105.51
-83.08
-57.24
-31.31
-8.06
10.80
24.69
33.88
39.04
40.97
40.39
38.05
34.69
31.07
27.79
25.27
23.56
22.61
22.25
22.28
22.43
22.39
21.73
19.96
16.72
11.91
5.65
-1.65
-9.56
-17.62
-25.49
-32.99
-40.18
-47.48
-55.68
-65.63
-77.78
-91.56
-105.06
-115.31
-119.07
-114.00
-99.65
-77.73
-51.55
-24.97
-1.22
17.79
31.61
40.74
46.01
48.20
47.87
45.52
41.70
37.10
32.43
28.31
25.12
23.00
21.80
21.19
20.65
19.57
17.36
13.64
8.30
1.52
-6.32
-14.80
-23.58
-32.53
-41.81
-51.79
-62.98
-75.83
-90.30
-105.46
-119.35
-129.15
-131.92
-125.56
-109.63
-85.72
-56.96
-27.20
0.11
22.66
39.62
51.26
58.46
62.15
63.06
61.72
58.66
54.56
50.23
46.51
44.01
42.88
42.83
43.16
43.08
41.84
39.05
34.60
28.67
21.58
13.67
5.23
-3.60
-12.77
-22.44
-32.93
-44.76
-58.41
-73.96
-90.57
-106.23
-117.90
-122.23
-116.65
-100.37
-74.78
-43.18
-9.83
21.18
46.87
65.78
77.86
84.07
85.83
84.59
81.56
77.63
73.40
69.34
65.85
63.28
61.78
61.24
61.24
61.07
60.01
57.46
53.02
46.61
38.41
28.78
18.27
7.41
-3.33
-13.75
-24.00
-34.65
-46.54
-60.42
-76.63
-94.44
-111.89
-125.90
-133.03
-130.51
-117.30
-94.62
-65.58
-34.20
-4.18
21.96
43.09
59.13
70.45
77.51
80.85
81.18
79.62
77.48
75.94
75.65
76.54
77.91
78.81
78.53
76.78
73.84
70.33
66.78
63.32
59.60
54.79
48.02
38.81
27.41
14.76
2.15
-9.25
-18.94
-27.25
-35.27
-44.45
-56.14
-71.04
-88.75
-107.58
-124.53
-135.92
-138.35
-129.72
-110.09
-81.79
-48.78
-15.41
14.79
39.85
59.32
73.73
83.90
90.47
93.92
94.73
93.71
91.92
90.48
90.12
90.96
92.51
93.91
94.33
93.21
90.47
86.37
81.37
75.91
70.23
64.30
57.78
50.18
41.12
30.47
18.59
6.21
-5.73
-16.50
-25.77
-33.83
-41.39
-49.54
-59.38
-71.72
-86.67
-103.26
-119.29
-131.51
-136.41
-131.29
-115.26
-89.74
-58.06
-24.50
7.06
34.04
55.43
71.47
82.89
90.42
94.53
95.74
94.76
92.74
90.92
90.28
91.10
92.81
94.29
94.39
92.41
88.41
83.18
77.70
72.68
68.16
63.48
57.59
49.55
39.01
26.45
13.01
0.03
-11.41
-20.95
-28.98
-36.51
-44.74
-54.81
-67.39
-82.44
-98.97
-115.01
-127.75
-134.14
-131.69
-119.38
-98.11
-70.56
-40.35
-11.11
14.55
35.29
50.99
62.17
69.50
73.56
74.89
74.15
72.23
70.15
68.68
68.11
68.14
68.09
67.29
65.46
62.81
59.89
57.11
54.42
51.11
46.19
38.86
28.93
17.03
4.39
-7.74
-18.50
-27.74
-36.06
-44.51
-54.26
-66.15
-80.35
-96.01
-111.20
-123.09
-128.62
-125.38
-112.52
-91.16
-64.17
-35.31
-8.18
14.71
32.28
44.63
52.54
56.92
58.50
57.88
55.58
52.24
48.55
45.15
42.54
40.92
40.25
40.28
40.61
40.77
40.26
38.61
35.49
30.72
24.40
16.86
8.60
0.15
-8.11
-16.09
-24.07
-32.70
-42.73
-54.62
-68.11
-81.83
-93.35
-99.77
-98.59
-88.71
-70.92
-47.74
-22.63
1.01
20.83
35.82
46.09
52.38
55.40
55.68
53.48
49.09
43.10
36.44
30.33
25.88
23.75
23.90
25.60
27.68
28.85
28.14
25.18
20.17
13.72
6.53
-0.83
-8.08
-15.26
-22.61
-30.46
-39.22
-49.23
-60.59
-72.90
-84.99
-94.83
-99.91
-98.01
-88.03
-70.55
-47.86
-23.25
-0.01
19.56
34.53
45.14
52.25
56.71
59.00
59.29
57.72
54.64
50.67
46.66
43.39
41.29
40.36
40.11
39.81
38.72
36.35
32.58
27.68
22.06
16.13
10.12
4.01
-2.40
-9.42
-17.36
-26.50
-37.00
-48.68
-60.72
-71.53
-78.88
-80.43
-74.59
-61.12
-41.44
-18.24
5.34
26.63
43.97
56.87
65.57
70.58
72.32
71.06
67.19
61.38
54.69
48.34
43.36
40.30
39.03
38.82
38.67
37.67
35.26
31.41
26.44
20.81
14.92
8.84
2.39
-4.83
-13.19
-22.94
-34.10
-46.51
-59.76
-73.04
-85.06
-94.04
-97.97
-95.13
-84.79
-67.49
-45.20
-20.73
2.96
23.42
39.27
50.14
56.41
58.86
58.30
55.49
51.14
45.98
40.70
35.91
32.01
29.11
27.14
25.96
25.40
25.39
25.76
26.19
26.07
24.70
21.49
16.30
9.54
2.07
-5.08
-11.07
-15.63
-19.10
-22.37
-26.68
-33.21
-42.65
-54.85
-68.52
-81.31
-90.27
-92.75
-87.23
-73.97
-54.89
-32.97
-11.23
8.08
23.90
36.04
44.85
50.62
53.54
53.77
51.72
48.17
44.13
40.51
37.86
36.19
35.10
34.00
32.44
30.29
27.76
25.18
22.81
20.52
17.84
14.12
8.78
1.70
-6.67
-15.42
-23.55
-30.26
-35.39
-39.36
-43.11
-47.88
-54.69
-64.06
-75.62
-87.93
-98.62
-104.91
-104.40
-95.82
-79.59
-57.76
-33.35
-9.56
11.15
27.50
39.39
47.43
52.55
55.49
56.77
56.68
55.51
53.61
51.38
49.18
47.18
45.36
43.49
41.46
39.25
37.01
34.96
33.06
30.98
28.00
23.40
16.70
8.08
-1.70
-11.56
-20.49
-27.98
-34.19
-39.91
-46.24
-54.20
-64.32
-76.15
-88.21
-98.08
-103.02
-100.83
-90.61
-73.29
-51.29
-27.89
-6.11
12.00
25.69
35.28
41.64
45.61
47.82
48.57
48.11
46.78
45.00
43.18
41.56
40.19
38.97
37.77
36.52
35.21
33.74
31.87
29.14
25.07
19.39
12.19
3.89
-4.80
-13.25
-21.12
-28.39
-35.48
-43.04
-51.79
-62.12
-73.79
-85.60
-95.50
-100.96
-99.76
-90.77
-74.46
-52.91
-29.15
-6.32
13.15
28.07
38.36
44.75
48.26
49.83
50.10
49.43
48.03
46.07
43.76
41.36
39.09
37.07
35.27
33.50
31.51
28.97
25.66
21.41
16.16
10.00
3.07
-4.45
-12.34
-20.47
-28.84
-37.67
-47.29
-58.01
-69.79
-81.90
-92.87
-100.57
-102.87
-98.26
-86.53
-68.85
-47.56
-25.47
-5.08
11.95
24.95
34.11
39.99
43.23
44.31
43.49
40.95
37.00
32.05
26.75
21.76
17.68
14.80
13.00
11.83
10.63
8.80
5.95
2.01
-2.90
-8.46
-14.44
-20.63
-26.91
-33.27
-39.86
-46.97
-55.04
-64.31
-74.45
-84.28
-91.74
-94.46
-90.48
-79.12
-61.34
-39.47
-16.64
4.29
21.36
33.85
42.05
46.87
49.36
50.37
50.42
49.79
48.62
47.01
45.11
43.20
41.44
39.98
38.79
37.68
36.32
34.31
31.18
26.57
20.30
12.45
3.32
-6.60
-16.74
-26.59
-35.85
-44.50
-52.91
-61.71
-71.54
-82.50
-93.80
-103.53
-109.10
-108.01
-98.84
-81.86
-59.15
-33.82
-9.13
12.49
29.73
42.36
50.89
56.12
58.84
59.81
59.65
58.86
57.77
56.50
55.04
53.36
51.44
49.35
47.21
45.13
43.11
40.98
38.38
34.82
29.94
23.61
16.04
7.82
-0.36
-7.92
-14.61
-20.62
-26.54
-33.16
-41.23
-51.18
-62.69
-74.52
-84.49
-90.01
-88.80
-79.75
-63.37
-41.77
-17.94
5.02
24.76
40.00
50.47
56.59
59.11
58.86
56.66
53.33
49.64
46.20
43.45
41.50
40.28
39.47
38.81
38.09
37.25
36.30
35.20
33.72
31.47
27.98
22.92
16.28
8.47
0.25
-7.50
-14.16
-19.60
-24.37
-29.50
-36.19
-45.26
-56.63
-69.07
-80.24
-87.32
-87.83
-80.50
-65.78
-45.76
-23.47
-1.96
16.47
30.70
40.59
46.56
49.22
49.12
46.90
43.30
39.22
35.50
32.65
30.78
29.58
28.54
27.31
25.76
23.99
22.14
20.17
17.79
14.57
10.19
4.53
-2.16
-9.41
-16.68
-23.53
-29.91
-36.14
-42.93
-51.07
-61.05
-72.52
-84.07
-93.27
-97.38
-94.29
-83.32
-65.67
-43.99
-21.50
-1.07
15.55
27.81
35.99
40.62
42.17
40.91
37.15
31.57
25.25
19.54
15.63
14.23
15.16
17.59
20.21
21.80
21.57
19.38
15.61
10.83
5.55
-0.02
-5.89
-12.24
-19.27
-27.18
-36.20
-46.50
-57.94
-69.80
-80.54
-87.94
-89.74
-84.35
-71.59
-52.85
-30.67
-8.01
12.61
29.52
41.99
49.97
53.68
53.51
50.03
44.12
36.95
29.90
24.21
20.59
19.09
19.08
19.56
19.57
18.53
16.30
13.20
9.59
5.74
1.64
-2.97
-8.45
-15.16
-23.32
-33.13
-44.45
-56.63
-68.33
-77.44
-81.65
-79.01
-68.86
-52.11
-31.11
-8.89
11.74
28.85
41.54
49.65
53.37
53.01
49.01
42.16
33.75
25.42
18.70
14.53
12.89
12.97
13.43
13.11
11.35
8.18
4.17
-0.12
-4.33
-8.67
-13.72
-20.26
-28.96
-40.02
-53.04
-66.81
-79.45
-88.57
-91.91
-87.96
-76.50
-58.81
-37.31
-14.92
5.75
22.82
35.28
42.80
45.56
44.12
39.45
32.92
26.08
20.36
16.58
14.82
14.39
14.32
13.71
12.13
9.62
6.52
3.13
-0.52
-4.76
-10.17
-17.41
-26.97
-38.92
-52.73
-67.00
-79.60
-87.85
-89.33
-82.54
-67.57
-46.23
-21.48
3.31
25.38
42.97
55.41
62.75
65.34
63.68
58.47
50.78
42.06
33.91
27.73
24.22
23.28
23.96
24.90
24.80
22.84
18.91
13.52
7.41
1.10
-5.48
-13.07
-22.74
-35.32
-50.74
-67.66
-83.51
-95.07
-99.34
-94.51
-80.59
-59.43
-34.16
-8.24
15.49
35.37
50.88
62.17
69.52
73.05
72.79
69.11
62.97
55.96
49.77
45.60
43.65
43.12
42.55
40.62
36.71
31.07
24.57
18.27
12.81
8.15
3.68
-1.61
-8.69
-18.29
-30.66
-45.45
-61.55
-76.98
-89.08
-95.00
-92.47
-80.57
-60.24
-34.12
-5.76
21.38
44.80
63.31
76.75
85.53
90.15
90.99
88.56
83.78
77.98
72.74
69.32
68.29
69.20
70.90
71.98
71.36
68.67
64.33
59.17
53.99
49.17
44.43
39.09
32.37
23.84
13.69
2.63
-8.29
-18.17
-26.55
-33.59
-40.00
-46.76
-54.88
-65.10
-77.69
-92.11
-106.97
-119.89
-127.91
-128.21
-118.96
-100.12
-73.56
-42.77
-11.74
16.02
38.32
54.45
64.89
70.70
73.07
73.02
71.43
69.17
67.06
65.84
65.90
67.18
69.16
71.10
72.32
72.44
71.48
69.64
67.09
63.82
59.63
54.36
48.02
40.91
33.48
26.18
19.24
12.62
6.08
-0.60
-7.54
-14.62
-21.60
-28.22
-34.39
-40.31
-46.51
-53.87
-63.28
-75.25
-89.49
-104.43
-117.43
-125.19
-124.80
-114.65
-95.17
-68.68
-38.81
-9.38
16.62
37.45
52.74
62.92
68.80
71.26
71.15
69.36
66.84
64.57
63.26
63.26
64.39
66.18
67.95
69.15
69.49
68.90
67.43
65.12
61.96
57.83
52.65
46.49
39.56
32.17
24.57
16.92
9.15
1.17
-7.04
-15.35
-23.50
-31.19
-38.22
-44.63
-50.74
-57.21
-64.84
-74.36
-85.98
-98.94
-111.30
-120.20
-122.58
-116.20
-100.59
-77.30
-49.54
-21.16
4.53
25.44
40.95
51.46
57.84
60.95
61.57
60.39
58.20
55.84
54.09
53.42
53.83
54.94
56.12
56.80
56.63
55.56
53.76
51.46
48.83
45.87
42.50
38.57
33.95
28.59
22.48
15.67
8.28
0.48
-7.50
-15.35
-22.76
-29.55
-35.70
-41.51
-47.57
-54.67
-63.50
-74.32
-86.51
-98.48
-107.71
-111.42
-107.42
-94.89
-74.86
-49.94
-23.58
0.98
21.48
36.99
47.66
54.18
57.30
57.62
55.66
52.07
47.73
43.62
40.57
38.97
38.67
39.11
39.58
39.59
38.98
37.90
36.58
35.07
33.13
30.21
25.78
19.54
11.66
2.77
-6.26
-14.63
-21.87
-27.98
-33.46
-39.07
-45.72
-54.12
-64.48
-76.17
-87.57
-96.23
-99.45
-95.22
-82.95
-63.90
-40.78
-16.98
4.51
21.78
34.21
42.18
46.47
47.86
46.96
44.29
40.47
36.25
32.45
29.77
28.52
28.60
29.48
30.48
30.87
30.12
27.96
24.29
19.22
12.95
5.73
-2.12
-10.25
-18.33
-26.08
-33.46
-40.69
-48.31
-56.98
-67.13
-78.45
-89.61
-98.36
-102.09
-98.70
-87.42
-69.26
-46.74
-23.09
-1.25
16.80
30.31
39.48
44.93
47.36
47.37
45.56
42.65
39.44
36.64
34.70
33.65
33.22
33.04
32.79
32.31
31.52
30.33
28.51
25.70
21.56
15.93
8.98
1.22
-6.68
-14.07
-20.66
-26.60
-32.51
-39.27
-47.69
-58.13
-70.17
-82.45
-92.77
-98.57
-97.59
-88.65
-72.16
-50.16
-25.77
-2.25
17.88
33.43
44.45
51.75
56.31
58.82
59.62
58.96
57.23
55.08
53.21
52.13
51.82
51.82
51.41
50.00
47.46
44.07
40.42
37.09
34.29
31.76
28.86
24.85
19.19
11.84
3.23
-5.89
-14.70
-22.62
-29.55
-35.85
-42.25
-49.61
-58.67
-69.78
-82.63
-96.04
-107.96
-115.85
-117.25
-110.62
-95.92
-74.74
-49.93
-24.74
-1.92
16.86
31.17
41.45
48.48
52.91
55.21
55.73
54.96
53.64
52.50
52.06
52.35
52.92
53.12
52.51
51.06
49.12
47.13
45.16
42.87
39.60
34.68
27.85
19.42
10.12
0.90
-7.52
-14.81
-21.21
-27.48
-34.64
-43.70
-55.07
-68.22
-81.42
-91.99
-97.02
-94.29
-83.11
-64.69
-41.81
-17.90
3.97
21.91
35.31
44.60
50.67
54.34
56.12
56.30
55.10
52.85
50.04
47.18
44.66
42.65
41.10
39.76
38.31
36.47
33.94
30.53
26.09
20.59
14.15
7.01
-0.41
-7.74
-14.65
-21.08
-27.28
-33.79
-41.33
-50.51
-61.39
-73.13
-83.88
-91.07
-92.10
-85.27
-70.54
-49.66
-25.77
-2.33
17.81
33.17
43.68
50.19
53.89
55.73
56.11
55.15
52.91
49.67
46.03
42.70
40.22
38.74
37.98
37.31
36.12
33.99
30.74
26.46
21.29
15.36
8.71
1.46
-6.24
-14.13
-22.02
-29.97
-38.29
-47.42
-57.53
-68.09
-77.71
-84.27
-85.50
-79.93
-67.39
-49.30
-28.20
-7.03
11.81
26.92
37.92
45.22
49.41
50.95
50.15
47.27
42.80
37.59
32.70
29.08
27.25
27.06
27.76
28.31
27.77
25.61
21.86
16.95
11.43
5.78
0.15
-5.58
-11.72
-18.65
-26.65
-35.92
-46.45
-57.87
-69.25
-79.00
-85.05
-85.32
-78.45
-64.42
-44.76
-22.20
0.16
19.73
35.09
45.98
52.93
56.71
57.89
56.77
53.63
48.98
43.64
38.64
34.90
32.82
32.21
32.27
31.98
30.44
27.14
22.11
15.88
9.15
2.55
-3.52
-9.11
-14.58
-20.55
-27.70
-36.53
-47.12
-58.88
-70.38
-79.53
-84.01
-81.87
-72.31
-56.00
-35.02
-12.26
9.38
27.71
41.71
51.34
57.29
60.45
61.54
61.11
59.49
57.04
54.13
51.24
48.78
46.99
45.86
45.14
44.51
43.57
42.01
39.54
35.91
30.94
24.51
16.73
7.92
-1.37
-10.55
-19.13
-26.99
-34.53
-42.59
-52.12
-63.65
-76.68
-89.39
-98.99
-102.45
-97.61
-84.11
-63.62
-39.32
-14.91
6.62
23.67
36.05
44.58
50.29
53.98
56.05
56.69
56.16
54.95
53.75
53.12
53.32
54.13
55.04
55.42
54.86
53.25
50.79
47.77
44.42
40.77
36.71
32.01
26.51
20.15
12.97
5.14
-3.04
-11.21
-19.02
-26.17
-32.58
-38.45
-44.24
-50.63
-58.37
-68.03
-79.74
-92.80
-105.60
-115.76
-120.64
-118.14
-107.48
-89.54
-66.69
-42.03
-18.46
1.99
18.53
31.22
40.64
47.35
51.77
54.21
55.08
55.01
54.76
54.97
55.98
57.63
59.35
60.43
60.42
59.23
57.26
55.07
53.09
51.35
49.47
46.81
42.85
37.45
30.99
24.22
17.93
12.69
8.56
5.10
1.57
-2.74
-8.24
-14.87
-22.21
-29.61
-36.56
-42.88
-48.74
-54.68
-61.41
-69.63
-79.81
-91.88
-104.96
-117.35
-126.59
-130.10
-125.94
-113.53
-94.01
-69.96
-44.69
-21.16
-1.36
14.01
25.27
33.13
38.29
41.20
42.19
41.64
40.14
38.44
37.32
37.24
38.26
40.05
42.04
43.64
44.41
44.14
42.83
40.64
37.77
34.34
30.42
25.94
20.82
14.96
8.42
1.41
-5.68
-12.41
-18.41
-23.60
-28.18
-32.70
-37.87
-44.33
-52.52
-62.31
-72.95
-82.96
-90.30
-92.87
-89.04
-78.32
-61.53
-40.79
-18.82
1.80
19.23
32.65
42.06
47.90
50.72
50.97
49.19
46.08
42.54
39.53
37.75
37.38
38.04
39.03
39.60
39.34
38.24
36.61
34.78
32.85
30.51
27.19
22.34
15.80
7.89
-0.56
-8.58
-15.47
-20.98
-25.50
-29.87
-35.15
-42.25
-51.60
-62.83
-74.63
-84.82
-90.79
-90.31
-82.16
-66.77
-46.07
-23.00
-0.53
19.16
35.21
47.93
58.20
66.91
74.32
80.17
83.85
84.93
83.45
79.92
75.11
69.70
64.04
58.09
51.62
44.52
36.93
29.31
22.22
16.10
10.96
6.43
1.83
-3.47
-9.79
-17.03
-24.73
-32.38
-39.66
-46.53
-53.23
-60.00
-67.01
-74.33
-82.13
-90.74
-100.58
-111.81
-123.86
-135.17
-143.28
-145.50
-139.88
-125.93
-105.00
-79.93
-54.09
-30.38
-10.51
5.15
17.14
26.27
33.15
37.98
40.74
41.59
40.99
39.81
38.98
39.18
40.59
42.84
45.23
46.99
47.65
47.11
45.64
43.62
41.31
38.75
35.71
31.88
26.91
20.67
13.17
4.77
-4.03
-12.63
-20.47
-27.24
-32.98
-38.18
-43.64
-50.36
-59.16
-70.33
-83.23
-96.11
-106.34
-111.04
-107.97
-96.34
-77.21
-53.14
-27.50
-3.35
17.23
33.44
45.52
54.15
60.07
63.72
65.46
65.63
64.75
63.49
62.47
62.09
62.34
62.87
63.12
62.56
60.90
58.14
54.52
50.41
46.17
41.94
37.66
33.03
27.69
21.30
13.73
5.11
-4.24
-13.79
-23.12
-31.84
-39.84
-47.26
-54.52
-62.25
-71.13
-81.71
-93.97
-107.03
-119.03
-127.38
-129.41
-123.31
-108.79
-87.27
-61.55
-34.93
-10.28
10.55
26.85
38.73
46.71
51.36
53.29
53.16
51.84
50.26
49.27
49.28
50.20
51.51
52.47
52.64
51.88
50.50
48.87
47.21
45.36
42.85
39.14
33.81
26.83
18.54
9.59
0.67
-7.58
-14.76
-20.81
-26.03
-31.10
-36.89
-44.17
-53.24
-63.49
-73.38
-80.68
-83.10
-79.11
-68.55
-52.70
-33.79
-14.24
4.18
20.69
35.23
47.91
58.58
66.57
71.17
72.14
70.09
66.40
62.75
60.44
59.88
60.58
61.48
61.51
60.05
57.12
53.23
49.00
44.80
40.52
35.63
29.37
21.29
11.43
0.46
-10.58
-20.63
-29.09
-35.98
-41.88
-47.84
-54.94
-64.13
-75.83
-89.66
-104.16
-116.87
-124.82
-125.28
-116.81
-99.78
-76.36
-49.87
-23.75
-0.61
18.26
32.77
43.61
51.60
57.43
61.51
64.12
65.58
66.33
66.87
67.58
68.65
69.93
71.04
71.49
70.87
69.03
66.18
62.72
59.09
55.46
51.62
47.01
40.98
33.16
23.74
13.39
3.17
-6.01
-13.71
-20.17
-26.16
-32.74
-40.85
-51.10
-63.63
-77.92
-92.81
-106.39
-116.22
-119.80
-115.32
-102.27
-81.84
-56.68
-30.16
-5.43
15.39
31.48
43.11
51.08
56.28
59.39
60.89
61.26
61.05
60.84
61.08
61.95
63.28
64.68
65.76
66.27
66.19
65.67
64.74
63.29
60.95
57.37
52.37
46.14
39.19
32.08
25.16
18.38
11.35
3.69
-4.76
-13.72
-22.62
-30.80
-37.92
-44.04
-49.74
-55.90
-63.54
-73.44
-85.84
-99.99
-114.07
-125.30
-130.62
-127.62
-115.39
-94.98
-69.08
-41.27
-14.92
7.66
25.52
38.82
48.29
54.72
58.70
60.72
61.31
61.24
61.31
62.17
64.02
66.47
68.79
70.25
70.45
69.49
67.91
66.29
64.91
63.57
61.61
58.26
53.01
45.91
37.66
29.33
22.02
16.37
12.29
9.04
5.55
0.86
-5.42
-13.03
-21.21
-29.07
-36.03
-41.96
-47.31
-52.83
-59.48
-68.04
-78.97
-91.98
-105.86
-118.36
-126.61
-127.81
-120.23
-103.86
-80.59
-53.65
-26.58
-2.30
17.52
32.50
43.12
50.24
54.69
57.18
58.31
58.71
58.91
59.32
60.03
60.94
61.74
62.20
62.25
61.98
61.54
60.96
60.04
58.38
55.62
51.58
46.46
40.71
34.86
29.25
23.93
18.61
12.83
6.30
-1.06
-8.98
-16.98
-24.59
-31.51
-37.86
-44.07
-50.92
-59.27
-69.71
-82.25
-95.89
-108.62
-117.70
-120.40
-114.91
-101.02
-80.30
-55.66
-30.44
-7.45
11.58
26.10
36.38
43.06
46.86
48.40
48.35
47.46
46.47
45.98
46.22
47.06
48.05
48.72
48.81
48.36
47.66
47.00
46.39
45.48
43.55
39.87
34.02
26.13
16.97
7.63
-0.84
-7.91
-13.75
-19.22
-25.50
-33.65
-44.23
-56.85
-70.17
-81.98
-89.68
-91.05
-84.87
-71.45
-52.58
-31.05
-9.78
8.94
23.91
34.95
42.52
47.22
49.53
49.80
48.42
46.02
43.47
41.60
40.94
41.44
42.47
43.10
42.58
40.68
37.80
34.72
32.05
29.89
27.64
24.25
18.81
11.04
1.47
-8.74
-18.29
-26.36
-32.88
-38.59
-44.65
-52.31
-62.27
-74.55
-88.15
-101.24
-111.35
-116.00
-113.35
-102.78
-85.21
-62.91
-38.98
-16.35
2.84
17.70
28.47
36.07
41.53
45.58
48.61
50.77
52.25
53.32
54.38
55.67
57.23
58.83
60.16
60.94
61.07
60.60
59.54
57.83
55.31
51.80
47.25
41.79
35.73
29.36
22.83
16.09
8.92
1.17
-7.12
-15.64
-23.96
-31.70
-38.80
-45.57
-52.68
-60.96
-71.13
-83.42
-97.25
-111.11
-122.58
-128.89
-127.65
-117.74
-99.79
-76.11
-49.99
-24.73
-2.76
14.79
27.93
37.34
43.83
48.05
50.44
51.43
51.55
51.45
51.71
52.62
54.12
55.81
57.20
57.86
57.66
56.69
55.20
53.34
51.04
48.02
43.98
38.76
32.51
25.67
18.77
12.18
5.93
-0.26
-6.82
-14.00
-21.75
-29.69
-37.33
-44.35
-50.79
-57.09
-64.05
-72.55
-83.23
-96.06
-110.05
-123.11
-132.40
-135.05
-129.11
-114.33
-92.36
-66.33
-39.82
-15.83
3.99
19.37
31.01
39.86
46.56
51.33
54.17
55.28
55.17
54.72
54.79
55.83
57.71
59.73
61.04
60.94
59.25
56.33
52.81
49.30
46.00
42.67
38.63
33.18
25.93
17.04
7.27
-2.35
-10.90
-17.88
-23.48
-28.43
-33.73
-40.33
-48.91
-59.67
-72.19
-85.26
-97.03
-105.11
-107.25
-101.90
-88.84
-69.34
-45.88
-21.45
1.22
20.23
34.75
44.83
51.02
54.12
54.93
54.27
52.93
51.62
50.91
51.03
51.82
52.86
53.57
53.56
52.73
51.28
49.48
47.44
44.95
41.49
36.49
29.63
21.04
11.35
1.40
-7.99
-16.37
-23.79
-30.79
-38.24
-47.12
-58.07
-71.05
-84.96
-97.59
-106.07
-107.64
-100.69
-85.36
-63.64
-38.69
-13.86
8.34
26.66
41.03
52.00
60.22
66.08
69.73
71.32
71.23
70.03
68.45
67.10
66.37
66.29
66.70
67.27
67.61
67.40
66.33
64.22
60.89
56.32
50.57
43.92
36.65
29.10
21.47
13.77
5.90
-2.27
-10.78
-19.45
-27.95
-35.94
-43.24
-50.00
-56.78
-64.41
-73.86
-85.76
-99.95
-115.11
-128.71
-137.49
-138.45
-129.85
-111.95
-87.14
-59.05
-31.52
-7.43
11.87
26.51
37.50
45.94
52.60
57.75
61.41
63.64
64.74
65.25
65.72
66.52
67.63
68.73
69.37
69.19
68.09
66.22
63.82
61.07
57.94
54.24
49.70
44.12
37.46
29.83
21.49
12.74
3.85
-4.92
-13.35
-21.26
-28.56
-35.34
-41.95
-49.04
-57.47
-67.97
-80.73
-94.96
-108.75
-119.34
-123.82
-120.09
-107.64
-87.81
-63.41
-37.80
-13.95
6.25
22.18
34.19
43.00
49.37
53.79
56.55
57.88
58.13
57.76
57.31
57.17
57.55
58.35
59.35
60.21
60.64
60.39
59.29
57.20
54.07
49.92
44.89
39.19
33.03
26.52
19.65
12.32
4.47
-3.85
-12.35
-20.65
-28.39
-35.38
-41.70
-47.80
-54.38
-62.30
-72.29
-84.55
-98.39
-112.02
-122.82
-127.97
-125.36
-114.34
-96.03
-72.92
-48.09
-24.30
-3.40
13.78
27.16
36.95
43.49
47.12
48.38
48.14
47.49
47.45
48.64
51.06
54.08
56.77
58.31
58.35
57.15
55.39
53.75
52.55
51.51
49.85
46.64
41.22
33.57
24.32
14.58
5.47
-2.26
-8.52
-13.88
-19.32
-25.96
-34.69
-45.84
-58.94
-72.58
-84.52
-92.12
-93.05
-86.01
-71.30
-50.86
-27.62
-4.72
15.41
31.55
43.63
52.26
58.27
62.15
64.13
64.30
62.93
60.62
58.21
56.49
55.88
56.32
57.25
57.87
57.53
55.85
52.92
49.07
44.66
39.91
34.84
29.29
23.10
16.21
8.72
0.89
-6.99
-14.64
-21.91
-28.74
-35.24
-41.65
-48.31
-55.80
-64.66
-75.28
-87.45
-100.04
-111.00
-117.68
-117.63
-109.39
-93.26
-71.19
-46.27
-21.75
-0.16
17.24
30.39
39.94
46.75
51.44
54.43
55.98
56.44
56.23
55.84
55.67
55.82
56.21
56.61
56.82
56.77
56.45
55.88
54.94
53.36
50.87
47.30
42.72
37.37
31.58
25.60
19.52
13.28
6.74
-0.24
-7.67
-15.46
-23.45
-31.43
-39.25
-46.87
-54.43
-62.31
-71.08
-81.26
-92.86
-105.03
-115.84
-122.61
-122.72
-114.54
-98.15
-75.52
-49.86
-24.63
-2.56
14.92
27.74
36.63
42.58
46.46
48.78
49.96
50.32
50.31
50.38
50.83
51.75
52.97
54.16
55.00
55.38
55.32
54.93
54.27
53.21
51.50
48.88
45.18
40.48
35.04
29.19
23.26
17.37
11.45
5.23
-1.54
-8.91
-16.70
-24.50
-31.84
-38.44
-44.33
-49.88
-55.70
-62.54
-71.01
-81.36
-93.17
-105.15
-115.10
-120.42
-118.80
-109.08
-91.79
-69.08
-44.07
-19.93
0.94
17.35
29.25
37.29
42.45
45.58
47.33
48.12
48.22
47.85
47.23
46.60
46.19
46.16
46.51
47.10
47.69
47.97
47.67
46.54
44.46
41.37
37.36
32.63
27.45
22.02
16.48
10.75
4.72
-1.80
-8.87
-16.32
-23.83
-30.97
-37.43
-43.14
-48.39
-53.81
-60.22
-68.41
-78.70
-90.59
-102.56
-112.19
-116.80
-114.26
-103.80
-86.33
-64.26
-40.71
-18.55
0.31
15.11
26.03
33.60
38.32
40.58
40.73
39.36
37.30
35.54
34.86
35.56
37.46
39.90
42.19
43.76
44.43
44.28
43.52
42.28
40.47
37.76
33.68
27.87
20.36
11.62
2.51
-6.03
-13.32
-19.22
-24.16
-28.95
-34.50
-41.53
-50.39
-60.92
-72.40
-83.43
-92.06
-96.09
-93.68
-84.01
-67.68
-46.70
-23.92
-2.27
16.03
29.82
39.05
44.28
46.36
46.06
44.00
40.79
37.10
33.59
30.82
29.08
28.32
28.20
28.28
28.25
27.89
27.11
25.73
23.43
19.76
14.37
7.22
-1.29
-10.35
-19.11
-26.96
-33.75
-39.91
-46.24
-53.66
-62.87
-73.99
-86.32
-98.26
-107.44
-111.30
-107.83
-96.31
-77.71
-54.51
-29.91
-6.88
12.68
28.19
40.07
49.15
56.07
61.14
64.44
66.13
66.56
66.22
65.47
64.29
62.36
59.29
55.07
50.26
45.88
43.02
42.17
42.82
43.54
42.41
37.81
29.08
16.75
2.35
-12.27
-25.63
-37.09
-46.88
-55.89
-65.25
-75.94
-88.48
-102.64
-117.22
-130.13
-138.66
-140.25
-133.25
-117.67
-95.26
-69.06
-42.49
-18.31
1.91
17.91
30.23
39.67
46.83
51.98
55.20
56.70
56.94
56.65
56.59
57.27
58.73
60.59
62.22
62.98
62.54
60.91
58.37
55.29
51.97
48.40
44.36
39.48
33.45
26.16
17.87
9.04
0.30
-7.90
-15.38
-22.30
-29.14
-36.59
-45.40
-56.21
-69.25
-83.99
-98.87
-111.42
-118.73
-118.23
-108.67
-90.64
-66.43
-39.45
-13.09
10.14
29.06
43.67
54.60
62.59
68.07
71.20
72.10
71.15
69.11
66.99
65.65
65.52
66.38
67.48
67.98
67.21
65.04
61.79
58.02
54.19
50.42
46.41
41.64
35.60
28.04
19.11
9.31
-0.62
-10.00
-18.39
-25.81
-32.67
-39.65
-47.55
-57.03
-68.50
-81.81
-96.04
-109.47
-119.64
-123.99
-120.53
-108.53
-88.94
-64.11
-37.12
-10.92
12.37
31.62
46.46
57.00
63.51
66.41
66.40
64.53
62.08
60.23
59.73
60.62
62.35
63.98
64.66
63.91
61.75
58.61
55.01
51.33
47.58
43.48
38.54
32.37
24.87
16.25
7.10
-1.88
-10.11
-17.29
-23.55
-29.45
-35.84
-43.61
-53.51
-65.77
-79.91
-94.43
-107.00
-114.86
-115.54
-107.64
-91.42
-68.81
-42.86
-16.86
6.50
25.68
40.25
50.58
57.35
61.26
62.87
62.79
61.63
60.06
58.64
57.73
57.35
57.30
57.28
57.06
56.53
55.63
54.28
52.21
49.03
44.31
37.82
29.68
20.39
10.74
1.52
-6.70
-13.85
-20.44
-27.42
-35.92
-46.69
-59.70
-73.67
-86.29
-94.60
-95.88
-88.67
-73.26
-51.76
-27.35
-3.35
17.78
34.78
47.56
56.58
62.39
65.32
65.64
63.88
60.94
58.05
56.32
56.28
57.71
59.69
61.11
61.16
59.66
56.99
53.78
50.46
46.99
42.83
37.25
29.73
20.24
9.30
-2.20
-13.28
-23.18
-31.59
-38.68
-45.03
-51.56
-59.33
-69.16
-81.29
-94.84
-107.76
-117.14
-119.98
-114.32
-99.99
-78.80
-53.92
-28.85
-6.32
12.35
27.12
38.74
48.00
55.27
60.53
63.63
64.62
64.02
62.63
61.37
60.93
61.49
62.79
64.15
64.80
64.20
62.21
59.09
55.41
51.65
48.00
44.23
39.75
33.96
26.52
17.64
7.98
-1.55
-10.18
-17.52
-23.71
-29.36
-35.32
-42.52
-51.63
-62.97
-76.21
-90.22
-103.08
-112.26
-115.31
-110.57
-97.78
-78.26
-54.61
-29.89
-6.82
12.83
28.35
39.89
48.03
53.45
56.72
58.34
58.76
58.47
57.93
57.49
57.29
57.29
57.32
57.24
56.97
56.52
55.97
55.24
54.09
52.11
48.91
44.29
38.43
31.83
25.17
19.09
13.93
9.73
6.16
2.75
-1.05
-5.72
-11.58
-18.76
-27.18
-36.69
-47.18
-58.68
-71.32
-85.11
-99.49
-113.13
-123.91
-129.39
-127.54
-117.54
-100.17
-77.69
-53.19
-29.70
-9.36
6.85
19.00
27.75
33.87
37.90
40.21
41.14
41.26
41.33
42.08
43.95
46.84
50.19
53.22
55.29
56.23
56.28
55.91
55.50
55.03
54.11
52.11
48.51
43.21
36.64
29.59
22.93
17.18
12.35
7.97
3.28
-2.38
-9.27
-17.19
-25.56
-33.69
-41.11
-47.72
-53.87
-60.28
-67.86
-77.39
-89.19
-102.71
-116.40
-127.73
-133.87
-132.45
-122.45
-104.62
-81.32
-55.79
-31.14
-9.56
8.00
21.56
31.63
38.74
43.21
45.37
45.65
44.78
43.64
43.10
43.71
45.50
48.09
50.78
52.90
53.91
53.69
52.40
50.37
47.88
45.02
41.58
37.21
31.60
24.68
16.74
8.35
0.22
-7.12
-13.44
-18.88
-23.85
-28.90
-34.63
-41.54
-49.95
-59.80
-70.44
-80.43
-87.70
-90.02
-85.68
-74.16
-56.49
-34.99
-12.57
8.07
25.21
38.20
47.30
53.15
56.33
57.23
56.15
53.53
50.04
46.62
44.09
42.97
43.23
44.37
45.57
46.06
45.39
43.53
40.76
37.51
34.03
30.30
25.91
20.36
13.28
4.72
-4.79
-14.42
-23.38
-31.19
-37.89
-43.99
-50.24
-57.47
-66.33
-77.13
-89.53
-102.36
-113.58
-120.56
-120.79
-112.78
-96.68
-74.43
-49.19
-24.36
-2.59
14.70
27.37
36.09
41.77
45.14
46.71
46.86
46.05
44.83
43.79
43.37
43.78
44.90
46.42
47.98
49.31
50.25
50.75
50.73
49.97
48.15
45.00
40.44
34.71
28.29
21.66
15.10
8.56
1.78
-5.54
-13.48
-21.86
-30.34
-38.57
-46.37
-53.81
-61.15
-68.87
-77.63
-88.12
-100.75
-115.19
-129.92
-142.27
-148.88
-146.83
-134.78
-113.52
-85.99
-56.23
-28.13
-4.39
13.98
27.37
36.84
43.42
47.80
50.28
51.17
50.89
50.16
49.74
50.20
51.73
54.08
56.69
58.96
60.40
60.71
59.85
57.84
54.78
50.76
45.79
39.92
33.19
25.74
17.76
9.45
0.99
-7.51
-15.94
-24.21
-32.11
-39.47
-46.20
-52.48
-58.86
-66.23
-75.55
-87.32
-101.13
-115.31
-127.14
-133.47
-131.74
-120.85
-101.64
-76.66
-49.37
-23.13
-0.34
17.86
31.46
41.06
47.38
51.01
52.40
52.15
50.98
49.81
49.46
50.39
52.46
55.01
57.12
58.06
57.56
55.80
53.23
50.25
46.91
42.89
37.70
30.87
22.21
12.02
0.93
-10.20
-20.56
-29.68
-37.52
-44.52
-51.51
-59.44
-69.17
-81.16
-95.14
-109.84
-123.07
-131.94
-133.65
-126.37
-110.06
-86.54
-59.06
-31.22
-5.93
15.15
31.67
43.98
52.54
57.66
59.58
58.76
56.15
53.06
50.73
49.89
50.46
51.69
52.59
52.43
51.04
48.83
46.43
44.27
42.24
39.71
35.75
29.64
21.26
11.13
0.32
-10.05
-19.19
-26.91
-33.72
-40.58
-48.61
-58.78
-71.53
-86.45
-102.03
-115.67
-124.18
-124.61
-115.24
-96.37
-70.30
-40.77
-11.79
13.43
33.20
47.39
56.86
62.80
66.19
67.66
67.62
66.48
64.69
62.68
60.81
59.20
57.81
56.55
55.33
54.04
52.52
50.43
47.30
42.65
36.14
27.78
17.89
7.04
-4.06
-14.77
-24.70
-33.86
-42.82
-52.56
-64.10
-77.89
-93.20
-107.90
-118.77
-122.48
-116.70
-101.03
-77.27
-48.79
-19.51
7.33
29.79
47.35
60.38
69.58
75.50
78.51
78.99
77.62
75.38
73.30
72.13
71.96
72.27
72.25
71.16
68.85
65.60
61.95
58.20
54.17
49.20
42.44
33.38
22.14
9.55
-3.20
-14.96
-25.14
-33.92
-42.25
-51.46
-62.83
-77.03
-93.71
-111.22
-126.77
-136.95
-138.68
-130.17
-111.57
-85.12
-54.49
-23.60
4.38
27.77
46.36
60.80
71.98
80.49
86.54
90.23
91.79
91.77
90.90
89.94
89.31
89.05
88.76
87.84
85.84
82.59
78.40
73.78
69.17
64.53
59.36
52.78
44.11
33.20
20.73
7.90
-4.02
-14.19
-22.53
-29.74
-36.93
-45.38
-56.15
-69.81
-86.03
-103.37
-119.22
-130.17
-133.01
-125.71
-108.29
-82.94
-53.31
-23.34
3.87
26.74
45.09
59.53
70.83
79.45
85.58
89.40
91.31
92.01
92.28
92.73
93.58
94.63
95.46
95.68
95.13
93.93
92.28
90.29
87.82
84.45
79.66
73.07
64.67
54.98
44.87
35.28
26.85
19.57
12.86
5.81
-2.38
-12.01
-22.70
-33.63
-43.86
-52.75
-60.25
-66.94
-73.96
-82.61
-93.99
-108.37
-124.76
-140.69
-152.66
-156.97
-150.99
-134.14
-108.20
-76.84
-44.42
-14.71
10.01
29.19
43.52
54.20
62.26
68.29
72.52
75.14
76.56
77.42
78.34
79.60
81.14
82.47
83.09
82.79
81.75
80.42
79.16
78.00
76.48
73.89
69.65
63.63
56.26
48.34
40.68
33.75
27.50
21.43
14.88
7.36
-1.28
-10.69
-20.27
-29.30
-37.34
-44.32
-50.70
-57.34
-65.32
-75.53
-88.29
-102.91
-117.48
-129.18
-134.81
-131.88
-119.38
-98.33
-71.52
-42.66
-15.26
8.21
26.77
40.60
50.50
57.35
61.75
64.10
64.77
64.27
63.33
62.64
62.66
63.39
64.38
64.96
64.57
62.99
60.46
57.48
54.50
51.66
48.58
44.61
39.18
32.03
23.51
14.44
5.78
-1.72
-7.81
-12.82
-17.58
-23.10
-30.35
-39.83
-51.35
-63.83
-75.30
-83.30
-85.45
-80.24
-67.58
-49.02
-27.22
-5.24
14.37
30.19
41.87
49.78
54.49
56.42
55.88
53.35
49.66
45.90
43.16
42.01
42.35
43.38
44.09
43.64
41.79
38.86
35.47
32.07
28.74
25.06
20.46
14.41
6.82
-1.94
-11.18
-20.15
-28.31
-35.62
-42.43
-49.39
-57.26
-66.66
-77.78
-90.16
-102.46
-112.54
-117.87
-116.33
-106.90
-90.22
-68.45
-44.64
-21.87
-2.35
13.01
24.40
32.69
38.76
43.23
46.30
47.98
48.34
47.70
46.65
45.86
45.82
46.66
48.10
49.57
50.40
50.18
48.72
46.15
42.78
38.92
34.81
30.45
25.66
20.17
13.76
6.43
-1.52
-9.62
-17.30
-24.21
-30.27
-35.73
-41.01
-46.57
-52.86
-60.28
-69.12
-79.32
-90.10
-99.89
-106.39
-107.22
-100.75
-86.86
-67.15
-44.54
-22.22
-2.78
12.51
23.65
31.48
37.00
40.95
43.67
45.29
45.93
45.94
45.77
45.81
46.21
46.84
47.39
47.57
47.31
46.70
45.90
44.91
43.46
41.11
37.48
32.54
26.65
20.49
14.66
9.44
4.66
-0.21
-5.75
-12.28
-19.73
-27.59
-35.19
-41.99
-47.77
-52.82
-57.84
-63.80
-71.59
-81.62
-93.40
-105.37
-115.13
-119.99
-117.86
-108.01
-91.36
-70.30
-47.86
-26.81
-8.96
5.00
15.32
22.71
27.88
31.39
33.59
34.82
35.45
35.88
36.48
37.44
38.69
39.90
40.65
40.57
39.51
37.61
35.23
32.74
30.35
27.97
25.22
21.61
16.77
10.64
3.48
-4.19
-11.76
-18.74
-24.80
-29.85
-34.08
-37.97
-42.26
-47.81
-55.37
-65.15
-76.49
-87.72
-96.42
-100.09
-96.96
-86.58
-70.03
-49.62
-28.09
-7.96
9.08
22.23
31.46
37.18
39.98
40.59
39.79
38.43
37.34
37.10
37.95
39.66
41.72
43.45
44.35
44.35
43.81
43.39
43.69
44.81
46.19
46.67
45.00
40.29
32.53
22.55
11.78
1.63
-7.05
-14.26
-20.83
-28.07
-37.36
-49.55
-64.44
-80.64
-95.61
-106.26
-109.90
-105.14
-92.44
-74.01
-53.09
-32.88
-15.63
-2.28
7.37
14.13
18.78
21.75
23.19
23.22
22.25
20.97
20.28
20.89
23.08
26.50
30.33
33.59
35.48
35.68
34.42
32.26
29.87
27.62
25.45
22.92
19.44
14.66
8.61
1.76
-5.29
-11.99
-18.14
-23.86
-29.48
-35.40
-42.01
-49.65
-58.58
-68.91
-80.28
-91.63
-101.14
-106.56
-105.77
-97.63
-82.49
-62.23
-39.78
-18.12
0.46
14.95
25.59
33.30
39.11
43.71
47.31
49.88
51.41
52.12
52.42
52.72
53.20
53.77
54.19
54.22
53.71
52.65
51.04
48.80
45.83
42.05
37.51
32.34
26.71
20.65
14.05
6.75
-1.27
-9.79
-18.41
-26.68
-34.36
-41.42
-48.14
-54.87
-62.15
-70.47
-80.34
-92.03
-105.19
-118.57
-129.90
-136.34
-135.36
-125.60
-107.57
-83.54
-56.83
-30.82
-8.01
10.44
24.51
34.93
42.58
48.11
51.98
54.50
56.05
57.05
57.90
58.91
60.12
61.38
62.42
62.99
62.91
62.17
60.79
58.78
56.11
52.67
48.41
43.34
37.58
31.32
24.69
17.74
10.45
2.77
-5.26
-13.49
-21.67
-29.48
-36.73
-43.47
-50.11
-57.39
-66.26
-77.50
-91.25
-106.58
-121.36
-132.55
-137.02
-132.53
-118.57
-96.58
-69.54
-41.05
-14.31
8.61
26.88
40.62
50.42
56.88
60.54
62.03
62.25
62.38
63.65
66.84
71.98
78.15
83.85
87.52
88.15
85.61
80.52
73.95
66.84
59.76
52.73
45.43
37.49
28.68
19.03
8.85
-1.41
-11.26
-20.42
-28.87
-36.96
-45.35
-54.79
-65.93
-78.94
-93.26
-107.40
-119.06
-125.54
-124.50
-114.74
-96.70
-72.54
-45.49
-18.90
4.63
23.79
38.53
49.41
57.09
61.93
64.11
63.98
62.32
60.31
59.22
59.82
62.04
65.06
67.67
68.83
68.08
65.69
62.35
58.77
55.35
51.89
47.77
42.17
34.52
24.80
13.61
1.96
-9.02
-18.61
-26.69
-33.79
-40.96
-49.39
-60.14
-73.65
-89.43
-105.79
-119.97
-128.69
-129.09
-119.72
-101.17
-76.06
-48.11
-21.10
2.28
20.92
35.12
45.87
54.22
60.78
65.65
68.70
69.90
69.56
68.39
67.17
66.54
66.71
67.32
67.69
67.17
65.39
62.50
59.00
55.47
52.15
48.79
44.65
38.89
30.94
20.88
9.44
-2.25
-13.10
-22.42
-30.19
-36.99
-43.74
-51.41
-60.89
-72.72
-86.90
-102.58
-117.87
-129.96
-135.68
-132.47
-119.41
-97.65
-70.21
-40.98
-13.56
9.75
28.16
42.08
52.39
59.91
65.10
68.19
69.43
69.33
68.60
68.07
68.31
69.41
70.98
72.28
72.57
71.37
68.73
65.07
60.97
56.83
52.63
47.92
42.15
34.92
26.27
16.65
6.72
-2.84
-11.64
-19.58
-26.83
-33.75
-40.81
-48.53
-57.37
-67.65
-79.19
-91.16
-101.98
-109.52
-111.65
-106.85
-94.78
-76.50
-54.25
-30.87
-8.92
9.98
25.49
38.29
49.50
59.86
69.42
77.51
83.21
86.00
86.00
84.00
81.09
78.13
75.57
73.36
71.19
68.65
65.43
61.36
56.45
50.81
44.61
38.05
31.26
24.24
16.87
9.02
0.68
-8.01
-16.70
-24.99
-32.56
-39.29
-45.29
-50.89
-56.64
-63.26
-71.53
-82.02
-94.65
-108.27
-120.55
-128.41
-128.81
-119.90
-101.73
-76.40
-47.35
-18.36
7.52
28.56
44.31
55.16
61.83
65.06
65.62
64.33
62.24
60.40
59.64
60.26
61.96
63.97
65.48
65.96
65.30
63.80
61.79
59.37
56.26
51.87
45.64
37.37
27.40
16.53
5.79
-3.99
-12.51
-20.06
-27.44
-35.69
-45.71
-57.92
-71.95
-86.42
-99.06
-107.17
-108.21
-100.76
-85.03
-63.00
-37.88
-13.12
8.48
25.40
37.44
45.21
49.57
51.23
50.68
48.40
45.06
41.55
38.76
37.28
37.17
38.00
39.06
39.79
40.01
39.90
39.73
39.58
39.05
37.32
33.47
26.91
17.74
6.77
-4.63
-15.12
-23.85
-30.77
-36.70
-43.01
-51.19
-62.21
-76.01
-91.25
-105.33
-115.05
-117.47
-110.83
-95.24
-72.60
-46.10
-19.23
5.14
25.31
40.80
51.91
59.36
63.84
65.97
66.39
65.70
64.58
63.57
63.00
62.83
62.73
62.23
60.98
58.93
56.33
53.63
51.18
48.92
46.36
42.71
37.12
29.21
19.18
7.87
-3.57
-14.05
-22.98
-30.45
-37.17
-44.30
-53.02
-64.16
-77.83
-93.06
-107.81
-119.24
-124.41
-121.12
-108.74
-88.47
-63.07
-36.06
-10.71
10.75
27.49
39.82
48.66
55.00
59.53
62.63
64.50
65.36
65.56
65.55
65.66
66.03
66.49
66.68
66.25
64.91
62.61
59.47
55.70
51.49
46.94
41.99
36.45
30.08
22.67
14.28
5.27
-3.84
-12.41
-20.03
-26.63
-32.57
-38.47
-45.11
-53.25
-63.47
-75.98
-90.32
-105.11
-118.07
-126.40
-127.48
-119.81
-103.60
-80.82
-54.67
-28.55
-5.16
14.02
28.71
39.38
46.59
50.85
52.51
52.03
50.17
47.94
46.35
46.02
46.96
48.61
50.02
50.40
49.38
47.18
44.43
41.79
39.52
37.31
34.36
29.76
22.97
14.10
3.99
-6.15
-15.22
-22.68
-28.72
-34.23
-40.40
-48.33
-58.66
-71.19
-84.75
-97.27
-106.17
-108.99
-104.12
-91.38
-72.16
-49.03
-25.06
-2.93
15.59
29.77
39.78
46.16
49.55
50.56
49.79
47.87
45.53
43.46
42.11
41.68
42.00
42.70
43.30
43.41
42.68
40.85
37.74
33.17
27.17
19.95
11.94
3.66
-4.35
-11.82
-18.84
-25.90
-33.84
-43.54
-55.49
-69.26
-83.31
-95.04
-101.46
-100.13
-90.03
-72.06
-48.74
-23.50
0.39
20.61
36.06
46.78
53.48
57.06
58.40
58.26
57.20
55.68
54.07
52.61
51.44
50.56
49.88
49.20
48.36
47.25
45.81
43.93
41.37
37.75
32.58
25.68
17.39
8.84
1.65
-2.71
-3.70
-2.38
-1.40
-4.21
-13.76
-31.25
-55.40
-82.72
-108.47
-128.09
-138.38
-138.12
-128.10
-110.71
-89.25
-67.15
-47.25
-31.27
-19.50
-11.06
-4.46
1.65
7.88
14.03
19.42
23.48
26.14
27.87
29.31
30.86
32.44
33.58
33.83
33.10
31.71
30.23
28.96
27.70
25.69
21.93
15.77
7.27
-2.76
-12.94
-22.02
-29.26
-34.79
-39.53
-44.84
-52.03
-61.95
-74.65
-89.24
-103.85
-115.86
-122.44
-121.26
-111.34
-93.37
-69.65
-43.46
-17.99
4.46
22.88
37.30
48.33
56.58
62.40
66.03
67.77
68.18
68.01
67.97
68.49
69.59
70.95
72.14
72.84
72.93
72.53
71.78
70.72
69.12
66.62
62.86
57.71
51.38
44.37
37.31
30.63
24.42
18.39
12.01
4.74
-3.62
-12.85
-22.36
-31.37
-39.32
-46.12
-52.30
-58.91
-67.23
-78.25
-92.18
-107.98
-123.35
-135.08
-139.86
-135.37
-121.10
-98.65
-71.26
-42.76
-16.43
5.79
23.45
37.13
47.73
55.96
62.08
66.19
68.50
69.55
70.12
70.97
72.47
74.51
76.54
77.95
78.34
77.71
76.43
74.86
73.20
71.30
68.79
65.32
60.78
55.31
49.23
42.88
36.47
30.08
23.77
17.65
11.86
6.51
1.51
-3.47
-8.84
-14.98
-22.00
-29.73
-37.72
-45.49
-52.66
-59.09
-65.00
-70.86
-77.48
-85.71
-96.19
-108.89
-122.70
-135.34
-143.78
-145.05
-137.25
-120.29
-95.98
-67.51
-38.48
-11.93
10.24
27.45
40.00
48.66
54.27
57.54
59.09
59.56
59.55
59.65
60.30
61.69
63.72
66.09
68.40
70.33
71.68
72.41
72.51
71.92
70.48
67.96
64.21
59.22
53.24
46.68
39.95
33.29
26.70
20.05
13.23
6.31
-0.48
-6.90
-12.81
-18.44
-24.35
-31.35
-40.20
-51.42
-64.79
-79.17
-92.40
-101.67
-104.18
-98.15
-83.47
-61.89
-36.61
-11.23
11.23
29.06
41.87
50.25
55.08
57.11
56.86
54.72
51.33
47.59
44.59
43.19
43.69
45.74
48.40
50.59
51.44
50.66
48.47
45.42
42.03
38.52
34.72
30.17
24.43
17.24
8.78
-0.40
-9.53
-17.95
-25.23
-31.40
-36.89
-42.40
-48.85
-57.01
-67.37
-79.74
-93.03
-105.23
-113.71
-115.87
-109.96
-95.78
-74.83
-50.02
-24.69
-1.73
17.15
31.53
41.91
49.12
53.78
56.23
56.58
55.23
52.93
50.73
49.59
49.98
51.62
53.62
54.92
54.69
52.69
49.27
45.13
40.92
36.96
33.14
28.97
23.88
17.47
9.71
0.96
-8.11
-16.81
-24.61
-31.36
-37.37
-43.31
-50.09
-58.60
-69.39
-82.29
-96.20
-109.05
-118.16
-120.91
-115.57
-101.89
-81.31
-56.57
-30.90
-7.20
12.62
27.88
38.84
46.24
50.87
53.28
53.85
52.94
51.15
49.30
48.18
48.34
49.71
51.69
53.30
53.65
52.24
49.22
45.20
41.03
37.28
33.99
30.63
26.33
20.32
12.35
2.81
-7.36
-17.15
-25.88
-33.40
-40.13
-46.79
-54.13
-62.76
-73.10
-85.14
-98.30
-111.09
-121.22
-126.02
-123.23
-111.87
-92.73
-68.19
-41.58
-16.15
5.75
22.99
35.54
44.05
49.32
52.07
52.84
52.17
50.60
48.83
47.57
47.35
48.34
50.23
52.38
54.00
54.50
53.66
51.63
48.82
45.53
41.86
37.53
32.08
25.14
16.62
6.92
-3.24
-12.98
-21.65
-29.03
-35.43
-41.51
-48.12
-56.04
-65.80
-77.60
-90.96
-104.65
-116.54
-123.93
-124.22
-115.81
-98.80
-75.11
-48.08
-21.35
2.09
20.61
33.97
42.86
48.26
51.05
51.86
51.24
49.79
48.21
47.16
47.00
47.66
48.73
49.67
50.11
49.93
49.22
48.03
46.22
43.38
38.97
32.65
24.46
14.94
4.94
-4.66
-13.32
-21.07
-28.54
-36.80
-46.85
-59.03
-72.54
-85.33
-94.43
-96.95
-91.03
-76.61
-55.50
-30.85
-6.19
15.64
32.96
45.38
53.35
57.77
59.47
59.14
57.35
54.64
51.59
48.74
46.53
45.07
44.16
43.39
42.32
40.71
38.52
35.87
32.79
29.08
24.31
17.98
9.83
0.07
-10.60
-21.16
-30.67
-38.63
-45.25
-51.46
-58.66
-68.12
-80.40
-94.70
-108.79
-119.36
-122.99
-117.37
-102.12
-79.07
-51.67
-23.82
1.26
21.80
37.56
49.29
58.00
64.47
68.97
71.58
72.39
71.78
70.38
68.96
68.13
68.10
68.63
69.10
68.85
67.40
64.67
60.98
56.83
52.67
48.68
44.80
40.76
36.30
31.22
25.37
18.62
10.83
1.91
-8.10
-19.05
-30.79
-43.26
-56.62
-71.17
-87.13
-104.20
-121.34
-136.58
-147.38
-151.17
-146.15
-131.99
-110.00
-82.96
-54.34
-27.37
-4.24
14.10
27.86
37.78
44.66
49.13
51.67
52.77
53.10
53.38
54.24
55.93
58.25
60.68
62.71
64.04
64.68
64.78
64.39
63.27
60.98
57.18
51.76
45.08
37.79
30.55
23.74
17.31
10.87
3.89
-3.92
-12.51
-21.46
-30.13
-38.07
-45.18
-51.89
-59.06
-67.78
-78.99
-93.02
-109.12
-125.32
-138.54
-145.32
-142.81
-129.79
-107.31
-78.38
-47.15
-17.59
7.50
26.98
41.14
50.97
57.56
61.71
63.92
64.63
64.39
63.90
63.83
64.63
66.33
68.60
70.91
72.75
73.75
73.79
72.91
71.15
68.54
65.04
60.56
55.11
48.74
41.53
33.60
25.00
15.85
6.38
-3.09
-12.10
-20.34
-27.64
-34.19
-40.49
-47.36
-55.70
-66.25
-79.21
-93.87
-108.43
-120.16
-126.03
-123.59
-111.85
-91.75
-65.96
-38.03
-11.40
11.50
29.59
42.89
52.05
57.79
60.67
61.19
60.01
58.01
56.21
55.49
56.15
57.87
59.81
61.12
61.27
60.22
58.40
56.24
53.90
51.04
46.99
41.08
33.03
23.17
12.39
1.84
-7.56
-15.42
-22.06
-28.36
-35.51
-44.56
-56.15
-70.21
-85.61
-100.21
-111.03
-114.93
-109.46
-93.84
-69.47
-39.74
-9.11
18.27
39.52
53.65
61.26
63.77
62.72
59.34
54.66
49.68
45.56
43.38
43.83
46.81
51.34
55.86
58.90
59.42
57.24
52.84
47.04
40.65
34.22
27.93
21.69
15.30
8.53
1.23
-6.62
-14.86
-23.15
-31.05
-38.14
-44.18
-49.29
-54.01
-59.21
-65.97
-75.26
-87.53
-102.23
-117.59
-130.61
-137.73
-135.88
-123.52
-101.31
-72.03
-39.66
-8.20
19.41
41.82
59.03
71.85
81.26
87.97
92.48
95.11
96.21
96.21
95.60
94.81
94.18
93.84
93.70
93.52
92.95
91.56
89.04
85.22
80.11
73.86
66.70
58.81
50.29
41.16
31.37
20.90
9.82
-1.69
-13.33
-24.78
-35.70
-45.91
-55.33
-64.16
-72.84
-82.03
-92.53
-104.87
-118.89
-133.29
-145.62
-152.67
-151.46
-140.29
-119.49
-91.48
-60.05
-29.20
-2.04
19.84
36.34
48.29
56.82
62.82
66.82
69.09
69.89
69.68
69.10
68.77
69.13
70.16
71.44
72.34
72.23
70.77
67.91
63.88
58.99
53.50
47.55
41.14
34.17
26.55
18.18
9.05
-0.75
-10.97
-21.22
-31.06
-40.12
-48.23
-55.57
-62.65
-70.29
-79.44
-90.81
-104.35
-118.92
-132.22
-141.19
-142.84
-135.30
-118.52
-94.39
-66.18
-37.46
-11.19
10.90
28.23
40.96
49.53
54.44
56.26
55.79
54.11
52.40
51.59
52.09
53.66
55.60
57.10
57.57
56.85
55.18
52.98
50.55
47.90
44.59
39.96
33.38
24.62
14.00
2.46
-8.80
-18.68
-26.59
-32.73
-38.04
-43.91
-51.77
-62.46
-75.79
-90.25
-103.22
-111.54
-112.39
-104.23
-87.37
-63.87
-37.01
-10.22
13.72
33.20
47.76
57.64
63.40
65.64
64.98
62.23
58.37
54.44
51.34
49.51
48.85
48.87
48.96
48.70
48.02
47.08
45.98
44.54
42.16
38.03
31.52
22.55
11.73
0.12
-11.09
-21.14
-29.98
-38.31
-47.27
-58.11
-71.53
-87.30
-103.87
-118.44
-127.61
-128.31
-118.91
-99.93
-73.97
-44.93
-16.71
7.78
27.19
41.49
51.41
57.73
61.11
62.03
61.11
59.22
57.35
56.34
56.54
57.69
59.04
59.73
59.20
57.35
54.58
51.45
48.34
45.07
40.98
35.15
26.88
16.10
3.53
-9.61
-21.95
-32.51
-41.07
-48.15
-54.88
-62.66
-72.66
-85.34
-100.01
-114.61
-125.94
-130.58
-125.89
-111.13
-87.78
-59.14
-29.26
-1.68
21.39
39.31
52.53
61.90
68.08
71.47
72.24
70.81
67.87
64.43
61.49
59.76
59.40
59.97
60.68
60.76
59.85
58.04
55.76
53.43
51.09
48.37
44.55
38.94
31.17
21.38
10.21
-1.41
-12.54
-22.47
-30.90
-37.98
-44.24
-50.56
-57.95
-67.36
-79.32
-93.56
-108.59
-121.74
-129.61
-129.05
-118.19
-97.34
-69.00
-37.19
-6.13
20.88
42.24
57.91
68.86
76.35
81.42
84.88
87.35
89.43
91.55
93.82
95.91
97.07
96.41
93.18
86.99
77.87
66.21
52.71
38.30
24.07
11.15
0.33
-8.25
-15.16
-21.49
-28.33
-36.27
-45.08
-53.99
-62.07
-68.77
-74.25
-79.26
-84.89
-92.08
-101.42
-112.85
-125.64
-138.17
-148.05
-152.57
-149.26
-136.85
-115.77
-88.26
-57.69
-27.65
-0.97
20.76
37.20
48.85
56.43
60.69
62.24
61.73
59.94
57.79
56.08
55.32
55.54
56.28
56.87
56.77
55.80
54.18
52.33
50.42
48.16
44.86
39.71
32.27
22.80
12.19
1.62
-7.92
-16.04
-23.08
-29.95
-37.84
-47.74
-60.03
-74.14
-88.33
-99.91
-105.79
-103.49
-91.93
-72.04
-46.50
-18.96
7.03
28.94
45.64
57.18
64.28
67.77
68.29
66.40
62.67
57.93
53.15
49.27
46.95
46.26
46.83
47.90
48.71
48.59
47.10
43.95
38.92
31.96
23.17
13.00
2.12
-8.67
-18.78
-28.04
-36.81
-45.89
-56.25
-68.57
-82.83
-97.96
-111.73
-121.19
-123.37
-116.27
-99.64
-75.23
-46.38
-16.96
9.57
31.05
46.74
57.03
62.86
65.29
65.34
63.83
61.57
59.22
57.19
55.60
54.31
53.06
51.68
50.20
48.73
47.34
45.84
43.76
40.44
35.26
27.90
18.45
7.50
-4.09
-15.33
-25.50
-34.39
-42.43
-50.72
-60.60
-73.12
-88.35
-104.91
-119.92
-129.80
-131.22
-122.39
-103.68
-77.57
-47.90
-18.64
7.13
27.81
43.13
53.62
60.07
63.19
63.65
62.20
59.82
57.49
56.05
55.81
56.51
57.47
57.91
57.37
55.83
53.69
51.38
49.03
46.28
42.33
36.30
27.74
16.91
4.78
-7.30
-18.13
-27.12
-34.50
-41.28
-48.87
-58.67
-71.42
-86.84
-103.27
-117.80
-126.89
-127.41
-117.71
-98.37
-72.06
-42.74
-14.30
10.50
30.48
45.78
57.10
65.03
69.77
71.40
70.24
67.15
63.40
60.31
58.76
58.82
59.89
60.97
61.12
59.77
56.96
53.12
48.85
44.53
40.13
35.19
29.03
21.15
11.54
0.72
-10.34
-20.67
-29.64
-37.20
-43.85
-50.40
-57.73
-66.66
-77.78
-91.29
-106.66
-122.38
-135.84
-143.82
-143.35
-132.85
-112.71
-85.41
-54.69
-24.40
2.51
24.54
41.41
53.54
61.52
65.87
67.11
66.08
63.87
61.73
60.60
60.83
62.05
63.48
64.26
63.91
62.43
60.22
57.73
55.10
52.05
47.92
42.05
34.07
24.25
13.42
2.71
-6.89
-14.93
-21.71
-28.24
-35.81
-45.60
-58.11
-72.75
-87.73
-100.20
-106.98
-105.41
-94.34
-74.62
-48.95
-21.07
5.32
27.60
44.62
56.51
64.06
68.13
69.34
68.18
65.25
61.44
57.87
55.46
54.62
55.08
56.05
56.64
56.33
55.10
53.30
51.28
49.01
45.95
41.28
34.33
24.90
13.57
1.42
-10.26
-20.51
-29.01
-36.19
-43.10
-51.11
-61.43
-74.60
-89.94
-105.43
-117.94
-124.02
-121.01
-107.96
-86.07
-58.32
-28.55
-0.29
24.06
43.41
57.77
67.64
73.59
76.09
75.64
72.98
69.07
65.07
61.99
60.47
60.59
61.89
63.54
64.61
64.42
62.66
59.47
55.31
50.67
45.79
40.56
34.52
27.15
18.15
7.64
-3.80
-15.33
-26.18
-35.87
-44.31
-51.84
-59.03
-66.68
-75.66
-86.75
-100.22
-115.45
-130.53
-142.43
-147.66
-143.42
-128.63
-104.49
-74.14
-41.69
-10.96
15.47
36.57
52.59
64.33
72.66
78.20
81.40
82.73
82.81
82.33
81.86
81.70
81.75
81.70
81.24
80.28
78.96
77.53
76.01
74.18
71.45
67.28
61.37
53.88
45.41
36.72
28.43
20.75
13.42
5.93
-2.19
-11.09
-20.52
-29.90
-38.72
-46.74
-54.14
-61.56
-69.87
-79.92
-92.25
-106.69
-122.02
-135.90
-145.10
-146.44
-137.74
-118.83
-91.72
-60.09
-28.14
0.64
24.19
42.02
54.70
63.22
68.57
71.49
72.65
72.62
72.00
71.26
70.74
70.52
70.48
70.42
70.15
69.57
68.65
67.33
65.43
62.65
58.67
53.34
46.79
39.42
31.80
24.38
17.32
10.43
3.35
-4.29
-12.64
-21.52
-30.56
-39.31
-47.45
-54.91
-62.03
-69.45
-78.06
-88.75
-101.92
-117.01
-132.19
-144.44
-150.27
-146.83
-133.01
-109.97
-80.89
-49.87
-20.70
4.15
23.77
38.47
48.98
55.94
59.72
60.67
59.43
57.04
54.73
53.50
53.79
55.26
57.08
58.32
58.41
57.37
55.65
53.86
52.30
50.76
48.52
44.73
38.70
30.33
20.14
9.15
-1.47
-10.76
-18.39
-24.68
-30.56
-37.20
-45.71
-56.72
-70.04
-84.53
-98.12
-108.15
-111.91
-107.44
-94.18
-73.26
-47.29
-19.68
6.30
28.25
44.98
56.43
63.18
66.08
65.94
63.61
59.96
56.01
52.66
50.52
49.66
49.68
49.86
49.65
48.81
47.41
45.64
43.45
40.49
36.17
30.02
21.94
12.34
2.03
-8.10
-17.39
-25.64
-33.22
-41.00
-50.03
-61.26
-75.00
-90.50
-105.81
-118.00
-123.88
-121.04
-108.70
-88.06
-61.99
-34.12
-7.78
14.75
32.42
45.19
53.53
58.05
59.41
58.41
56.02
53.35
51.27
50.27
50.18
50.42
50.28
49.35
47.70
45.76
44.00
42.52
40.85
38.05
33.10
25.45
15.30
3.64
-8.22
-19.04
-28.24
-35.97
-43.02
-50.59
-59.85
-71.55
-85.56
-100.61
-114.17
-123.05
-124.20
-115.84
-98.15
-73.40
-45.19
-17.35
7.11
26.68
41.11
50.97
57.08
60.11
60.63
59.17
56.45
53.25
50.27
47.96
46.39
45.31
44.32
43.13
41.58
39.70
37.42
34.52
30.55
24.97
17.40
7.91
-2.96
-14.29
-25.05
-34.52
-42.55
-49.69
-57.04
-65.92
-77.28
-91.12
-106.17
-119.89
-129.00
-130.42
-122.27
-104.64
-79.61
-50.71
-21.87
3.66
23.97
38.62
48.21
53.82
56.41
56.74
55.31
52.63
49.28
45.87
42.92
40.70
39.20
38.22
37.46
36.68
35.68
34.23
32.00
28.58
23.59
16.82
8.47
-1.00
-10.86
-20.43
-29.25
-37.33
-45.24
-53.94
-64.45
-77.26
-91.79
-106.11
-117.18
-121.60
-116.86
-102.24
-79.23
-51.13
-21.94
4.79
26.80
43.41
54.97
62.34
66.25
67.22
65.61
61.95
57.06
52.00
47.77
45.06
44.04
44.33
45.24
45.94
45.71
44.02
40.68
35.72
29.38
22.00
13.91
5.40
-3.32
-12.09
-20.89
-29.96
-39.83
-51.07
-63.86
-77.51
-90.13
-98.85
-100.69
-93.63
-77.52
-54.33
-27.48
-0.79
22.74
41.50
55.23
64.45
69.90
72.15
71.64
68.93
64.84
60.38
56.57
54.06
52.99
52.99
53.40
53.46
52.55
50.21
46.17
40.30
32.64
23.41
13.01
2.06
-8.79
-18.97
-28.26
-36.90
-45.63
-55.45
-67.20
-81.01
-95.82
-109.34
-118.46
-120.17
-112.61
-95.80
-71.70
-43.62
-15.17
10.76
32.47
49.46
61.96
70.47
75.46
77.36
76.82
74.67
71.99
69.71
68.38
68.01
68.09
67.91
66.86
64.72
61.61
57.91
53.89
49.49
44.31
37.80
29.53
19.48
8.22
-3.35
-14.24
-23.81
-32.04
-39.54
-47.48
-57.12
-69.38
-84.28
-100.58
-115.71
-126.27
-128.96
-121.67
-104.36
-79.15
-49.71
-20.03
6.73
28.89
46.26
59.48
69.31
76.22
80.35
81.82
81.13
79.10
76.83
75.27
74.87
75.44
76.25
76.39
75.16
72.40
68.49
64.15
59.96
56.09
52.11
47.18
40.53
31.74
21.10
9.50
-1.94
-12.23
-20.93
-28.22
-34.78
-41.58
-49.68
-59.93
-72.79
-87.83
-103.52
-117.21
-125.55
-125.52
-115.49
-95.93
-69.41
-39.74
-10.80
14.57
35.07
50.68
62.09
70.04
75.02
77.34
77.34
75.57
72.82
69.95
67.66
66.30
65.81
65.83
65.83
65.40
64.28
62.35
59.63
56.11
51.77
46.62
40.75
34.32
27.51
20.33
12.68
4.37
-4.75
-14.59
-24.71
-34.53
-43.51
-51.35
-58.23
-64.77
-71.96
-80.86
-92.21
-105.96
-120.87
-134.40
-143.19
-144.00
-134.85
-115.84
-89.23
-58.74
-28.37
-1.19
21.19
38.52
51.29
60.17
65.62
68.01
67.90
66.20
64.04
62.50
62.20
63.11
64.67
66.09
66.69
66.19
64.73
62.66
60.25
57.49
53.92
48.88
41.80
32.52
21.52
9.80
-1.43
-11.21
-19.20
-25.81
-31.99
-38.99
-47.88
-59.20
-72.52
-86.37
-98.30
-105.44
-105.32
-96.66
-79.89
-57.07
-31.36
-6.04
16.32
34.27
47.46
56.20
61.08
62.68
61.59
58.45
54.13
49.53
45.50
42.62
41.09
40.68
40.96
41.33
41.26
40.24
37.91
34.03
28.56
21.64
13.63
4.96
-3.90
-12.56
-20.74
-28.43
-35.94
-43.91
-53.16
-64.29
-77.13
-90.38
-101.55
-107.58
-105.83
-95.04
-75.98
-51.23
-24.40
0.98
22.39
38.70
50.03
57.14
60.90
62.01
60.96
58.29
54.75
51.24
48.57
47.12
46.66
46.51
45.89
44.36
42.01
39.30
36.75
34.42
31.86
28.18
22.58
14.72
5.00
-5.59
-15.89
-25.04
-32.76
-39.46
-45.99
-53.44
-62.71
-74.24
-87.57
-101.19
-112.57
-118.66
-116.82
-105.75
-86.13
-60.54
-32.71
-6.25
16.30
33.93
46.88
56.04
62.25
66.02
67.62
67.29
65.57
63.23
61.08
59.70
59.13
58.95
58.41
56.82
53.87
49.75
44.98
40.18
35.66
31.30
26.55
20.71
13.22
3.97
-6.62
-17.68
-28.25
-37.52
-45.12
-51.25
-56.55
-61.99
-68.62
-77.22
-88.01
-100.27
-112.18
-121.04
-123.92
-118.57
-104.36
-82.56
-56.08
-28.53
-3.12
18.11
34.49
46.36
54.42
59.28
61.32
60.89
58.50
55.05
51.60
49.10
48.02
48.19
48.88
49.15
48.29
46.11
42.97
39.52
36.26
33.22
29.91
25.50
19.28
10.97
0.99
-9.73
-20.13
-29.37
-37.06
-43.43
-49.06
-54.78
-61.52
-70.08
-80.88
-93.67
-107.21
-119.16
-126.61
-126.78
-118.11
-100.89
-77.25
-50.54
-24.24
-1.02
17.81
31.99
41.94
48.15
50.98
50.83
48.34
44.55
40.78
38.12
37.08
37.39
38.15
38.37
37.43
35.36
32.78
30.48
28.94
28.03
26.97
24.71
20.44
13.89
5.52
-3.62
-12.35
-19.71
-25.34
-29.59
-33.35
-37.88
-44.36
-53.48
-65.06
-77.73
-89.12
-96.21
-96.26
-87.69
-70.68
-47.31
-20.88
4.96
27.24
44.18
55.24
60.81
61.70
58.84
53.16
45.66
37.47
29.71
23.33
18.90
16.50
15.78
16.12
16.88
17.46
17.45
16.51
14.40
10.95
6.12
0.04
-6.98
-14.49
-22.01
-29.23
-36.15
-43.21
-51.15
-60.83
-72.68
-86.16
-99.52
-109.97
-114.44
-110.57
-97.66
-77.00
-51.53
-24.85
-0.17
20.44
36.18
47.22
54.03
57.01
56.39
52.45
45.82
37.59
29.19
22.04
17.14
14.69
14.14
14.31
13.87
11.73
7.39
1.00
-6.75
-14.97
-22.94
-30.38
-37.55
-45.09
-53.87
-64.68
-77.89
-93.25
-109.55
-124.61
-135.58
-139.53
-134.39
-119.67
-96.83
-68.84
-39.35
-11.61
12.23
31.24
45.28
54.58
59.30
59.62
56.04
49.60
41.95
34.95
30.21
28.44
29.35
31.72
33.89
34.47
32.73
28.78
23.32
17.14
10.74
4.12
-3.13
-11.54
-21.62
-33.68
-47.81
-63.69
-80.34
-95.86
-107.53
-112.43
-108.30
-94.55
-72.63
-45.70
-17.60
8.27
29.72
45.93
56.99
63.31
65.19
62.94
57.14
49.02
40.35
33.04
28.52
27.17
28.23
30.06
30.90
29.49
25.44
19.24
11.82
4.11
-3.44
-10.86
-18.66
-27.58
-38.37
-51.65
-67.63
-85.71
-104.14
-120.05
-129.89
-130.55
-120.40
-100.10
-72.43
-41.42
-11.03
15.92
38.02
55.07
67.35
75.12
78.53
77.84
73.71
67.38
60.40
54.25
49.95
47.75
47.16
47.15
46.52
44.29
39.95
33.58
25.68
16.92
7.84
-1.27
-10.49
-20.20
-30.99
-43.64
-58.77
-76.42
-95.58
-113.91
-127.96
-134.01
-129.22
-112.65
-85.74
-51.93
-15.70
18.82
48.61
72.31
89.85
101.87
109.17
112.28
111.63
107.77
101.63
94.53
87.89
82.69
79.15
76.69
74.15
70.46
64.90
57.42
48.37
38.29
27.56
16.35
4.56
-7.96
-21.42
-36.12
-52.37
-70.52
-90.59
-111.74
-132.00
-148.23
-156.72
-154.33
-139.53
-113.14
-78.25
-39.30
-0.85
33.53
61.86
83.62
99.26
109.58
115.37
117.29
116.02
112.38
107.34
101.90
96.93
92.99
90.18
88.25
86.55
84.38
80.98
75.87
68.85
60.02
49.70
38.32
26.25
13.77
1.05
-11.94
-25.43
-39.89
-55.85
-73.43
-91.79
-108.72
-120.79
-124.20
-116.11
-95.84
-65.35
-28.82
8.69
42.79
70.78
91.91
106.77
116.40
121.54
122.51
119.43
112.80
103.68
93.71
84.63
77.75
73.62
71.87
71.48
71.15
69.78
66.77
62.12
56.22
49.64
42.74
35.54
27.66
18.56
7.76
-4.96
-19.40
-34.88
-50.15
-63.31
-72.05
-73.98
-67.32
-51.58
-27.89
1.11
31.99
61.35
86.73
106.84
121.43
130.82
135.43
135.60
131.84
124.98
116.31
107.40
99.64
93.78
89.61
86.14
82.05
76.32
68.58
59.24
49.15
39.17
29.78
20.93
12.19
2.95
-7.34
-19.05
-32.31
-46.82
-61.73
-75.45
-85.73
-90.17
-86.84
-75.07
-55.81
-31.46
-5.21
19.84
41.38
58.19
69.99
77.03
79.78
78.69
74.38
67.74
60.00
52.49
46.24
41.74
38.66
36.14
33.20
29.17
23.89
17.76
11.33
5.07
-0.96
-7.00
-13.52
-21.01
-29.82
-40.15
-51.92
-64.67
-77.36
-88.42
-95.96
-98.23
-94.19
-83.87
-68.48
-50.02
-30.76
-12.73
2.72
14.81
23.32
28.29
29.92
28.56
24.85
19.71
14.32
9.87
7.22
6.60
7.57
9.15
10.28
10.16
8.52
5.55
1.69
-2.67
-7.37
-12.54
-18.43
-25.42
-33.86
-43.95
-55.61
-68.24
-80.57
-90.72
-96.52
-96.21
-88.99
-75.43
-57.33
-37.24
-17.65
-0.44
13.41
23.71
30.67
34.62
35.86
34.74
31.83
27.94
23.96
20.62
18.23
16.67
15.48
14.19
12.61
10.79
8.96
7.26
5.48
3.11
-0.43
-5.48
-11.86
-18.90
-25.68
-31.44
-35.88
-39.24
-42.23
-45.82
-50.86
-57.85
-66.57
-75.99
-84.22
-88.93
-88.02
-80.33
-66.14
-47.20
-26.15
-5.69
12.11
26.27
36.71
43.87
48.27
50.29
50.19
48.31
45.16
41.45
37.84
34.76
32.30
30.18
28.04
25.68
23.16
20.84
19.12
18.12
17.60
16.97
15.56
12.91
9.00
4.25
-0.63
-4.98
-8.46
-11.10
-13.30
-15.60
-18.47
-22.13
-26.53
-31.36
-36.23
-40.80
-44.98
-48.97
-53.27
-58.51
-65.11
-72.99
-81.25
-88.25
-91.90
-90.26
-82.23
-68.06
-49.28
-28.36
-7.95
9.89
24.01
34.25
41.05
45.02
46.69
46.44
44.63
41.72
38.31
35.01
32.30
30.40
29.23
28.57
28.12
27.61
26.79
25.42
23.22
20.04
15.81
10.65
4.82
-1.39
-7.76
-14.09
-20.28
-26.18
-31.61
-36.38
-40.39
-43.72
-46.61
-49.39
-52.33
-55.64
-59.51
-64.16
-69.79
-76.39
-83.47
-89.91
-94.02
-93.99
-88.51
-77.30
-61.32
-42.52
-23.25
-5.58
9.16
20.48
28.52
33.75
36.63
37.57
36.97
35.36
33.42
31.91
31.32
31.77
32.85
33.82
33.91
32.67
30.13
26.75
23.14
19.76
16.61
13.28
9.09
3.52
-3.50
-11.59
-19.94
-27.73
-34.37
-39.75
-44.11
-47.97
-51.90
-56.40
-61.82
-68.24
-75.22
-81.78
-86.38
-87.29
-83.13
-73.42
-58.84
-41.12
-22.55
-5.36
8.84
19.30
26.01
29.53
30.58
29.94
28.21
25.89
23.33
20.77
18.40
16.34
14.73
13.58
12.86
12.41
11.94
11.12
9.61
7.18
3.80
-0.42
-5.20
-10.23
-15.24
-20.10
-24.80
-29.52
-34.64
-40.59
-47.73
-56.18
-65.43
-74.30
-81.00
-83.53
-80.33
-70.88
-55.99
-37.65
-18.50
-0.96
13.30
23.54
29.87
32.75
32.74
30.34
26.03
20.47
14.61
9.48
6.00
4.67
5.29
7.16
9.26
10.64
10.70
9.30
6.65
3.13
-0.92
-5.34
-10.12
-15.38
-21.29
-28.10
-36.07
-45.38
-55.81
-66.51
-75.86
-81.73
-82.04
-75.53
-62.20
-43.52
-22.01
-0.44
18.77
34.04
44.67
50.62
52.16
49.78
44.10
36.00
26.66
17.43
9.60
4.03
0.92
-0.27
-0.60
-1.22
-2.97
-6.23
-10.77
-16.14
-21.87
-27.77
-33.94
-40.77
-48.74
-58.34
-69.78
-82.80
-96.33
-108.47
-116.73
-118.59
-112.27
-97.45
-75.46
-49.01
-21.43
4.23
25.81
42.26
53.46
59.69
61.43
59.15
53.47
45.37
36.26
27.77
21.35
17.78
16.92
17.72
18.68
18.39
15.99
11.34
4.96
-2.32
-9.78
-17.08
-24.30
-31.95
-40.74
-51.35
-64.15
-78.83
-94.20
-108.08
-117.65
-120.05
-113.26
-96.75
-71.78
-41.17
-8.56
22.43
48.94
69.21
82.59
89.26
90.07
86.24
79.27
70.75
62.20
54.90
49.65
46.75
45.94
46.54
47.61
48.17
47.38
44.67
39.74
32.64
23.65
13.21
1.93
-9.58
-20.82
-31.44
-41.46
-51.37
-62.03
-74.50
-89.49
-106.73
-124.51
-139.64
-148.09
-146.21
-132.00
-105.93
-70.96
-31.67
7.12
41.51
69.22
89.44
102.37
108.67
109.28
105.39
98.56
90.66
83.53
78.54
76.25
76.27
77.55
78.85
79.19
78.12
75.77
72.51
68.65
64.15
58.53
51.12
41.38
29.32
15.60
1.34
-12.18
-24.08
-34.15
-42.93
-51.65
-61.82
-74.75
-90.83
-108.98
-126.51
-139.46
-143.66
-136.04
-115.76
-84.59
-46.51
-6.43
31.07
62.76
87.17
104.16
114.40
118.86
118.51
114.44
107.94
100.58
94.00
89.56
87.90
88.81
91.19
93.55
94.51
93.27
89.78
84.64
78.71
72.71
66.87
60.90
54.15
45.92
35.81
23.98
11.03
-2.08
-14.42
-25.37
-34.82
-43.21
-51.40
-60.53
-71.68
-85.58
-102.17
-120.23
-137.21
-149.46
-153.10
-145.10
-124.44
-92.65
-53.59
-12.45
25.74
57.31
80.61
95.80
104.16
107.32
106.65
103.27
98.19
92.51
87.46
84.16
83.20
84.45
87.02
89.66
91.20
90.89
88.58
84.54
79.25
73.12
66.31
58.87
50.70
41.79
32.24
22.28
12.14
2.11
-7.65
-17.04
-26.03
-34.67
-43.03
-51.34
-60.03
-69.79
-81.44
-95.46
-111.40
-127.42
-140.28
-146.08
-141.42
-124.74
-97.07
-61.86
-23.96
11.87
42.12
65.13
80.89
90.36
94.74
95.12
92.40
87.53
81.65
76.07
72.00
70.29
71.02
73.60
76.90
79.63
80.79
79.93
77.14
72.92
67.83
62.22
56.14
49.34
41.51
32.43
22.18
11.09
-0.36
-11.60
-22.17
-31.75
-40.25
-47.82
-54.95
-62.43
-71.23
-82.14
-95.31
-109.80
-123.39
-132.98
-135.37
-128.34
-111.41
-86.20
-55.88
-24.20
5.37
30.52
50.09
63.91
72.29
75.90
75.53
72.25
67.42
62.46
58.65
56.77
56.88
58.36
60.16
61.21
60.81
58.83
55.68
52.06
48.43
44.83
40.75
35.45
28.32
19.23
8.71
-2.32
-12.81
-22.09
-30.04
-37.06
-43.90
-51.40
-60.26
-70.85
-83.06
-96.04
-108.12
-116.94
-119.83
-114.63
-100.44
-78.15
-50.30
-20.44
7.86
31.88
50.18
62.56
69.61
72.29
71.55
68.38
63.75
58.70
54.20
50.94
49.19
48.77
49.15
49.70
49.89
49.27
47.60
44.63
40.13
33.88
25.89
16.46
6.21
-4.06
-13.73
-22.48
-30.55
-38.66
-47.83
-58.88
-71.98
-86.22
-99.52
-109.04
-111.85
-105.96
-91.07
-68.76
-42.07
-14.60
10.52
31.24
46.73
57.11
62.92
64.92
63.94
60.98
57.14
53.56
51.08
50.00
50.09
50.68
51.06
50.73
49.60
47.81
45.58
42.90
39.48
34.87
28.64
20.72
11.48
1.70
-7.78
-16.32
-23.76
-30.56
-37.57
-45.84
-56.14
-68.56
-82.19
-95.08
-104.59
-108.03
-103.58
-90.86
-71.26
-47.46
-22.66
0.34
19.76
34.92
46.01
53.48
57.83
59.45
58.83
56.72
54.07
51.88
50.79
50.87
51.64
52.32
52.22
51.04
48.99
46.56
44.19
41.95
39.41
35.81
30.33
22.64
13.01
2.33
-8.21
-17.53
-25.19
-31.47
-37.33
-44.07
-52.86
-64.22
-77.71
-91.69
-103.57
-110.47
-110.03
-101.24
-84.88
-63.25
-39.50
-16.57
3.51
19.95
32.85
42.70
49.84
54.39
56.36
56.01
53.99
51.29
48.99
47.77
47.81
48.62
49.39
49.26
47.70
44.70
40.67
36.25
31.86
27.56
22.97
17.49
10.70
2.63
-6.15
-14.72
-22.21
-28.09
-32.37
-35.59
-38.59
-42.40
-47.95
-55.91
-66.46
-78.99
-91.91
-102.77
-108.76
-107.52
-97.93
-80.59
-57.75
-32.59
-8.32
12.69
29.29
41.50
49.96
55.50
58.74
60.12
60.07
59.17
58.14
57.67
58.05
59.09
60.22
60.80
60.48
59.40
58.00
56.70
55.57
54.18
51.82
47.82
41.92
34.42
26.07
17.78
10.22
3.63
-2.33
-8.32
-15.02
-22.80
-31.54
-40.71
-49.56
-57.51
-64.37
-70.43
-76.43
-83.32
-92.06
-103.20
-116.56
-131.02
-144.42
-154.02
-157.18
-152.21
-138.95
-118.87
-94.47
-68.58
-43.46
-20.53
-0.32
17.07
31.65
43.30
51.97
57.77
61.19
63.01
64.10
65.10
66.26
67.42
68.18
68.18
67.39
66.04
64.55
63.24
62.10
60.70
58.36
54.37
48.27
40.06
30.22
19.61
9.23
-0.04
-7.73
-13.83
-18.90
-23.86
-29.74
-37.32
-46.78
-57.43
-67.63
-75.08
-77.40
-72.90
-61.20
-43.49
-22.24
-0.45
19.24
35.14
46.71
54.30
58.63
60.44
60.24
58.45
55.48
51.85
48.11
44.69
41.81
39.42
37.31
35.29
33.22
31.09
28.86
26.36
23.23
19.03
13.42
6.37
-1.77
-10.32
-18.51
-25.82
-32.19
-38.13
-44.55
-52.42
-62.20
-73.38
-84.31
-92.43
-95.00
-90.09
-77.33
-58.19
-35.56
-12.81
7.21
22.92
34.06
41.32
45.66
47.86
48.34
47.24
44.72
41.17
37.22
33.55
30.69
28.86
27.88
27.29
26.48
24.92
22.31
18.65
14.18
9.23
4.11
-1.01
-6.23
-11.75
-17.90
-25.01
-33.40
-43.30
-54.71
-67.02
-78.85
-88.02
-92.03
-88.81
-77.56
-59.22
-36.34
-12.31
9.63
27.20
39.52
46.82
50.01
50.16
48.25
45.06
41.28
37.51
34.26
31.79
30.17
29.26
28.84
28.69
28.59
28.22
27.13
24.76
20.58
14.37
6.32
-2.87
-12.29
-21.04
-28.63
-35.24
-41.65
-49.08
-58.62
-70.71
-84.67
-98.65
-109.87
-115.42
-113.07
-102.07
-83.39
-59.55
-33.80
-9.25
11.79
28.26
40.06
47.74
51.98
53.50
52.99
51.30
49.38
48.08
47.89
48.72
49.97
50.83
50.69
49.42
47.27
44.63
41.66
38.11
33.43
26.99
18.52
8.30
-2.88
-13.99
-24.16
-32.93
-40.46
-47.52
-55.18
-64.48
-76.04
-89.51
-103.45
-115.34
-122.26
-121.65
-112.30
-94.82
-71.56
-45.88
-21.08
0.44
17.63
30.44
39.41
45.05
47.75
47.88
46.07
43.30
40.77
39.47
39.77
41.24
42.95
43.88
43.42
41.63
39.10
36.51
34.22
31.97
28.99
24.37
17.45
8.28
-2.40
-13.39
-23.49
-31.96
-38.74
-44.42
-50.09
-57.00
-66.16
-77.99
-91.91
-106.17
-118.06
-124.46
-122.75
-111.67
-91.92
-66.02
-37.60
-10.31
13.06
31.08
43.61
51.36
55.35
56.52
55.64
53.40
50.51
47.70
45.65
44.74
44.96
45.93
47.03
47.72
47.67
46.74
44.88
42.02
37.94
32.43
25.45
17.27
8.46
-0.28
-8.39
-15.76
-22.78
-30.36
-39.57
-51.17
-65.02
-79.66
-92.44
-99.99
-99.42
-89.27
-70.24
-45.00
-17.34
8.99
31.29
48.32
60.11
67.33
70.89
71.55
69.96
66.84
62.92
59.06
55.92
53.94
53.18
53.39
54.06
54.60
54.43
53.07
50.18
45.61
39.41
31.79
23.12
13.82
4.31
-5.07
-14.28
-23.57
-33.59
-45.17
-58.94
-74.77
-91.31
-105.98
-115.45
-116.74
-108.28
-90.61
-66.33
-39.25
-13.29
8.64
25.06
35.81
41.59
43.38
42.15
38.69
33.68
27.80
21.79
16.32
12.09
9.60
9.18
10.91
14.56
19.61
25.30
30.62
34.53
36.05
34.53
29.86
22.59
13.72
4.48
-4.19
-12.01
-19.46
-27.59
-37.52
-49.77
-63.80
-77.71
-88.59
-93.15
-88.83
-74.64
-51.73
-23.15
7.00
34.70
57.12
73.10
82.98
87.99
89.50
88.58
85.95
82.15
77.75
73.43
69.82
67.23
65.53
64.30
62.98
61.33
59.38
57.30
55.15
52.63
49.08
43.83
36.49
27.27
16.89
6.35
-3.45
-12.01
-19.42
-26.36
-33.88
-43.05
-54.41
-67.52
-80.63
-90.92
-95.26
-91.23
-78.06
-56.98
-30.89
-3.41
22.15
43.56
59.85
71.12
77.91
80.87
80.54
77.47
72.38
66.28
60.31
55.49
52.37
50.77
49.91
48.75
46.44
42.70
37.93
32.83
28.02
23.60
19.12
13.79
6.90
-1.76
-11.79
-22.28
-32.18
-40.67
-47.48
-52.96
-57.99
-63.80
-71.60
-82.17
-95.45
-110.16
-123.86
-133.28
-135.31
-127.84
-110.66
-85.57
-55.93
-25.68
1.79
24.37
41.39
53.31
61.11
65.74
67.94
68.28
67.33
65.71
64.13
63.16
63.10
63.85
64.99
65.97
66.30
65.71
64.22
61.95
59.06
55.60
51.49
46.54
40.63
33.76
26.06
17.76
9.13
0.36
-8.41
-17.10
-25.61
-33.87
-41.90
-49.86
-58.21
-67.62
-78.80
-92.03
-106.62
-120.66
-131.18
-134.93
-129.47
-114.16
-90.55
-62.02
-32.66
-6.08
15.52
31.57
42.73
50.12
54.76
57.33
58.24
57.92
56.93
55.91
55.42
55.72
56.71
57.99
59.07
59.52
59.04
57.51
54.94
51.38
47.04
42.18
36.99
31.56
25.79
19.45
12.34
4.42
-4.08
-12.70
-20.91
-28.28
-34.57
-39.89
-44.69
-49.71
-55.92
-64.26
-75.18
-88.21
-101.66
-112.72
-118.17
-115.38
-103.28
-82.85
-56.90
-29.19
-3.27
18.40
34.79
46.03
52.79
55.86
55.94
53.72
50.12
46.26
43.17
41.50
41.21
41.61
41.81
41.08
39.27
36.77
34.21
32.07
30.29
28.29
25.18
20.27
13.32
4.76
-4.51
-13.50
-21.42
-28.05
-33.69
-39.18
-45.59
-53.93
-64.70
-77.51
-90.83
-102.10
-108.32
-107.00
-96.98
-78.96
-55.40
-29.71
-5.23
15.56
31.48
42.41
48.96
51.92
52.07
50.12
46.84
43.03
39.47
36.72
35.03
34.25
34.02
33.90
33.57
32.76
31.29
28.90
25.38
20.57
14.53
7.57
0.14
-7.35
-14.61
-21.61
-28.61
-36.07
-44.63
-54.81
-66.65
-79.30
-90.86
-98.67
-99.97
-92.99
-77.60
-55.60
-30.13
-4.81
17.35
34.59
46.45
53.46
56.54
56.71
54.82
51.65
47.95
44.41
41.65
39.96
39.31
39.34
39.56
39.55
39.06
37.98
36.16
33.36
29.23
23.47
16.03
7.24
-2.31
-11.86
-20.80
-28.82
-36.05
-43.09
-50.84
-60.24
-71.76
-84.94
-98.07
-108.41
-112.87
-108.98
-95.86
-74.64
-48.20
-20.34
5.32
26.21
41.22
50.49
54.89
55.58
53.67
50.09
45.71
41.30
37.53
34.83
33.27
32.60
32.32
31.92
30.94
29.04
25.94
21.43
15.47
8.25
0.25
-7.91
-15.64
-22.64
-28.91
-34.75
-40.63
-47.05
-54.55
-63.54
-74.00
-85.20
-95.33
-101.75
-101.65
-93.09
-75.92
-52.09
-25.18
0.81
22.63
38.57
48.50
53.30
54.13
51.97
47.52
41.41
34.45
27.63
21.95
18.16
16.41
16.35
17.18
17.93
17.70
15.79
11.79
5.54
-2.80
-12.76
-23.62
-34.52
-44.59
-53.19
-60.18
-65.96
-71.46
-77.64
-85.04
-93.11
-100.09
-103.34
-100.18
-88.87
-69.50
-44.00
-15.69
11.86
35.73
54.30
67.21
74.87
77.97
77.14
72.96
66.20
57.96
49.62
42.64
38.06
36.31
37.01
39.12
41.28
42.19
40.90
37.07
30.94
23.16
14.48
5.55
-3.31
-12.10
-21.07
-30.64
-41.25
-53.29
-66.79
-81.05
-94.38
-104.09
-107.13
-100.97
-84.64
-59.36
-28.42
3.72
32.73
55.61
71.24
80.17
83.85
83.80
81.06
76.09
69.18
60.77
51.69
43.03
35.80
30.57
27.26
25.20
23.36
20.74
16.64
10.83
3.58
-4.59
-13.15
-21.84
-30.74
-40.28
-51.04
-63.59
-78.25
-94.82
-112.29
-128.72
-141.34
-147.08
-143.59
-130.03
-107.56
-79.21
-48.85
-20.18
4.18
23.00
36.10
43.89
46.88
45.66
41.04
34.27
27.00
20.92
17.20
16.21
17.34
19.31
20.72
20.56
18.52
15.02
10.83
6.63
2.68
-1.39
-6.41
-13.45
-23.40
-36.64
-52.70
-70.07
-86.28
-98.23
-102.88
-98.11
-83.44
-60.34
-31.81
-1.58
26.83
50.78
68.82
80.48
85.92
85.79
80.99
72.86
63.06
53.39
45.38
39.97
37.17
36.16
35.61
34.26
31.35
26.89
21.48
15.92
10.71
5.65
-0.14
-7.91
-18.78
-33.17
-50.44
-68.66
-84.88
-95.72
-98.18
-90.61
-73.21
-48.18
-18.97
10.66
37.60
59.96
76.90
88.24
93.98
94.28
89.66
81.41
71.56
62.53
56.28
53.63
53.97
55.63
56.60
55.36
51.38
45.09
37.49
29.56
21.79
14.02
5.52
-4.73
-17.67
-33.75
-52.49
-72.26
-90.23
-102.86
-106.87
-100.22
-83.00
-57.46
-27.34
3.21
30.87
53.72
71.09
83.09
89.93
91.72
88.68
81.56
71.90
61.86
53.63
48.65
47.15
48.10
49.66
50.00
47.85
42.93
35.80
27.45
18.84
10.51
2.43
-5.88
-15.18
-26.22
-39.57
-55.42
-73.28
-91.78
-108.51
-120.29
-123.87
-116.92
-98.96
-71.77
-38.97
-5.04
26.03
51.71
71.25
85.22
94.76
100.85
104.09
104.87
103.72
101.53
99.43
98.41
98.87
100.49
102.35
103.42
103.03
101.13
98.22
94.96
91.79
88.64
85.00
80.19
73.71
65.55
56.25
46.66
37.66
29.79
23.05
16.92
10.51
2.88
-6.60
-17.97
-30.66
-43.63
-55.77
-66.36
-75.40
-83.64
-92.35
-102.91
-116.37
-133.04
-152.16
-171.65
-188.19
-197.84
-196.89
-183.22
-157.19
-121.78
-81.85
-42.60
-8.08
19.72
40.81
56.41
67.99
76.56
82.59
86.33
88.23
89.00
89.53
90.56
92.37
94.73
97.09
98.80
99.34
98.42
96.05
92.41
87.79
82.45
76.53
69.97
62.55
54.06
44.42
33.87
22.91
12.18
2.19
-6.82
-14.94
-22.54
-30.21
-38.62
-48.48
-60.36
-74.45
-90.20
-106.06
-119.50
-127.45
-127.24
-117.44
-98.54
-72.91
-44.17
-16.03
8.56
28.12
42.50
52.42
58.82
62.43
63.74
63.13
61.21
58.77
56.73
55.76
56.10
57.43
59.02
60.05
59.86
58.22
55.22
51.25
46.73
41.95
36.94
31.43
25.02
17.37
8.46
-1.36
-11.40
-20.84
-29.11
-36.06
-42.06
-47.85
-54.28
-62.12
-71.88
-83.67
-97.03
-110.74
-122.73
-130.35
-131.02
-123.01
-106.20
-82.28
-54.32
-25.93
-0.21
20.85
36.55
47.10
53.22
55.75
55.56
53.56
50.83
48.43
47.17
47.34
48.64
50.34
51.66
52.14
51.78
50.88
49.72
48.29
46.12
42.54
37.03
29.51
20.50
10.96
1.96
-5.68
-11.71
-16.51
-21.03
-26.55
-34.15
-44.28
-56.41
-68.81
-78.87
-83.80
-81.50
-71.26
-54.08
-32.39
-9.26
12.41
30.57
44.17
53.07
57.65
58.56
56.62
52.75
48.02
43.50
40.04
38.16
37.86
38.76
40.24
41.64
42.49
42.46
41.40
39.18
35.69
30.79
24.51
17.06
8.93
0.73
-7.00
-14.03
-20.58
-27.33
-35.22
-45.04
-56.98
-70.30
-83.19
-93.06
-97.21
-93.70
-81.97
-63.20
-39.92
-15.34
7.53
26.53
40.64
49.76
54.41
55.46
53.84
50.58
46.69
43.03
40.25
38.58
37.85
37.61
37.34
36.70
35.53
33.86
31.72
29.03
25.57
21.03
15.23
8.14
0.07
-8.46
-16.89
-24.77
-31.91
-38.51
-45.14
-52.55
-61.49
-72.17
-84.03
-95.42
-103.93
-106.87
-102.27
-89.56
-69.93
-46.10
-21.44
0.94
19.00
31.99
40.13
44.25
45.28
44.04
41.23
37.60
33.90
30.86
28.95
28.31
28.62
29.29
29.66
29.25
27.95
25.91
23.38
20.45
16.86
12.18
6.02
-1.67
-10.39
-19.27
-27.45
-34.43
-40.33
-45.90
-52.20
-60.19
-70.28
-81.92
-93.47
-102.46
-106.10
-102.25
-90.21
-71.15
-47.79
-23.58
-1.64
16.06
28.93
37.49
42.72
45.63
46.91
46.97
46.03
44.28
41.92
39.18
36.38
33.87
31.95
30.85
30.60
30.94
31.39
31.28
29.85
26.50
20.95
13.37
4.42
-4.97
-13.78
-21.35
-27.52
-32.68
-37.67
-43.58
-51.41
-61.81
-74.70
-89.00
-102.66
-112.87
-116.91
-112.83
-100.27
-80.64
-56.73
-31.93
-9.34
8.98
22.14
30.22
33.90
34.05
31.59
27.54
22.95
18.86
16.07
14.91
15.18
16.22
17.22
17.52
16.87
15.40
13.46
11.26
8.70
5.35
0.65
-5.72
-13.62
-22.33
-30.88
-38.33
-44.23
-48.82
-52.96
-57.92
-64.83
-74.26
-85.73
-97.56
-107.10
-111.28
-107.67
-95.29
-75.17
-50.05
-23.59
0.79
20.79
35.56
45.33
50.89
53.00
52.20
48.94
43.85
37.90
32.26
28.06
26.02
26.28
28.28
31.02
33.32
34.14
32.94
29.68
24.83
19.03
12.84
6.53
0.06
-6.74
-14.13
-22.33
-31.69
-42.51
-54.82
-67.96
-80.27
-89.19
-91.98
-86.68
-72.95
-52.39
-28.05
-3.37
18.71
36.46
49.35
57.52
61.39
61.34
57.74
51.30
43.18
34.94
28.18
23.99
22.58
23.26
24.71
25.50
24.59
21.65
16.96
11.16
4.91
-1.45
-7.94
-14.88
-22.77
-32.12
-43.41
-56.84
-71.92
-87.27
-100.56
-108.85
-109.44
-100.83
-83.36
-59.26
-32.00
-5.27
18.06
36.40
49.44
57.68
61.90
62.83
61.03
57.09
51.75
46.00
40.88
37.26
35.48
35.25
35.68
35.59
33.97
30.21
24.38
17.06
9.06
1.05
-6.63
-14.03
-21.55
-29.76
-39.29
-50.68
-64.17
-79.44
-95.26
-109.46
-119.09
-121.22
-113.89
-96.92
-72.17
-43.01
-13.29
13.79
36.32
53.75
66.37
74.74
79.33
80.57
79.09
75.88
72.32
69.68
68.80
69.69
71.56
73.22
73.54
71.94
68.53
63.95
59.02
54.27
49.68
44.67
38.38
30.13
19.82
8.04
-4.14
-15.57
-25.51
-33.88
-41.24
-48.62
-57.20
-67.99
-81.54
-97.57
-114.65
-130.14
-140.54
-142.51
-134.03
-115.22
-88.55
-57.98
-27.67
-0.72
21.42
38.78
52.04
61.90
68.68
72.51
73.74
73.12
71.76
70.76
70.80
71.95
73.79
75.65
77.00
77.51
77.09
75.76
73.49
70.23
65.92
60.57
54.26
47.18
39.47
31.23
22.49
13.25
3.59
-6.28
-15.97
-25.08
-33.32
-40.71
-47.73
-55.26
-64.43
-76.22
-90.94
-107.75
-124.51
-137.97
-144.54
-141.42
-127.54
-104.13
-74.34
-42.32
-11.91
14.30
35.25
51.11
62.56
70.27
74.70
76.31
75.78
74.15
72.55
71.88
72.42
73.77
75.13
75.73
75.15
73.52
71.30
68.91
66.38
63.26
58.74
52.18
43.43
33.01
21.97
11.46
2.25
-5.53
-12.45
-19.56
-28.09
-39.02
-52.67
-68.36
-84.24
-97.44
-104.73
-103.42
-92.38
-72.50
-46.55
-18.33
8.45
31.23
48.88
61.52
69.88
74.65
76.27
75.10
71.74
67.25
63.00
60.21
59.43
60.31
61.73
62.40
61.43
58.73
54.90
50.83
47.12
43.67
39.73
34.30
26.65
16.79
5.55
-5.82
-16.13
-24.81
-32.08
-38.85
-46.39
-55.92
-68.16
-83.08
-99.58
-115.49
-127.80
-133.29
-129.55
-115.75
-93.13
-64.68
-34.29
-5.55
19.14
38.88
53.95
65.18
73.37
78.97
82.24
83.45
83.09
81.88
80.55
79.60
79.20
79.17
79.13
78.73
77.73
76.06
73.60
70.24
65.77
60.03
53.08
45.21
36.86
28.45
20.21
12.08
3.84
-4.75
-13.69
-22.73
-31.51
-39.67
-47.09
-53.98
-60.89
-68.65
-78.20
-90.27
-104.86
-120.85
-135.77
-146.24
-148.92
-141.58
-124.02
-98.26
-67.87
-36.88
-8.62
15.04
33.63
47.68
58.00
65.33
70.19
73.02
74.37
74.92
75.37
76.18
77.42
78.83
79.96
80.46
80.25
79.48
78.40
77.07
75.22
72.37
67.96
61.70
53.76
44.75
35.51
26.75
18.83
11.58
4.48
-3.08
-11.51
-20.74
-30.24
-39.29
-47.32
-54.20
-60.44
-67.06
-75.33
-86.19
-99.80
-115.07
-129.62
-140.17
-143.43
-137.18
-121.09
-96.95
-68.19
-38.74
-11.88
10.47
27.95
41.18
51.13
58.55
63.84
67.23
69.03
69.80
70.24
70.92
72.02
73.32
74.39
74.79
74.38
73.34
71.99
70.56
68.97
66.81
63.49
58.55
51.92
43.98
35.46
27.13
19.50
12.58
5.98
-0.95
-8.69
-17.38
-26.74
-36.21
-45.25
-53.58
-61.28
-68.85
-77.03
-86.62
-98.16
-111.54
-125.63
-138.22
-146.38
-147.22
-138.93
-121.50
-96.88
-68.42
-39.86
-14.19
6.88
23.05
34.88
43.24
48.81
52.08
53.41
53.34
52.64
52.16
52.55
54.08
56.49
59.19
61.54
63.05
63.54
63.06
61.72
59.48
56.24
51.84
46.25
39.79
32.95
26.28
20.07
14.29
8.57
2.44
-4.42
-11.98
-19.87
-27.54
-34.46
-40.48
-45.83
-51.26
-57.81
-66.46
-77.63
-90.71
-103.90
-114.34
-118.96
-115.48
-103.23
-83.50
-59.11
-33.53
-9.77
10.19
25.64
36.73
43.97
47.87
48.90
47.66
45.04
42.14
40.02
39.35
40.14
41.83
43.49
44.38
44.15
43.01
41.47
39.87
38.16
35.79
31.96
26.07
18.11
8.71
-1.03
-10.00
-17.53
-23.64
-28.98
-34.58
-41.51
-50.54
-61.85
-74.72
-87.56
-97.93
-103.16
-101.14
-91.00
-73.59
-51.24
-27.05
-3.99
15.83
31.40
42.64
49.86
53.51
54.05
52.05
48.39
44.20
40.63
38.52
38.09
38.93
40.23
41.09
41.01
39.93
38.18
36.17
34.06
31.57
28.08
22.90
15.61
6.37
-4.11
-14.72
-24.40
-32.53
-39.17
-45.05
-51.34
-59.30
-69.78
-82.88
-97.64
-111.91
-122.82
-127.41
-123.53
-110.63
-89.97
-64.34
-37.17
-11.63
10.15
27.27
39.79
48.31
53.56
56.24
57.04
56.68
55.92
55.34
55.26
55.66
56.34
57.07
57.79
58.59
59.56
60.62
61.39
61.33
59.92
56.89
52.28
46.33
39.29
31.20
21.94
11.37
-0.48
-13.31
-26.65
-40.01
-52.96
-65.10
-76.02
-85.39
-93.16
-99.92
-106.92
-115.67
-127.09
-140.65
-154.03
-163.58
-165.60
-157.70
-139.86
-114.30
-84.67
-54.80
-27.61
-4.61
13.93
28.43
39.56
47.80
53.54
57.18
59.24
60.42
61.42
62.75
64.59
66.67
68.57
69.90
70.56
70.75
70.78
70.76
70.45
69.20
66.33
61.41
54.59
46.54
38.25
30.61
24.01
18.18
12.33
5.54
-2.82
-12.73
-23.59
-34.44
-44.45
-53.27
-61.21
-69.17
-78.36
-89.83
-104.02
-120.37
-137.03
-151.09
-159.16
-158.24
-146.82
-125.36
-96.36
-63.62
-31.13
-2.03
21.92
40.43
54.14
64.06
71.07
75.80
78.68
80.17
80.85
81.33
82.04
83.07
84.15
84.85
84.83
84.09
82.87
81.57
80.29
78.79
76.45
72.54
66.63
58.79
49.69
40.30
31.54
23.94
17.38
11.21
4.49
-3.50
-13.04
-23.71
-34.60
-44.75
-53.57
-61.15
-68.33
-76.47
-86.92
-100.46
-116.73
-133.94
-149.02
-158.26
-158.38
-147.53
-126.09
-96.69
-63.43
-30.69
-1.90
21.16
38.32
50.45
58.73
64.09
67.23
68.68
69.06
69.06
69.32
70.14
71.44
72.80
73.78
74.15
73.97
73.52
73.04
72.56
71.76
70.15
67.33
63.27
58.41
53.49
49.09
45.33
41.64
36.96
30.22
20.84
8.87
-4.94
-19.59
-34.15
-47.94
-60.64
-72.23
-82.98
-93.47
-104.32
-115.78
-127.20
-136.73
-141.60
-139.03
-127.28
-106.54
-79.05
-48.50
-18.78
7.10
27.57
42.54
52.77
59.18
62.55
63.38
62.17
59.73
57.16
55.66
56.08
58.55
62.40
66.46
69.53
70.81
70.15
67.91
64.70
61.00
56.97
52.46
47.12
40.61
32.78
23.74
13.88
3.81
-5.85
-14.66
-22.51
-29.67
-36.76
-44.55
-53.84
-65.28
-79.04
-94.53
-110.16
-123.34
-131.02
-130.44
-120.20
-100.79
-74.61
-45.24
-16.30
9.50
30.85
47.66
60.51
69.94
76.22
79.36
79.56
77.45
74.16
71.11
69.44
69.65
71.44
73.89
75.99
76.97
76.55
74.86
72.20
68.71
64.27
58.53
51.17
42.14
31.75
20.61
9.49
-1.01
-10.51
-18.96
-26.52
-33.58
-40.63
-48.34
-57.49
-68.77
-82.41
-97.82
-113.26
-125.96
-132.69
-130.78
-118.96
-97.93
-70.25
-39.57
-9.65
16.65
37.83
53.69
64.88
72.31
76.81
79.00
79.39
78.56
77.13
75.72
74.74
74.31
74.30
74.39
74.31
73.84
72.90
71.36
69.06
65.78
61.36
55.79
49.23
42.01
34.48
26.89
19.26
11.48
3.32
-5.34
-14.42
-23.65
-32.64
-41.07
-48.87
-56.37
-64.26
-73.49
-84.91
-98.83
-114.52
-130.00
-142.19
-147.70
-143.83
-129.60
-106.21
-76.77
-45.29
-15.58
9.72
29.55
44.14
54.46
61.60
66.37
69.27
70.61
70.81
70.43
70.22
70.80
72.43
74.90
77.54
79.60
80.56
80.32
79.20
77.64
75.87
73.77
70.91
66.80
61.17
54.21
46.45
38.69
31.61
25.61
20.60
16.10
11.43
5.89
-0.95
-9.15
-18.35
-27.93
-37.22
-45.77
-53.48
-60.73
-68.28
-77.04
-87.88
-101.12
-116.21
-131.52
-144.35
-151.49
-150.07
-138.54
-117.39
-89.12
-57.62
-27.02
-0.55
20.14
34.91
44.69
50.71
54.05
55.44
55.43
54.54
53.29
52.25
51.76
51.97
52.74
53.84
54.96
55.89
56.49
56.59
56.00
54.50
51.90
48.13
43.27
37.51
31.04
24.02
16.51
8.62
0.48
-7.69
-15.63
-23.18
-30.25
-36.89
-43.26
-49.72
-56.83
-65.26
-75.61
-87.85
-100.94
-112.68
-120.08
-120.26
-111.54
-94.05
-69.90
-42.47
-15.38
8.48
27.48
41.29
50.38
55.57
57.71
57.54
55.80
53.26
50.71
48.74
47.65
47.30
47.30
47.18
46.61
45.56
44.17
42.49
40.38
37.40
33.02
26.85
18.94
9.80
0.26
-8.79
-16.79
-23.71
-30.13
-36.99
-45.36
-55.93
-68.65
-82.39
-95.02
-103.77
-106.01
-100.09
-85.98
-65.37
-41.23
-16.96
4.56
21.52
33.35
40.38
43.43
43.40
41.22
37.76
33.90
30.41
27.89
26.50
26.08
26.24
26.58
26.86
27.01
26.99
26.60
25.38
22.72
18.05
11.13
2.25
-7.86
-18.17
-27.78
-36.27
-43.83
-51.32
-59.93
-70.80
-84.32
-99.76
-115.00
-126.95
-132.31
-128.70
-115.51
-94.23
-68.04
-40.74
-15.65
5.32
21.69
34.06
43.33
50.16
54.80
57.30
57.90
57.27
56.35
56.06
56.88
58.56
60.35
61.31
60.82
58.86
55.94
52.79
49.94
47.34
44.40
40.18
33.85
25.10
14.35
2.59
-8.91
-19.16
-27.77
-35.13
-42.24
-50.38
-60.78
-74.10
-90.19
-107.71
-124.23
-136.57
-141.57
-137.11
-122.79
-100.28
-72.75
-44.03
-17.41
5.07
22.75
36.05
45.85
52.97
57.92
61.06
62.72
63.36
63.54
63.79
64.42
65.45
66.63
67.61
68.08
67.85
66.84
65.04
62.42
58.95
54.63
49.50
43.68
37.30
30.44
23.09
15.24
6.91
-1.80
-10.71
-19.58
-28.23
-36.63
-44.93
-53.52
-62.95
-73.87
-86.79
-101.73
-117.78
-132.92
-144.13
-148.20
-142.71
-127.02
-102.70
-73.13
-42.47
-14.38
8.87
26.62
39.46
48.51
54.85
59.24
62.13
63.88
64.88
65.53
66.20
67.15
68.47
70.05
71.69
73.11
73.96
73.90
72.68
70.12
66.20
61.06
54.93
48.12
40.92
33.52
25.93
18.02
9.62
0.64
-8.80
-18.31
-27.40
-35.68
-43.01
-49.71
-56.48
-64.33
-74.27
-86.92
-101.98
-117.95
-132.11
-141.06
-141.70
-132.31
-113.28
-86.99
-57.17
-27.65
-1.35
20.24
36.91
49.21
57.81
63.27
66.04
66.68
65.99
65.01
64.63
65.33
66.96
68.84
70.08
70.04
68.59
66.07
63.10
60.16
57.29
54.04
49.62
43.39
35.11
25.19
14.55
4.32
-4.68
-12.09
-18.25
-23.95
-30.26
-38.17
-48.40
-61.10
-75.52
-89.98
-101.85
-108.08
-106.07
-94.62
-74.50
-48.33
-19.87
7.18
30.18
48.04
61.01
69.95
75.72
78.84
79.58
78.27
75.56
72.46
69.98
68.83
69.16
70.56
72.29
73.57
73.80
72.69
70.18
66.41
61.59
55.91
49.54
42.53
34.85
26.45
17.34
7.66
-2.30
-12.16
-21.59
-30.37
-38.51
-46.23
-54.00
-62.48
-72.48
-84.74
-99.51
-116.09
-132.54
-145.81
-152.43
-149.62
-136.29
-113.63
-84.82
-53.99
-25.03
-0.50
18.73
33.15
43.98
52.38
59.09
64.39
68.32
70.93
72.52
73.55
74.57
75.95
77.80
79.92
81.87
83.20
83.46
82.37
79.79
75.68
70.13
63.36
55.65
47.44
39.06
30.74
22.45
13.97
5.09
-4.32
-14.10
-23.93
-33.43
-42.41
-50.98
-59.62
-69.09
-80.23
-93.56
-108.87
-124.78
-138.71
-147.31
-147.43
-137.23
-117.00
-89.23
-57.84
-26.95
0.31
22.41
39.29
51.74
60.75
67.08
