1707382912.00
64.000000
-0.00
-0.00
-0.00
-0.00
-0.00
-0.00
-0.00
-0.00
-0.00
-0.00
0.00
0.01
0.01
-0.00
-0.03
-0.05
-0.05
0.00
0.13
0.36
0.66
1.01
1.37
1.72
2.06
2.40
2.79
3.24
3.80
4.42
5.06
5.66
6.20
6.68
7.15
7.68
8.31
9.14
10.09
11.04
11.88
12.56
13.14
13.76
14.65
15.96
17.91
20.32
22.90
25.38
27.58
29.57
31.68
34.32
37.81
42.54
48.15
54.10
59.83
64.97
69.58
74.14
79.34
85.71
93.76
103.00
112.62
121.73
129.77
136.75
143.30
150.75
157.77
166.64
177.95
191.79
206.97
220.57
228.25
225.36
208.53
176.87
132.76
80.05
23.07
-34.94
-92.44
-149.16
-205.23
-260.37
-313.74
-363.87
-409.83
-450.91
-486.50
-515.74
-537.23
-549.22
-549.96
-538.37
-514.21
-478.67
-433.88
-382.45
-327.02
-269.84
-212.63
-156.66
-102.95
-52.37
-5.90
35.58
71.43
101.35
125.50
144.38
158.69
169.15
176.37
180.75
182.57
182.07
179.51
175.23
169.65
163.18
156.15
148.81
141.30
133.69
126.02
118.33
110.69
103.16
95.80
88.68
81.83
75.25
68.95
62.95
57.25
51.86
46.78
42.03
37.59
33.45
29.61
26.07
22.81
19.83
17.11
14.67
12.48
10.54
8.83
7.35
6.07
4.97
4.05
3.27
2.62
2.09
1.65
1.30
1.01
0.79
0.61
0.48
0.38
0.30
0.25
0.22
0.20
0.20
0.20
0.22
0.25
0.28
0.31
0.35
0.39
0.44
0.48
0.53
0.58
0.63
0.68
0.74
0.81
0.88
0.95
1.03
1.12
1.22
1.34
1.47
1.61
1.77
1.95
2.15
2.37
2.62
2.89
3.19
3.51
3.87
4.27
4.70
5.16
5.66
6.20
6.78
7.40
8.06
8.77
9.52
10.32
11.16
12.05
12.98
13.96
15.01
16.12
17.29
18.52
19.79
21.07
22.28
23.37
24.23
24.72
24.74
24.18
22.96
21.01
18.37
15.09
11.26
7.05
2.66
-1.72
-5.87
-9.62
-12.81
-15.32
-17.12
-18.20
-18.61
-18.48
-17.93
-17.09
-16.06
-14.90
-13.64
-12.29
-10.86
-9.33
-7.79
-6.28
-4.83
-3.45
-2.09
-0.67
0.85
2.54
4.42
6.37
8.23
9.97
11.56
13.10
14.74
16.61
18.81
21.42
24.04
26.43
28.39
29.95
31.30
32.78
34.70
37.26
40.48
43.70
46.29
47.87
48.36
48.04
47.46
47.12
47.37
48.21
48.61
47.61
44.43
38.71
30.41
19.65
6.19
-11.10
-29.42
-48.51
-68.84
-91.30
-117.01
-146.67
-179.79
-214.04
-245.12
-267.40
-276.30
-268.94
-245.42
-208.80
-163.98
-116.22
-69.79
-27.48
9.31
39.50
62.73
79.20
89.79
95.89
98.98
100.08
99.43
96.61
90.48
80.41
66.60
50.23
33.12
17.16
3.77
-6.41
-13.51
-18.35
-21.84
-24.64
-27.08
-29.14
-30.64
-31.46
-31.64
-31.44
-31.29
-31.57
-32.52
-34.13
-36.21
-38.53
-40.94
-43.53
-46.62
-50.81
-56.78
-65.11
-75.92
-88.59
-101.58
-112.62
-119.21
-119.34
-112.19
-98.33
-79.60
-58.33
-36.68
-16.14
2.61
19.43
34.47
47.93
60.07
71.19
81.57
91.26
99.94
106.89
111.35
112.82
111.38
107.80
103.24
98.80
95.15
92.34
89.90
87.08
83.23
78.01
71.42
63.74
55.34
46.51
37.44
28.16
18.64
8.85
-1.16
-11.19
-20.91
-29.82
-37.46
-43.59
-48.42
-52.66
-57.42
-63.79
-72.28
-82.46
-92.73
-100.67
-103.67
-99.73
-88.12
-69.51
-45.75
-19.26
7.57
32.82
55.17
73.85
88.51
99.14
106.06
109.87
111.30
111.00
109.34
106.33
101.78
95.47
87.52
78.47
69.29
61.09
54.73
50.58
48.33
47.20
46.21
44.52
41.66
37.63
32.70
27.30
21.80
16.35
10.92
5.27
-0.87
-7.71
-15.25
-23.32
-31.62
-39.87
-47.89
-55.76
-63.76
-72.29
-81.68
-91.89
-102.25
-111.36
-117.34
-118.35
-113.22
-101.98
-85.84
-66.79
-46.92
-27.91
-10.70
4.30
16.88
26.87
34.06
38.40
40.15
39.94
38.47
36.36
33.91
31.14
28.07
24.90
22.13
20.40
20.19
21.52
23.91
26.52
28.54
29.48
29.20
27.95
25.97
23.40
20.21
16.23
11.27
5.31
-1.44
-8.65
-15.89
-22.78
-29.18
-35.30
-41.69
-49.11
-58.11
-68.65
-79.87
-90.02
-96.98
-98.80
-94.33
-83.56
-67.51
-47.94
-26.81
-5.84
13.66
30.84
45.30
56.89
65.70
72.01
76.14
78.37
78.96
78.09
75.91
72.67
68.68
64.33
60.05
56.28
53.37
51.51
50.68
50.51
50.43
49.71
47.73
44.22
39.29
33.34
26.89
20.28
13.59
6.63
-0.80
-8.78
-17.14
-25.55
-33.66
-41.29
-48.50
-55.54
-62.85
-70.91
-80.21
-90.99
-103.04
-115.50
-126.82
-134.99
-138.06
-134.73
-124.67
-108.72
-88.59
-66.52
-44.70
-24.93
-8.46
4.10
12.78
18.09
20.94
22.41
23.52
25.03
27.27
30.22
33.55
36.86
39.90
42.71
45.59
48.88
52.80
57.22
61.68
65.53
68.17
69.23
68.71
66.86
64.13
60.94
57.62
54.29
50.87
47.13
42.75
37.46
31.17
24.06
16.47
8.87
1.58
-5.33
-12.21
-19.63
-28.27
-38.46
-49.91
-61.53
-71.55
-77.83
-78.47
-72.33
-59.43
-40.99
-19.07
4.01
26.18
46.08
63.10
77.14
88.31
96.64
102.05
104.47
104.05
101.25
96.82
91.50
85.85
80.17
74.55
69.12
64.12
59.89
56.73
54.67
53.39
52.27
50.64
47.96
44.06
39.15
33.67
28.13
22.81
17.70
12.52
6.90
0.58
-6.44
-13.86
-21.23
-28.16
-34.45
-40.23
-45.89
-52.02
-59.25
-68.09
-78.73
-90.80
-103.19
-114.13
-121.48
-123.24
-118.21
-106.31
-88.62
-67.11
-44.06
-21.59
-1.29
15.82
29.29
39.18
45.90
50.12
52.58
53.92
54.56
54.60
53.97
52.55
50.32
47.49
44.47
41.76
39.84
38.96
39.05
39.68
40.21
40.01
38.74
36.53
33.90
31.53
29.92
29.13
28.81
28.37
27.37
25.71
23.76
22.18
21.57
22.22
23.85
25.58
26.08
23.87
17.83
7.65
-5.80
-20.46
-33.48
-42.05
-44.14
-39.11
-27.78
-11.96
6.14
24.57
41.96
57.45
70.52
80.80
87.94
91.62
91.66
88.11
81.35
72.19
61.83
51.59
42.63
35.57
30.32
26.26
22.66
19.12
15.78
13.18
11.78
11.56
11.80
11.27
8.64
2.92
-6.24
-18.60
-33.46
-49.82
-66.56
-82.56
-96.82
-108.69
-118.10
-125.60
-132.23
-139.07
-146.67
-154.59
-161.30
-164.56
-162.17
-152.73
-136.20
-113.89
-88.05
-61.10
-35.11
-11.34
9.62
27.64
42.71
54.68
63.29
68.27
69.55
67.43
62.56
55.81
48.03
39.96
32.00
24.26
16.60
8.80
0.66
-7.81
-16.42
-24.81
-32.59
-39.56
-45.82
-51.78
-58.00
-64.96
-72.72
-80.89
-88.77
-95.66
-101.23
-105.63
-109.43
-113.34
-117.99
-123.73
-130.54
-138.05
-145.44
-151.42
-154.29
-152.31
-144.27
-130.02
-110.63
-87.90
-63.58
-38.55
-12.55
15.45
46.41
80.22
115.38
149.10
178.13
199.61
211.80
214.32
207.98
194.40
175.56
153.52
130.12
107.05
85.70
67.01
51.43
38.74
28.14
18.52
8.80
-1.69
-13.08
-24.98
-36.80
-47.99
-58.31
-67.87
-76.94
-85.78
-94.41
-102.63
-110.14
-116.82
-122.94
-129.16
-136.40
-145.31
-155.84
-166.87
-176.38
-181.82
-181.02
-172.77
-157.29
-136.04
-111.21
-85.05
-59.43
-35.57
-14.21
4.25
19.63
31.88
41.17
47.81
52.22
54.78
55.81
55.60
54.41
52.60
50.54
48.62
47.14
46.27
46.04
46.27
46.67
46.79
46.26
44.71
41.96
37.97
32.73
26.28
18.71
10.24
1.21
-7.88
-16.52
-24.37
-31.34
-37.66
-43.78
-50.34
-57.94
-66.96
-77.31
-88.19
-98.12
-105.23
-107.72
-104.53
-95.61
-82.00
-65.35
-47.43
-29.64
-12.90
2.23
15.39
26.32
34.94
41.47
46.43
50.47
54.11
57.57
60.74
63.39
65.34
66.61
67.40
67.98
68.54
69.12
69.68
70.05
70.07
69.53
68.17
65.75
62.08
57.09
50.88
43.67
35.75
27.42
18.87
10.25
1.58
-7.22
-16.38
-26.14
-36.62
-47.56
-58.08
-66.80
-72.07
-72.49
-67.31
-56.73
-41.75
-23.88
-4.71
14.39
32.32
48.24
61.47
71.47
77.97
81.02
81.03
78.71
74.88
70.37
65.88
61.91
58.79
56.66
55.50
55.19
55.46
55.96
56.32
56.21
55.36
53.61
50.82
46.85
41.53
34.75
26.57
17.26
7.37
-2.49
-11.81
-20.43
-28.58
-36.81
-45.82
-56.10
-67.76
-80.38
-92.93
-103.83
-111.28
-113.54
-109.39
-98.47
-81.40
-59.65
-35.24
-10.26
13.47
34.64
52.53
67.00
78.30
87.03
93.85
99.38
104.03
107.98
111.15
113.29
114.11
113.45
111.34
108.13
104.42
100.85
97.97
95.99
94.74
93.72
92.27
89.71
85.52
79.36
71.12
60.90
49.05
36.08
22.61
9.28
-3.36
-14.94
-25.32
-34.65
-43.38
-52.24
-62.06
-73.45
-86.42
-100.14
-112.87
-122.41
-126.64
-124.17
-114.70
-99.14
-79.30
-57.37
-35.50
-15.37
1.97
16.11
27.14
35.47
41.62
46.00
48.93
50.57
51.07
50.59
49.38
47.74
45.94
44.29
43.04
42.40
42.47
43.21
44.35
45.49
46.14
45.90
44.57
42.14
38.80
34.78
30.23
25.25
19.85
14.07
7.97
1.61
-5.03
-12.09
-19.78
-28.22
-37.25
-46.50
-55.56
-64.23
-72.73
-81.46
-90.63
-99.87
-108.07
-113.75
-115.51
-112.56
-104.72
-92.08
-74.60
-52.07
-24.54
7.13
40.91
73.94
103.36
127.34
145.53
158.76
168.01
173.34
173.69
167.49
154.09
134.84
113.20
93.64
80.01
73.93
74.42
78.60
83.14
85.49
84.50
80.04
72.43
61.87
48.53
32.84
15.83
-1.03
-16.25
-28.85
-38.74
-46.55
-53.28
-59.75
-66.30
-72.73
-78.58
-83.43
-87.10
-89.82
-92.09
-94.56
-97.68
-101.47
-105.26
-107.83
-107.68
-103.65
-95.43
-83.86
-70.78
-58.43
-48.66
-42.27
-38.72
-36.43
-33.50
-28.51
-21.05
-11.81
-2.07
6.87
14.25
20.01
24.57
28.37
31.56
34.04
35.58
36.21
36.22
36.06
36.07
36.28
36.37
35.90
34.56
32.34
29.47
26.29
23.03
19.69
16.07
11.95
7.14
1.67
-4.25
-10.23
-15.86
-20.79
-24.84
-28.14
-31.16
-34.60
-39.16
-45.25
-52.71
-60.64
-67.65
-72.17
-72.94
-69.33
-61.47
-50.21
-36.75
-22.40
-8.31
4.64
15.87
24.98
31.82
36.37
38.81
39.50
38.91
37.53
35.72
33.69
31.45
28.97
26.27
23.45
20.74
18.35
16.46
15.10
14.18
13.51
12.84
11.91
10.50
8.45
5.71
2.40
-1.28
-5.06
-8.74
-12.25
-15.63
-19.08
-22.81
-27.01
-31.84
-37.37
-43.53
-50.08
-56.51
-62.03
-65.70
-66.57
-63.95
-57.63
-48.02
-36.08
-23.08
-10.34
1.07
10.51
17.76
22.98
26.41
28.33
28.96
28.44
26.93
24.65
21.86
18.82
15.80
13.02
10.67
8.89
7.71
7.04
6.66
6.30
5.73
4.78
3.42
1.66
-0.52
-3.14
-6.15
-9.40
-12.59
-15.37
-17.52
-19.08
-20.36
-21.79
-23.88
-27.02
-31.49
-37.38
-44.52
-52.33
-59.80
-65.55
-68.22
-66.90
-61.46
-52.62
-41.67
-30.02
-18.80
-8.67
0.12
7.63
13.97
19.24
23.48
26.71
28.98
30.35
30.94
30.89
30.36
29.52
28.56
27.66
26.98
26.58
26.39
26.20
25.76
24.88
23.54
21.84
19.95
17.99
15.93
13.63
10.89
7.59
3.65
-0.91
-5.95
-11.20
-16.27
-20.73
-24.22
-26.65
-28.30
-29.79
-31.84
-35.10
-39.76
-45.47
-51.40
-56.35
-59.19
-59.04
-55.56
-48.98
-40.00
-29.61
-18.81
-8.42
1.02
9.23
16.09
21.57
25.70
28.57
30.41
31.50
32.15
32.49
32.46
31.88
30.56
28.54
26.14
23.80
21.98
20.81
20.19
19.79
19.27
18.47
17.42
16.22
15.00
13.74
12.36
10.72
8.70
6.24
3.36
0.13
-3.35
-6.93
-10.47
-13.86
-17.10
-20.29
-23.67
-27.51
-32.05
-37.34
-43.10
-48.75
-53.43
-56.18
-56.13
-52.84
-46.36
-37.30
-26.63
-15.47
-4.79
4.70
12.64
18.96
23.78
27.29
29.71
31.27
32.15
32.53
32.48
32.00
31.05
29.62
27.82
25.90
24.17
22.91
22.28
22.19
22.38
22.47
22.13
21.20
19.73
17.87
15.87
13.84
11.76
9.49
6.82
3.67
0.10
-3.62
-7.18
-10.35
-13.11
-15.65
-18.26
-21.24
-24.77
-28.87
-33.45
-38.34
-43.21
-47.62
-50.97
-52.60
-51.93
-48.66
-42.88
-35.08
-26.04
-16.62
-7.58
0.52
7.37
12.86
17.04
20.02
21.94
22.91
23.06
22.49
21.39
19.92
18.31
16.68
15.12
13.70
12.52
11.72
11.39
11.53
11.92
12.20
12.02
11.22
9.86
8.23
6.65
5.32
4.22
3.11
1.78
0.04
-2.12
-4.60
-7.25
-9.91
-12.54
-15.14
-17.86
-20.91
-24.53
-28.80
-33.60
-38.45
-42.66
-45.42
-46.03
-44.12
-39.75
-33.33
-25.52
-17.07
-8.65
-0.76
6.27
12.27
17.18
21.02
23.82
25.64
26.57
26.70
26.20
25.20
23.89
22.36
20.73
19.08
17.57
16.36
15.56
15.20
15.15
15.18
15.00
14.45
13.50
12.25
10.82
9.30
7.67
5.85
3.74
1.33
-1.39
-4.31
-7.35
-10.40
-13.43
-16.43
-19.51
-22.83
-26.61
-30.99
-35.95
-41.18
-46.12
-50.01
-52.15
-51.98
-49.30
-44.22
-37.14
-28.64
-19.39
-9.99
-1.01
7.13
14.11
19.75
24.00
26.89
28.57
29.25
29.20
28.66
27.81
26.75
25.49
24.02
22.34
20.55
18.82
17.36
16.32
15.66
15.21
14.68
13.85
12.64
11.17
9.68
8.35
7.19
6.03
4.59
2.61
-0.03
-3.27
-6.94
-10.83
-14.72
-18.46
-22.01
-25.42
-28.91
-32.73
-37.10
-41.99
-46.99
-51.38
-54.24
-54.72
-52.32
-46.99
-39.16
-29.59
-19.18
-8.81
0.77
9.03
15.72
20.79
24.41
26.84
28.36
29.16
29.38
29.07
28.25
26.98
25.41
23.74
22.24
21.12
20.49
20.37
20.62
21.02
21.28
21.22
20.70
19.76
18.47
16.89
15.04
12.87
10.29
7.28
3.89
0.24
-3.50
-7.21
-10.81
-14.31
-17.81
-21.44
-25.33
-29.57
-34.24
-39.26
-44.41
-49.24
-53.11
-55.31
-55.24
-52.50
-47.13
-39.51
-30.35
-20.49
-10.74
-1.73
6.13
12.64
17.78
21.64
24.38
26.18
27.20
27.59
27.48
26.95
26.06
24.84
23.37
21.77
20.18
18.83
17.83
17.25
17.00
16.89
16.68
16.12
15.07
13.47
11.38
8.90
6.19
3.29
0.22
-3.10
-6.75
-10.76
-15.06
-19.50
-24.00
-28.59
-33.49
-38.88
-44.74
-50.67
-55.86
-59.30
-60.07
-57.70
-52.28
-44.41
-34.95
-24.71
-14.37
-4.37
4.91
13.15
20.01
25.23
28.71
30.56
31.06
30.54
29.25
27.41
25.18
22.79
20.55
18.73
17.52
16.88
16.63
16.48
16.22
15.79
15.25
14.76
14.36
14.00
13.49
12.60
11.15
9.06
6.44
3.48
0.40
-2.66
-5.68
-8.84
-12.42
-16.70
-21.90
-28.02
-34.83
-41.76
-48.02
-52.66
-54.82
-53.89
-49.74
-42.68
-33.44
-22.99
-12.24
-1.89
7.59
15.96
23.05
28.71
32.79
35.19
35.98
35.40
33.90
31.92
29.86
27.90
26.05
24.25
22.50
20.86
19.53
18.72
18.51
18.84
19.41
19.80
19.64
18.68
16.86
14.32
11.24
7.79
4.10
0.24
-3.79
-8.05
-12.74
-18.11
-24.32
-31.21
-38.13
-43.97
-47.48
-47.62
-44.03
-37.05
-27.61
-16.80
-5.64
5.09
14.84
23.07
29.36
33.39
35.15
34.95
33.39
31.16
28.82
26.64
24.63
22.65
20.57
18.44
16.44
14.81
13.72
13.17
12.98
12.83
12.36
11.25
9.34
6.61
3.22
-0.52
-4.28
-7.83
-11.03
-13.97
-16.91
-20.20
-24.21
-29.20
-35.27
-42.22
-49.42
-55.83
-60.23
-61.47
-58.87
-52.48
-42.99
-31.54
-19.31
-7.19
4.29
14.92
24.57
33.06
40.09
45.38
48.77
50.37
50.56
49.88
48.83
47.73
46.66
45.57
44.37
43.09
41.79
40.47
39.04
37.28
34.97
32.03
28.57
24.82
21.03
17.35
13.74
10.11
6.39
2.60
-1.14
-4.72
-8.13
-11.60
-15.49
-20.20
-25.98
-32.79
-40.06
-46.85
-51.90
-54.06
-52.61
-47.41
-39.03
-28.42
-16.75
-5.09
5.76
15.29
23.29
29.71
34.65
38.20
40.49
41.63
41.73
40.94
39.50
37.66
35.72
33.90
32.34
31.11
30.18
29.55
29.16
29.03
29.11
29.32
29.51
29.50
29.05
28.00
26.25
23.89
21.13
18.20
15.30
12.47
9.57
6.41
2.76
-1.40
-5.96
-10.68
-15.32
-19.70
-23.79
-27.68
-31.56
-35.62
-40.03
-44.89
-50.04
-55.00
-58.97
-60.95
-60.06
-55.79
-48.25
-38.13
-26.59
-14.82
-3.81
5.85
13.95
20.54
25.77
29.83
32.89
35.13
36.71
37.74
38.29
38.43
38.28
38.06
38.07
38.61
39.82
41.63
43.73
45.73
47.33
48.48
49.38
50.40
51.90
54.08
56.89
60.01
63.00
65.41
66.95
67.58
67.66
67.83
68.78
71.07
74.74
79.29
83.81
87.29
88.96
88.64
86.75
84.23
82.27
81.72
82.77
84.67
85.93
84.96
80.84
73.90
65.67
58.36
53.84
52.95
55.39
60.05
65.77
71.81
78.08
84.75
91.94
99.40
106.43
112.21
116.08
117.84
117.88
117.06
116.37
116.44
117.09
117.28
115.37
109.73
99.37
84.35
65.55
44.20
21.20
-3.35
-30.20
-60.69
-96.38
-138.96
-190.09
-250.88
-320.79
-396.45
-471.13
-535.84
-581.75
-603.31
-600.22
-577.27
-542.22
-502.57
-463.23
-425.82
-389.72
-353.72
-317.22
-280.12
-242.09
-202.02
-158.32
-110.15
-58.65
-7.25
39.18
76.07
100.97
114.40
119.40
120.06
119.78
120.29
121.45
122.14
121.18
118.15
113.47
108.06
102.86
98.42
94.84
91.86
89.14
86.39
83.51
80.41
77.08
73.42
69.36
64.95
60.36
55.86
51.56
47.40
43.13
38.41
33.11
27.27
21.12
14.92
8.86
2.86
-3.21
-9.48
-16.05
-22.81
-29.54
-35.89
-41.40
-45.49
-47.60
-47.20
-44.02
-38.18
-30.11
-20.51
-10.23
-0.06
9.32
17.35
23.70
28.23
31.01
32.38
32.75
32.58
32.14
31.51
30.56
29.22
27.55
25.80
24.41
23.75
23.94
24.84
26.06
27.09
27.58
27.33
26.37
24.93
23.23
21.47
19.75
18.01
16.06
13.62
10.51
6.69
2.30
-2.35
-6.91
-11.20
-15.16
-18.95
-22.83
-27.12
-32.00
-37.50
-43.36
-49.00
-53.58
-56.18
-56.05
-52.83
-46.70
-38.24
-28.28
-17.68
-7.15
2.79
11.70
19.30
25.39
29.96
33.20
35.30
36.48
36.81
36.25
34.71
32.28
29.27
26.19
23.54
21.69
20.74
20.53
20.77
21.16
21.41
21.35
20.84
19.82
18.25
16.15
13.53
10.45
6.98
3.29
-0.41
-3.97
-7.30
-10.52
-13.83
-17.50
-21.69
-26.45
-31.64
-37.04
-42.27
-46.84
-50.08
-51.29
-49.90
-45.64
-38.68
-29.64
-19.35
-8.76
1.36
10.46
18.14
24.28
28.89
32.11
34.14
35.20
35.46
35.04
34.06
32.67
31.05
29.36
27.70
26.14
24.73
23.57
22.76
22.36
22.27
22.22
21.91
21.07
19.65
17.79
15.62
13.21
10.47
7.20
3.23
-1.48
-6.77
-12.28
-17.65
-22.62
-27.08
-31.20
-35.26
-39.63
-44.54
-50.00
-55.70
-60.99
-65.00
-66.81
-65.70
-61.32
-53.79
-43.66
-31.82
-19.20
-6.68
5.14
15.85
25.24
33.22
39.79
45.06
49.17
52.31
54.61
56.17
57.12
57.64
57.80
57.79
58.05
59.03
60.94
63.73
67.13
70.88
74.83
78.65
82.23
85.73
89.61
94.45
100.60
107.98
115.94
123.31
128.19
129.30
126.86
122.55
118.56
116.27
115.67
115.25
112.67
104.16
87.58
63.92
36.81
10.51
-11.83
-28.71
-39.97
-46.47
-52.95
-63.04
-76.85
-91.21
-102.80
-110.57
-115.63
-119.72
-123.78
-132.61
-147.95
-166.75
-183.34
-194.67
-202.81
-212.32
-226.71
-246.49
-277.51
-323.77
-384.70
-455.49
-530.25
-603.90
-670.93
-725.51
-717.60
-623.23
-461.49
-283.35
-132.81
-25.93
42.43
85.30
114.36
136.82
148.18
143.97
126.04
101.67
80.80
68.55
65.31
68.45
74.97
76.56
67.71
49.26
27.60
9.93
0.25
-0.11
5.26
13.65
19.54
19.47
14.02
7.11
2.93
3.15
7.33
13.79
21.36
27.52
30.93
32.27
33.70
37.25
43.40
51.39
59.96
68.45
76.09
82.90
89.74
97.80
107.86
119.68
132.37
144.88
156.76
168.12
179.53
191.90
206.30
223.72
244.71
268.87
294.31
317.78
335.08
342.42
337.76
321.65
296.92
267.55
237.16
207.91
180.40
154.31
129.27
105.48
83.77
65.06
49.93
38.33
29.70
23.32
18.63
15.35
13.47
13.01
13.73
15.16
16.56
17.14
16.41
14.25
11.01
7.27
3.62
0.43
-2.29
-4.75
-7.28
-10.05
-13.03
-15.87
-18.15
-19.48
-19.73
-19.07
-17.97
-16.98
-16.58
-17.04
-18.30
-20.07
-21.98
-23.74
-25.23
-26.57
-28.01
-29.76
-32.00
-34.83
-38.30
-42.43
-47.08
-51.87
-56.06
-58.77
-59.19
-56.98
-52.39
-46.10
-38.97
-31.65
-24.44
-17.40
-10.57
-4.19
1.36
5.63
8.44
9.89
10.34
10.16
9.58
8.66
7.36
5.69
3.74
1.73
-0.13
-1.64
-2.72
-3.30
-3.36
-2.92
-2.12
-1.24
-0.70
-0.89
-2.07
-4.19
-6.97
-9.98
-12.86
-15.49
-17.97
-20.60
-23.66
-27.30
-31.52
-36.23
-41.32
-46.69
-52.09
-57.06
-60.83
-62.51
-61.36
-57.10
-49.97
-40.75
-30.42
-19.90
-9.85
-0.67
7.44
14.39
20.10
24.60
27.95
30.30
31.84
32.74
33.12
32.99
32.37
31.30
29.92
28.43
27.09
26.12
25.66
25.63
25.87
26.11
26.07
25.65
24.80
23.59
22.08
20.31
18.23
15.79
12.98
9.90
6.72
3.56
0.41
-2.96
-6.94
-11.88
-17.91
-24.84
-32.21
-39.42
-45.87
-51.02
-54.35
-55.36
-53.64
-49.05
-41.83
-32.66
-22.46
-12.18
-2.50
6.25
14.03
20.92
26.96
32.13
36.34
39.56
41.87
43.45
44.54
45.34
46.02
46.67
47.41
48.32
49.55
51.18
53.23
55.63
58.22
60.84
63.40
65.89
68.37
70.93
73.75
77.01
80.93
85.71
91.50
98.23
105.52
112.50
118.00
120.90
120.52
116.88
110.58
102.32
92.49
80.93
67.21
51.14
33.19
14.52
-3.36
-19.03
-31.67
-40.95
-46.74
-48.78
-46.60
-39.93
-29.16
-15.73
-1.94
9.47
16.16
16.78
11.20
0.01
-16.10
-36.87
-62.25
-91.85
-124.22
-156.88
-186.99
-212.42
-232.52
-247.82
-259.07
-266.15
-267.76
-261.97
-247.43
-224.42
-195.13
-163.01
-131.76
-104.32
-82.39
-66.53
-56.31
-50.77
-48.61
-48.41
-48.82
-48.55
-46.43
-41.41
-32.76
-20.49
-5.59
9.92
23.54
33.08
37.34
36.47
31.75
25.05
18.13
12.30
8.21
6.12
6.07
8.03
11.91
17.47
24.22
31.46
38.39
44.32
48.76
51.59
52.94
53.13
52.49
51.27
49.54
47.36
44.77
41.95
39.18
36.79
35.03
33.94
33.34
32.94
32.45
31.68
30.62
29.33
27.94
26.53
25.19
23.96
22.81
21.60
20.03
17.75
14.54
10.44
5.75
0.97
-3.45
-7.28
-10.59
-13.71
-17.04
-20.92
-25.50
-30.61
-35.81
-40.44
-43.76
-45.09
-43.98
-40.28
-34.24
-26.41
-17.66
-8.88
-0.92
5.70
10.84
14.65
17.49
19.64
21.24
22.25
22.57
22.17
21.15
19.77
18.30
17.01
16.06
15.55
15.48
15.80
16.45
17.31
18.25
19.01
19.29
18.77
17.23
14.61
11.12
7.04
2.67
-1.77
-6.20
-10.63
-15.08
-19.53
-24.04
-28.69
-33.61
-38.83
-44.11
-48.87
-52.29
-53.50
-51.98
-47.69
-41.12
-33.08
-24.42
-15.83
-7.76
-0.45
5.95
11.34
15.67
18.93
21.23
22.72
23.55
23.85
23.71
23.20
22.42
21.53
20.72
20.09
19.69
19.40
19.03
18.38
17.35
16.00
14.51
13.06
11.72
10.37
8.75
6.63
3.92
0.71
-2.81
-6.45
-10.10
-13.73
-17.35
-21.05
-24.95
-29.31
-34.32
-40.03
-46.09
-51.75
-55.96
-57.71
-56.33
-51.69
-44.27
-34.88
-24.50
-13.99
-3.97
5.16
13.18
19.90
25.24
29.13
31.71
33.25
34.08
34.46
34.45
33.88
32.62
30.69
28.46
26.47
25.26
25.04
25.61
26.46
27.04
27.00
26.32
25.22
23.92
22.52
20.87
18.63
15.48
11.31
6.33
1.03
-4.04
-8.48
-12.24
-15.64
-19.21
-23.54
-28.97
-35.54
-42.86
-50.22
-56.70
-61.33
-63.27
-62.01
-57.47
-50.04
-40.47
-29.75
-18.83
-8.46
0.90
9.10
16.15
22.11
26.95
30.60
33.01
34.28
34.66
34.52
34.18
33.84
33.56
33.30
33.02
32.69
32.25
31.62
30.69
29.37
27.71
25.81
23.80
21.70
19.35
16.53
13.13
9.27
5.28
1.60
-1.59
-4.38
-7.14
-10.42
-14.61
-19.87
-26.12
-33.01
-40.04
-46.55
-51.74
-54.77
-54.89
-51.75
-45.47
-36.71
-26.46
-15.81
-5.65
3.41
11.15
17.58
22.88
27.20
30.67
33.30
35.08
36.02
36.17
35.73
34.88
33.90
33.01
32.35
31.96
31.85
31.93
32.11
32.36
32.63
32.93
33.30
33.87
34.81
36.38
38.78
41.86
45.08
47.37
47.46
44.30
37.48
27.45
15.32
2.47
-9.81
-20.48
-28.67
-33.64
-34.84
-32.16
-26.14
-17.91
-8.87
-0.25
7.32
13.78
19.38
24.28
28.56
32.14
35.22
38.33
42.10
47.10
53.54
61.17
69.25
76.73
82.55
86.14
87.60
87.10
84.08
76.64
62.29
39.35
8.58
-26.61
-61.22
-90.84
-113.22
-128.39
-137.46
-141.17
-139.50
-132.71
-122.80
-113.82
-110.37
-115.08
-126.52
-139.80
-148.74
-148.99
-139.82
-123.81
-104.92
-86.54
-70.27
-55.97
-42.80
-30.15
-18.14
-7.41
1.33
7.78
12.16
15.08
17.27
19.22
21.07
22.63
23.54
23.56
22.68
21.27
19.90
19.07
18.87
18.90
18.37
16.48
12.76
7.32
0.73
-6.28
-13.21
-20.06
-27.22
-35.20
-44.10
-53.41
-61.93
-68.12
-70.68
-69.06
-63.69
-55.83
-47.11
-39.21
-33.66
-31.88
-35.20
-44.63
-60.28
-80.96
-104.31
-127.56
-148.59
-166.63
-182.22
-196.32
-209.31
-220.23
-226.98
-227.08
-218.75
-201.50
-176.08
-143.97
-106.70
-65.62
-21.93
22.82
66.50
106.64
140.96
168.13
188.11
201.92
210.87
215.72
216.29
211.99
202.64
189.20
173.94
159.63
148.51
141.47
138.09
137.22
137.82
139.48
142.26
146.25
151.06
155.69
158.89
159.51
156.90
150.94
141.86
130.10
116.23
100.98
85.28
70.27
57.10
46.70
39.57
35.73
34.71
35.67
37.53
39.13
39.43
37.55
32.95
25.52
15.63
4.09
-7.99
-19.49
-29.60
-37.96
-44.67
-50.08
-54.54
-58.29
-61.41
-64.03
-66.33
-68.56
-70.96
-73.56
-76.10
-78.03
-78.59
-76.91
-72.29
-64.40
-53.43
-40.18
-25.79
-11.33
2.49
15.52
27.92
39.86
51.16
61.21
69.22
74.56
77.07
76.95
74.68
70.56
64.80
57.54
49.21
40.58
32.59
25.99
20.98
17.12
13.66
9.88
5.46
0.51
-4.71
-10.01
-15.43
-21.17
-27.35
-33.88
-40.45
-46.65
-52.14
-56.81
-60.60
-63.41
-64.88
-64.44
-61.38
-55.13
-45.52
-32.94
-18.28
-2.73
12.47
26.37
38.37
48.15
55.62
60.74
63.53
64.00
62.19
58.08
51.63
42.88
32.06
19.84
7.24
-4.53
-14.45
-21.95
-27.01
-29.90
-30.98
-30.40
-28.16
-24.25
-18.78
-12.01
-4.35
3.83
12.22
20.62
28.85
36.76
44.26
51.29
57.79
63.57
68.29
71.44
72.48
71.02
66.78
59.64
49.50
36.36
20.41
2.23
-17.10
-36.11
-53.34
-67.69
-78.79
-86.89
-92.68
-96.89
-99.93
-101.83
-102.21
-100.43
-95.73
-87.53
-75.56
-60.11
-42.05
-22.66
-3.33
14.92
31.63
46.87
60.88
73.61
84.38
91.91
94.69
91.65
82.71
68.98
52.57
36.05
21.67
10.80
3.77
0.15
-0.79
0.35
3.31
8.02
14.29
21.55
28.72
34.35
36.92
35.32
29.26
19.45
7.54
-4.41
-14.62
-22.24
-27.53
-31.54
-35.37
-39.32
-42.64
-43.83
-41.34
-34.49
-23.71
-10.51
3.26
16.00
26.79
35.46
42.18
47.07
50.00
50.56
48.31
43.15
35.53
26.40
17.04
8.61
1.98
-2.39
-4.25
-3.35
0.66
7.91
17.92
29.20
39.34
45.64
45.97
39.70
27.90
12.97
-2.33
-15.88
-26.68
-34.84
-40.99
-45.72
-49.12
-50.68
-49.46
-44.51
-35.32
-22.16
-6.38
9.77
23.71
33.22
37.22
35.95
30.74
23.31
15.11
7.02
-0.59
-7.53
-13.53
-18.16
-20.94
-21.46
-19.45
-14.71
-7.13
3.19
15.87
30.03
44.31
57.08
66.76
72.02
72.07
66.77
56.69
43.07
27.52
11.62
-3.58
-17.87
-31.70
-45.72
-60.12
-74.23
-86.54
-95.25
-98.95
-97.12
-90.23
-79.33
-65.55
-49.77
-32.59
-14.53
3.74
21.38
37.61
51.94
64.26
74.80
83.75
90.96
95.90
97.73
95.70
89.48
79.41
66.49
52.13
37.78
24.53
12.94
2.99
-5.68
-13.48
-20.65
-27.22
-33.13
-38.42
-43.38
-48.49
-54.30
-61.15
-68.96
-77.22
-85.07
-91.52
-95.72
-97.18
-95.80
-91.92
-86.16
-79.19
-71.65
-63.98
-56.42
-49.06
-41.89
-34.87
-28.01
-21.36
-14.99
-8.93
-3.11
2.61
8.43
14.44
20.62
26.73
32.49
37.64
42.08
45.92
49.40
52.78
56.29
59.98
63.70
67.01
69.21
69.41
66.69
60.33
50.05
36.13
19.43
1.24
-16.89
-33.46
-47.23
-57.38
-63.64
-66.31
-66.25
-64.71
-63.09
-62.54
-63.61
-66.08
-69.01
-71.10
-71.29
-69.23
-65.42
-60.87
-56.54
-52.63
-48.37
-42.26
-32.73
-18.84
-0.80
19.92
40.84
58.50
68.80
67.34
50.42
16.33
-33.64
-94.95
-160.84
-224.04
-278.61
-320.79
-348.93
-362.78
-362.78
-349.81
-325.45
-292.35
-254.25
-215.53
-180.41
-151.99
-131.54
-118.07
-108.49
-98.60
-84.58
-64.66
-39.89
-13.48
10.77
30.43
45.43
57.51
68.74
80.21
91.58
101.82
110.49
118.37
127.07
138.01
151.14
164.81
176.56
184.45
188.21
189.42
190.75
194.60
201.82
211.07
219.11
221.83
215.64
198.72
171.58
136.88
98.52
60.44
25.73
-3.87
-27.85
-46.51
-60.53
-70.72
-77.95
-83.07
-86.71
-89.12
-90.02
-88.78
-84.77
-77.82
-68.40
-57.54
-46.43
-36.03
-26.82
-18.80
-11.68
-5.13
1.02
6.73
11.87
16.21
19.56
21.87
23.32
24.41
25.91
28.76
33.77
41.36
51.32
62.76
74.24
84.18
91.29
95.02
95.67
94.33
92.56
91.91
93.54
97.87
104.59
112.73
121.11
128.58
134.33
137.89
139.04
137.65
133.72
127.48
119.52
110.75
102.10
94.16
86.87
79.65
71.76
62.88
53.31
43.79
35.14
27.69
21.24
15.22
9.15
2.86
-3.42
-9.38
-14.80
-19.66
-24.10
-28.29
-32.39
-36.66
-41.48
-47.26
-54.15
-61.83
-69.42
-75.74
-79.70
-80.69
-78.89
-75.26
-71.37
-69.03
-69.82
-74.53
-82.83
-93.19
-103.30
-110.63
-113.30
-110.57
-102.91
-91.80
-79.11
-66.66
-55.89
-47.68
-42.41
-39.91
-39.60
-40.54
-41.74
-42.27
-41.52
-39.34
-36.02
-32.26
-29.03
-27.30
-27.77
-30.34
-33.59
-34.76
-30.28
-17.04
6.29
38.48
75.84
113.38
146.19
170.48
183.96
185.73
176.07
156.62
130.66
102.98
78.95
62.92
56.64
58.64
65.04
71.34
74.29
72.89
68.14
62.02
56.30
51.97
49.35
48.56
49.77
53.06
58.14
63.99
68.96
71.16
69.06
61.90
49.94
34.43
17.30
0.72
-13.46
-24.08
-30.93
-34.70
-36.53
-37.63
-38.84
-40.66
-43.29
-46.83
-51.23
-56.33
-61.70
-66.76
-70.94
-73.94
-75.80
-76.89
-77.64
-78.29
-78.74
-78.55
-77.13
-74.01
-69.04
-62.50
-54.91
-46.94
-39.09
-31.72
-25.04
-19.25
-14.37
-10.20
-6.10
-1.18
5.35
13.68
23.21
32.76
40.98
46.90
49.93
49.69
45.64
37.03
23.33
4.77
-17.49
-41.65
-66.18
-90.60
-115.31
-140.78
-166.22
-189.01
-205.10
-210.52
-203.02
-183.00
-153.33
-118.22
-81.96
-48.12
-19.27
2.69
16.42
21.26
17.72
7.68
-5.71
-18.69
-27.77
-30.62
-26.49
-16.33
-2.39
12.48
25.50
34.70
39.27
39.54
36.72
32.42
28.11
24.82
22.95
22.41
22.80
23.55
24.19
24.37
23.84
22.42
19.97
16.37
11.63
5.92
-0.39
-6.73
-12.50
-17.14
-20.26
-21.60
-21.06
-18.67
-14.60
-9.16
-2.83
3.86
10.36
16.20
21.05
24.76
27.34
28.92
29.69
29.90
29.78
29.50
29.16
28.74
28.16
27.35
26.32
25.20
24.19
23.47
23.12
23.00
22.82
22.18
20.81
18.61
15.80
12.72
9.66
6.72
3.71
0.29
-3.76
-8.34
-12.94
-16.75
-19.02
-19.33
-17.69
-14.55
-10.50
-6.00
-1.38
3.27
7.88
12.30
16.30
19.60
21.97
23.36
23.79
23.40
22.32
20.70
18.69
16.50
14.39
12.58
11.20
10.16
9.26
8.19
6.74
4.91
2.84
0.77
-1.13
-2.95
-4.98
-7.67
-11.39
-16.31
-22.29
-28.92
-35.67
-42.02
-47.53
-51.88
-54.67
-55.46
-53.78
-49.24
-41.75
-31.55
-19.22
-5.54
8.65
22.52
35.32
46.44
55.37
61.91
66.15
68.58
69.98
71.14
72.62
74.41
75.83
75.68
72.83
66.58
57.22
45.89
34.00
22.46
11.20
-0.56
-13.42
-27.06
-40.03
-50.65
-58.03
-62.78
-66.45
-70.32
-73.97
-75.11
-70.50
-57.84
-37.09
-10.85
16.71
41.62
61.38
75.48
84.81
90.83
94.83
97.75
100.20
102.61
105.32
108.43
111.72
114.71
116.74
117.19
115.67
112.04
106.42
99.09
90.30
80.16
68.52
55.08
39.69
22.68
5.09
-11.43
-25.28
-35.62
-42.79
-48.21
-53.66
-60.41
-68.65
-77.54
-85.84
-92.67
-97.91
-102.16
-106.25
-110.62
-115.13
-119.15
-121.95
-123.13
-122.82
-121.54
-119.79
-117.63
-114.53
-109.41
-101.22
-89.37
-74.20
-56.95
-39.51
-23.87
-11.63
-3.58
0.38
1.04
-0.45
-3.02
-5.96
-8.95
-11.85
-14.45
-16.34
-16.97
-15.91
-13.08
-8.85
-3.85
1.35
6.46
11.51
16.67
21.89
26.83
30.81
33.16
33.50
31.94
29.06
25.64
22.29
19.37
16.85
14.57
12.40
10.42
8.90
8.22
8.71
10.45
13.28
16.75
20.28
23.33
25.57
27.02
28.04
29.23
31.18
34.49
39.59
46.73
55.94
66.87
78.84
90.77
101.56
110.50
117.55
123.27
128.32
132.90
136.40
137.81
136.46
132.92
129.08
127.58
130.43
137.94
148.31
158.32
164.73
165.44
159.91
148.66
132.47
111.86
87.34
60.03
31.95
5.84
-15.96
-32.35
-43.86
-52.02
-58.30
-63.21
-66.12
-65.89
-61.81
-54.23
-44.42
-33.97
-24.07
-15.12
-6.86
1.16
9.18
16.96
23.90
29.28
32.57
33.60
32.52
29.74
25.64
20.54
14.62
8.00
0.81
-6.83
-14.79
-22.99
-31.31
-39.56
-47.41
-54.39
-60.00
-63.99
-66.44
-67.87
-69.10
-70.99
-74.14
-78.76
-84.60
-91.12
-97.62
-103.35
-107.58
-109.60
-108.75
-104.62
-97.19
-86.99
-74.96
-62.26
-49.91
-38.54
-28.32
-19.09
-10.59
-2.67
4.57
10.83
15.69
18.90
20.47
20.74
20.24
19.50
18.72
17.67
15.73
12.10
6.14
-2.40
-13.25
-25.72
-38.83
-51.56
-62.97
-72.39
-79.34
-83.75
-85.87
-86.23
-85.50
-84.16
-82.37
-79.97
-76.72
-72.70
-68.53
-65.26
-63.88
-64.73
-67.22
-69.91
-71.15
-69.81
-65.72
-59.57
-52.38
-45.05
-38.00
-31.33
-25.08
-19.52
-15.09
-12.13
-10.62
-10.03
-9.53
-8.32
-5.97
-2.54
1.52
5.63
9.38
12.65
15.58
18.37
21.11
23.67
25.74
27.04
27.53
27.43
27.24
27.60
29.09
32.21
37.27
44.27
52.73
61.48
68.81
72.78
71.91
65.72
55.01
41.64
27.77
15.09
4.31
-4.82
-13.11
-21.27
-29.60
-37.90
-45.78
-52.88
-59.04
-64.25
-68.46
-71.52
-73.17
-73.21
-71.65
-68.81
-65.26
-61.69
-58.64
-56.40
-54.99
-54.16
-53.59
-53.01
-52.29
-51.36
-50.19
-48.70
-46.75
-44.22
-41.09
-37.53
-33.80
-30.21
-27.01
-24.43
-22.57
-21.51
-21.18
-21.40
-21.84
-22.10
-21.87
-21.03
-19.68
-18.08
-16.50
-15.13
-14.01
-13.16
-12.57
-12.25
-12.21
-12.40
-12.71
-13.04
-13.45
-14.16
-15.56
-17.98
-21.49
-25.74
-29.91
-33.00
-34.07
-32.61
-28.66
-22.70
-15.48
-7.76
-0.17
6.84
12.94
17.88
21.49
23.71
24.60
24.32
23.09
21.17
18.80
16.28
13.86
11.72
9.87
8.18
6.40
4.40
2.17
-0.07
-2.11
-3.78
-5.15
-6.48
-8.10
-10.33
-13.38
-17.28
-21.94
-27.08
-32.18
-36.48
-39.10
-39.29
-36.62
-31.19
-23.62
-14.84
-5.82
2.68
10.22
16.63
21.84
25.77
28.26
29.13
28.34
26.09
22.85
19.24
15.85
13.09
11.01
9.43
8.04
6.65
5.22
3.90
2.82
2.01
1.30
0.35
-1.20
-3.67
-7.20
-11.79
-17.31
-23.48
-29.77
-35.46
-39.61
-41.29
-39.80
-34.95
-27.11
-17.20
-6.36
4.32
14.00
22.20
28.73
33.53
36.62
38.03
37.91
36.53
34.29
31.67
29.08
26.79
24.88
23.28
21.89
20.64
19.57
18.72
18.08
17.43
16.42
14.68
11.90
8.07
3.35
-1.97
-7.69
-13.75
-20.22
-27.04
-33.81
-39.74
-43.67
-44.54
-41.66
-35.05
-25.40
-13.89
-1.79
9.81
20.17
28.86
35.64
40.37
43.01
43.65
42.63
40.47
37.77
35.03
32.57
30.50
28.77
27.36
26.28
25.54
25.10
24.81
24.43
23.67
22.31
20.27
17.53
14.20
10.40
6.22
1.66
-3.42
-9.28
-16.12
-23.98
-32.40
-40.50
-46.94
-50.38
-49.75
-44.64
-35.40
-23.07
-9.05
5.19
18.43
29.83
39.01
45.87
50.50
53.09
53.83
53.04
51.12
48.60
46.00
43.67
41.71
39.93
38.07
35.98
33.75
31.73
30.30
29.65
29.60
29.61
29.02
27.30
24.29
20.22
15.56
10.82
6.27
1.93
-2.41
-7.08
-12.43
-18.78
-26.27
-34.82
-43.96
-52.73
-59.79
-63.67
-63.17
-57.74
-47.74
-34.33
-19.21
-4.13
9.49
20.80
29.54
35.83
40.03
42.52
43.58
43.45
42.38
40.68
38.68
36.74
35.07
33.83
33.01
32.58
32.49
32.71
33.26
34.07
34.97
35.66
35.73
34.80
32.64
29.26
24.94
20.09
15.12
10.29
5.67
1.21
-3.23
-7.82
-12.82
-18.54
-25.29
-33.12
-41.61
-49.73
-56.01
-58.94
-57.45
-51.32
-41.18
-28.33
-14.31
-0.50
12.08
22.85
31.53
38.10
42.62
45.21
46.12
45.65
44.21
42.18
39.98
37.83
35.96
34.52
33.63
33.47
34.09
35.44
37.20
38.96
40.21
40.59
39.94
38.32
35.94
33.02
29.74
26.15
22.22
17.88
13.09
7.92
2.55
-2.79
-7.85
-12.52
-16.85
-21.08
-25.55
-30.63
-36.52
-43.11
-49.83
-55.66
-59.30
-59.50
-55.51
-47.39
-36.08
-23.13
-10.21
1.39
10.99
18.49
24.09
28.01
30.37
31.21
30.68
29.04
26.75
24.29
22.03
20.15
18.68
17.55
16.76
16.37
16.47
17.05
17.99
18.96
19.54
19.36
18.15
15.86
12.58
8.57
4.13
-0.45
-4.98
-9.43
-13.95
-18.92
-24.75
-31.70
-39.58
-47.63
-54.56
-58.91
-59.46
-55.66
-47.80
-36.91
-24.43
-11.75
0.08
10.53
19.47
26.94
32.93
37.33
39.98
40.86
40.18
38.35
35.91
33.32
30.89
28.73
26.91
25.42
24.28
23.50
23.07
22.88
22.74
22.46
21.77
20.39
18.13
14.88
10.72
5.90
0.77
-4.36
-9.32
-14.18
-19.11
-24.36
-30.17
-36.75
-44.14
-52.24
-60.59
-68.36
-74.40
-77.48
-76.64
-71.48
-62.37
-50.22
-36.34
-22.04
-8.37
3.90
14.33
22.77
29.21
33.81
36.89
38.79
39.91
40.51
40.79
40.80
40.59
40.19
39.77
39.54
39.76
40.56
41.93
43.66
45.34
46.52
46.85
46.18
44.58
42.34
39.83
37.36
35.06
32.77
30.22
27.06
23.14
18.49
13.37
8.16
3.18
-1.40
-5.66
-9.78
-14.03
-18.57
-23.42
-28.45
-33.49
-38.41
-43.19
-47.97
-53.05
-58.77
-65.38
-72.81
-80.53
-87.54
-92.51
-94.10
-91.32
-83.91
-72.42
-58.09
-42.45
-26.93
-12.60
-0.01
10.64
19.39
26.37
31.76
35.81
38.77
40.94
42.51
43.60
44.19
44.25
43.82
43.09
42.36
41.98
42.16
42.97
44.22
45.62
46.79
47.41
47.27
46.31
44.64
42.47
40.06
37.57
35.07
32.45
29.52
26.10
22.12
17.72
13.16
8.76
4.75
1.17
-2.13
-5.46
-9.16
-13.42
-18.24
-23.39
-28.52
-33.33
-37.69
-41.67
-45.61
-49.97
-55.22
-61.64
-69.10
-76.94
-83.89
-88.43
-89.09
-84.98
-76.10
-63.34
-48.22
-32.42
-17.39
-4.03
7.32
16.68
24.25
30.20
34.63
37.57
39.13
39.56
39.28
38.77
38.41
38.32
38.39
38.41
38.23
37.95
37.79
38.04
38.76
39.72
40.53
40.72
40.07
38.59
36.52
34.11
31.52
28.74
25.65
22.17
18.34
14.33
10.34
6.49
2.72
-1.15
-5.35
-9.95
-14.87
-19.83
-24.56
-28.88
-32.88
-36.85
-41.22
-46.40
-52.57
-59.56
-66.82
-73.42
-78.19
-80.02
-78.08
-72.07
-62.39
-49.98
-36.15
-22.25
-9.35
1.91
11.31
18.90
24.84
29.32
32.50
34.53
35.62
35.96
35.76
35.18
34.35
33.43
32.60
32.08
32.01
32.43
33.26
34.30
35.30
36.05
36.39
36.20
35.41
33.97
31.85
29.12
25.90
22.41
18.90
15.55
12.44
9.46
6.40
2.96
-1.09
-5.80
-10.99
-16.31
-21.39
-26.00
-30.13
-34.00
-38.04
-42.69
-48.31
-54.94
-62.25
-69.50
-75.58
-79.22
-79.32
-75.23
-67.00
-55.40
-41.73
-27.46
-13.86
-1.75
8.48
16.81
23.35
28.26
31.66
33.73
34.69
34.85
34.53
33.98
33.34
32.67
32.02
31.48
31.17
31.22
31.66
32.40
33.27
34.05
34.57
34.70
34.31
33.29
31.49
28.90
25.63
22.06
18.58
15.47
12.73
10.01
6.81
2.76
-2.16
-7.61
-13.01
-17.92
-22.16
-25.93
-29.64
-33.66
-38.24
-43.48
-49.41
-56.00
-63.04
-69.99
-75.85
-79.35
-79.22
-74.74
-65.93
-53.73
-39.59
-25.12
-11.60
0.20
9.99
17.79
23.76
28.06
30.86
32.38
32.88
32.65
32.01
31.20
30.40
29.68
29.10
28.71
28.58
28.80
29.45
30.53
31.90
33.27
34.24
34.41
33.54
31.62
28.91
25.79
22.64
19.64
16.77
13.79
10.41
6.43
1.74
-3.60
-9.43
-15.57
-21.80
-27.94
-33.81
-39.30
-44.49
-49.67
-55.32
-61.92
-69.57
-77.79
-85.53
-91.55
-94.87
-95.22
-93.10
-89.41
-84.97
-80.07
-74.48
-67.77
-59.79
-51.05
-42.73
-36.33
-33.12
-33.73
-37.85
-44.24
-51.09
-56.39
-58.47
-56.18
-49.21
-38.13
-24.53
-10.86
0.22
6.93
9.56
10.97
15.77
28.45
51.17
82.47
117.67
150.72
176.56
192.60
198.83
196.75
187.97
173.50
153.99
130.36
104.33
78.19
54.08
33.22
15.46
-0.45
-16.12
-32.65
-50.03
-67.01
-81.66
-92.14
-97.54
-98.19
-95.37
-90.61
-84.90
-78.39
-70.56
-60.83
-49.14
-36.15
-23.14
-11.41
-1.78
5.62
11.35
16.28
21.25
26.79
33.04
39.84
46.89
53.81
60.22
65.74
69.96
72.42
72.73
70.78
66.82
61.48
55.54
49.66
44.09
38.67
32.99
26.67
19.64
12.23
5.06
-1.18
-6.11
-9.78
-12.81
-16.18
-20.93
-27.74
-36.50
-46.12
-54.72
-60.12
-60.57
-55.34
-44.99
-31.10
-15.74
-0.78
12.54
23.74
32.87
40.29
46.32
51.22
55.19
58.42
61.16
63.66
66.09
68.48
70.67
72.35
73.18
72.89
71.48
69.09
66.00
62.42
58.37
53.68
48.19
41.88
35.02
28.11
21.59
15.67
10.16
4.49
-1.98
-9.69
-18.70
-28.62
-38.76
-48.45
-57.30
-65.32
-72.94
-80.60
-88.37
-95.66
-101.17
-103.28
-100.54
-92.30
-78.83
-61.22
-41.04
-19.79
1.30
21.37
39.83
56.24
70.23
81.55
90.12
96.02
99.51
100.84
100.22
97.71
93.35
87.22
79.61
71.06
62.26
53.85
46.23
39.37
32.91
26.31
19.06
10.88
1.73
-8.25
-18.89
-30.10
-41.84
-54.10
-66.87
-80.08
-93.69
-107.62
-121.87
-136.36
-150.81
-164.78
-177.72
-189.20
-199.24
-208.37
-217.42
-227.08
-237.30
-246.95
-253.94
-255.78
-250.39
-236.74
-215.13
-187.02
-154.52
-119.93
-85.49
-53.19
-24.83
-1.82
15.10
26.04
32.02
34.70
35.88
36.93
38.54
40.65
42.75
44.26
44.88
44.78
44.47
44.61
45.61
47.39
49.22
49.99
48.64
44.76
38.95
32.84
28.63
28.37
33.40
44.01
59.45
78.19
98.19
117.16
132.81
143.20
147.22
144.95
137.61
127.03
114.77
101.48
86.81
70.05
51.08
31.06
12.37
-2.10
-10.01
-10.56
-4.76
4.89
15.29
23.69
28.46
29.31
27.05
23.03
18.49
14.13
9.99
5.62
0.38
-6.36
-14.95
-25.27
-36.61
-47.64
-56.58
-61.65
-61.59
-56.06
-45.63
-31.61
-15.68
0.24
14.20
24.33
29.38
29.41
26.24
23.26
24.42
32.98
50.24
75.26
105.32
136.96
166.88
192.49
212.06
224.53
229.52
227.42
219.38
206.98
191.82
175.04
157.16
138.44
119.25
100.45
83.27
68.94
58.08
50.32
44.44
38.93
32.70
25.51
17.93
10.78
4.61
-0.67
-5.59
-10.66
-15.97
-21.08
-25.39
-28.68
-31.36
-34.39
-38.68
-44.48
-51.05
-56.97
-60.75
-61.62
-59.89
-56.81
-54.01
-52.88
-54.14
-57.79
-63.38
-70.38
-78.36
-87.03
-96.11
-105.18
-113.78
-121.54
-128.41
-134.70
-141.00
-147.87
-155.59
-163.99
-172.51
-180.42
-186.94
-191.46
-193.61
-193.16
-190.02
-184.15
-175.63
-164.68
-151.66
-137.04
-121.36
-105.30
-89.71
-75.70
-64.44
-56.78
-52.83
-51.86
-52.47
-53.15
-52.94
-51.64
-49.65
-47.52
-45.57
-43.77
-41.90
-39.56
-36.11
-30.32
-20.33
-4.11
19.59
50.23
85.11
119.88
149.85
171.45
183.17
185.64
180.96
171.65
159.96
147.44
135.05
123.36
112.80
103.63
95.88
89.24
83.03
76.37
68.47
58.91
47.84
35.91
24.03
12.93
2.95
-6.02
-14.33
-22.18
-29.40
-35.33
-39.00
-39.47
-36.11
-28.93
-18.69
-6.92
4.00
11.19
11.70
3.46
-13.95
-38.71
-66.87
-93.15
-112.35
-120.74
-117.00
-102.27
-79.51
-52.45
-24.48
1.93
25.31
45.02
60.79
72.63
80.72
85.48
87.64
88.05
87.43
86.14
84.12
81.09
76.81
71.21
64.44
56.67
47.99
38.31
27.42
15.25
1.94
-12.15
-26.58
-40.90
-54.61
-67.10
-77.52
-84.92
-88.41
-87.50
-82.30
-73.47
-61.96
-48.66
-34.32
-19.53
-4.92
8.74
20.57
29.88
36.41
40.43
42.59
43.62
44.08
44.14
43.72
42.68
41.09
39.32
37.98
37.81
39.37
42.85
48.04
54.45
61.41
68.22
74.09
78.04
78.93
75.77
68.04
56.10
41.27
25.46
10.56
-2.17
-12.39
-20.54
-27.41
-33.61
-39.45
-45.00
-50.49
-56.32
-63.00
-70.73
-79.08
-86.85
-92.48
-94.56
-92.37
-86.18
-77.07
-66.54
-56.00
-46.47
-38.42
-31.85
-26.48
-21.81
-17.32
-12.53
-7.24
-1.58
4.02
8.99
12.88
15.55
17.25
18.51
19.92
21.96
24.88
28.56
32.68
36.69
40.07
42.47
43.85
44.51
44.91
45.33
45.68
45.43
43.86
40.49
35.36
29.00
22.23
15.73
9.79
4.22
-1.44
-7.62
-14.55
-22.13
-29.99
-37.53
-43.86
-48.01
-49.08
-46.57
-40.73
-32.59
-23.68
-15.55
-9.22
-4.88
-2.08
-0.07
1.66
3.19
4.25
4.45
3.62
1.87
-0.40
-2.75
-4.78
-6.14
-6.42
-5.19
-2.03
3.30
10.63
19.34
28.42
36.85
43.92
49.50
53.94
57.78
61.40
64.69
67.07
67.77
66.12
61.83
55.06
46.28
36.10
25.18
14.15
3.52
-6.34
-15.24
-23.24
-30.68
-38.05
-45.89
-54.50
-63.68
-72.54
-79.64
-83.34
-82.45
-76.66
-66.77
-54.39
-41.31
-28.98
-18.20
-9.21
-2.00
3.45
7.14
9.19
9.96
10.02
9.91
9.90
9.90
9.64
8.92
7.88
7.00
6.86
7.85
9.92
12.65
15.44
17.83
19.61
20.73
21.19
20.83
19.39
16.61
12.49
7.38
1.80
-3.75
-9.12
-14.49
-20.29
-26.79
-33.84
-40.80
-46.76
-50.94
-52.95
-52.92
-51.41
-49.20
-47.05
-45.55
-44.98
-45.18
-45.59
-45.36
-43.59
-39.63
-33.30
-24.91
-15.13
-4.71
5.66
15.39
24.01
31.14
36.46
39.79
41.05
40.32
37.87
34.19
30.00
26.07
23.06
21.25
20.54
20.57
21.02
21.79
22.92
24.31
25.50
25.92
25.31
24.19
23.87
25.88
31.11
39.04
47.68
54.10
55.39
49.60
36.20
16.25
-7.93
-33.16
-55.97
-73.31
-83.15
-85.10
-80.37
-71.37
-60.75
-50.56
-41.73
-34.11
-26.90
-19.42
-11.55
-4.05
1.67
3.97
1.58
-5.82
-17.28
-30.58
-42.67
-50.52
-51.97
-46.38
-34.83
-19.65
-3.50
11.32
23.43
32.37
38.27
41.58
42.87
42.86
42.35
42.14
42.67
43.88
45.09
45.38
43.94
40.54
35.61
30.13
25.31
22.04
20.58
20.27
19.63
16.86
10.56
0.41
-12.49
-25.85
-36.91
-43.35
-44.00
-39.02
-29.60
-17.44
-4.19
8.77
20.40
29.91
36.75
40.67
41.82
40.73
38.20
35.12
32.26
30.21
29.25
29.48
30.69
32.55
34.58
36.30
37.42
37.83
37.68
37.19
36.55
35.82
34.97
33.89
32.37
30.04
26.48
21.51
15.50
9.64
5.73
5.61
10.42
20.03
32.98
46.92
59.32
68.00
71.51
69.15
60.99
47.90
31.58
14.41
-1.10
-12.93
-20.22
-23.32
-23.42
-22.08
-20.48
-19.20
-18.30
-17.57
-16.88
-16.25
-15.82
-15.63
-15.48
-14.89
-13.19
-9.83
-4.54
2.39
10.21
17.78
23.92
27.69
28.66
26.99
23.43
19.07
15.15
12.73
12.57
15.10
20.51
28.93
40.43
54.92
71.89
90.15
107.82
122.56
132.13
134.97
130.52
119.22
102.07
80.28
55.00
27.36
-1.28
-29.25
-54.76
-76.34
-93.29
-105.85
-114.82
-120.99
-124.58
-125.11
-121.87
-114.64
-104.13
-91.97
-80.05
-69.78
-61.62
-55.11
-49.40
-43.84
-38.36
-33.43
-29.82
-28.21
-28.96
-32.05
-37.09
-43.45
-50.39
-57.31
-63.90
-70.19
-76.44
-82.71
-88.73
-93.93
-97.76
-100.19
-101.85
-103.89
-107.38
-112.79
-119.70
-127.14
-134.07
-139.86
-144.36
-147.42
-148.46
-146.36
-139.91
-128.64
-113.43
-96.44
-80.41
-67.54
-58.69
-53.32
-50.25
-48.46
-47.67
-48.15
-50.08
-52.93
-55.27
-55.32
-51.65
-43.91
-32.79
-19.74
-6.25
6.66
18.61
29.67
40.02
49.60
58.08
64.91
69.63
72.12
72.75
72.38
72.01
72.52
74.42
77.73
82.11
87.17
92.56
98.15
103.90
109.59
114.72
118.49
120.06
118.82
114.67
108.09
99.99
91.39
83.08
75.44
68.37
61.42
54.07
45.91
36.87
27.19
17.37
8.02
-0.26
-6.96
-11.64
-13.88
-13.37
-10.02
-4.13
3.58
12.02
20.11
27.13
32.83
37.45
41.47
45.16
48.49
51.00
52.04
51.08
47.91
42.80
36.47
29.88
23.99
19.51
16.67
15.21
14.47
13.73
12.45
10.46
7.94
5.31
3.04
1.51
0.93
1.26
2.14
3.02
3.23
2.23
-0.26
-4.22
-9.42
-15.68
-22.86
-30.91
-39.56
-48.21
-55.87
-61.30
-63.44
-61.69
-56.14
-47.50
-36.87
-25.38
-13.96
-3.23
6.40
14.60
21.12
25.76
28.55
29.84
30.17
30.18
30.35
30.86
31.57
32.15
32.33
31.97
31.15
30.10
29.04
28.14
27.40
26.73
25.98
25.02
23.75
22.10
19.99
17.25
13.79
9.68
5.18
0.62
-3.68
-7.61
-11.34
-15.26
-19.80
-25.37
-32.12
-39.90
-48.19
-56.11
-62.56
-66.45
-67.04
-64.11
-58.09
-49.89
-40.56
-31.07
-22.09
-13.94
-6.68
-0.23
5.60
10.96
15.93
20.47
24.38
27.39
29.24
29.82
29.22
27.76
25.86
23.94
22.29
21.04
20.10
19.24
18.20
16.83
15.20
13.58
12.29
11.56
11.40
11.52
11.53
11.00
9.66
7.47
4.53
1.02
-2.83
-6.80
-10.70
-14.44
-18.05
-21.76
-25.88
-30.72
-36.28
-42.14
-47.48
-51.24
-52.51
-50.73
-45.93
-38.60
-29.48
-19.27
-8.55
2.27
12.88
22.93
32.13
40.17
46.80
51.84
55.18
56.87
57.18
56.62
55.81
55.35
55.62
56.70
58.47
60.68
63.08
65.42
67.34
68.38
68.06
66.07
62.39
57.27
51.13
44.43
37.63
31.29
25.99
22.22
20.01
18.69
16.97
13.43
7.16
-1.68
-12.03
-22.37
-31.55
-39.23
-45.80
-51.79
-57.27
-61.57
-63.57
-62.35
-57.75
-50.50
-41.82
-32.86
-24.31
-16.28
-8.75
-1.86
3.84
7.59
8.79
7.39
4.01
-0.22
-4.05
-6.50
-7.10
-5.97
-3.64
-0.81
1.96
4.45
6.79
9.26
12.03
14.95
17.56
19.26
19.53
18.02
14.58
9.13
1.66
-7.66
-18.38
-29.71
-40.70
-50.53
-58.86
-65.93
-72.47
-79.36
-87.25
-96.33
-106.15
-115.75
-123.86
-129.20
-130.81
-128.31
-122.07
-113.10
-102.79
-92.55
-83.39
-75.71
-69.23
-63.06
-56.09
-47.28
-36.02
-22.35
-7.07
8.50
22.75
34.22
41.87
45.26
44.55
40.45
34.01
26.38
18.60
11.38
4.94
-0.86
-6.29
-11.31
-15.38
-17.42
-16.29
-11.34
-3.04
6.95
16.15
22.05
22.94
18.42
9.52
-1.83
-13.31
-22.93
-29.38
-32.29
-32.04
-29.55
-25.93
-22.08
-18.54
-15.51
-12.89
-10.53
-8.27
-5.92
-3.30
-0.10
3.85
8.51
13.42
17.89
21.25
23.22
24.15
24.88
26.36
29.26
33.62
38.84
43.97
48.05
50.47
51.12
50.32
48.63
46.59
44.54
42.60
40.69
38.72
36.59
34.34
32.04
29.73
27.34
24.66
21.31
16.88
11.10
4.03
-3.88
-11.81
-18.78
-23.86
-26.49
-26.57
-24.45
-20.75
-16.21
-11.42
-6.78
-2.42
1.67
5.54
9.17
12.41
15.04
16.82
17.63
17.49
16.57
15.05
13.08
10.78
8.22
5.53
2.79
0.07
-2.68
-5.51
-8.40
-11.09
-13.11
-13.93
-13.19
-10.93
-7.57
-3.72
0.03
3.34
6.19
8.78
11.46
14.58
18.43
23.10
28.42
33.95
39.07
43.13
45.73
46.84
46.84
46.36
46.08
46.47
47.71
49.63
51.86
53.99
55.68
56.73
57.01
56.41
54.85
52.31
48.98
45.27
41.70
38.76
36.67
35.31
34.33
33.36
32.21
30.92
29.68
28.62
27.66
26.50
24.71
21.92
17.98
13.01
7.35
1.42
-4.42
-9.92
-14.92
-19.29
-22.96
-25.99
-28.58
-31.08
-33.81
-36.79
-39.61
-41.37
-40.97
-37.50
-30.58
-20.50
-8.17
5.12
18.02
29.35
38.21
44.14
47.08
47.43
45.88
43.35
40.74
38.76
37.86
38.17
39.51
41.38
42.98
43.42
41.91
38.21
32.72
26.45
20.68
16.38
13.87
12.75
12.10
11.01
8.95
5.98
2.59
-0.64
-3.33
-5.52
-7.52
-9.80
-12.68
-16.24
-20.24
-24.23
-27.72
-30.32
-31.79
-32.14
-31.48
-30.00
-27.80
-24.87
-21.18
-16.68
-11.54
-6.13
-1.02
3.16
5.92
7.02
6.56
4.86
2.35
-0.61
-3.73
-6.89
-10.00
-12.94
-15.50
-17.42
-18.50
-18.64
-18.00
-16.92
-15.84
-15.13
-14.98
-15.34
-15.98
-16.63
-17.08
-17.28
-17.32
-17.38
-17.62
-18.20
-19.25
-20.89
-23.18
-26.15
-29.61
-33.20
-36.37
-38.48
-39.03
-37.80
-34.92
-30.81
-26.06
-21.19
-16.56
-12.33
-8.57
-5.39
-3.00
-1.60
-1.30
-1.98
-3.28
-4.77
-6.00
-6.72
-6.88
-6.62
-6.23
-6.00
-6.12
-6.59
-7.21
-7.64
-7.51
-6.65
-5.13
-3.32
-1.73
-0.89
-1.12
-2.48
-4.79
-7.68
-10.72
-13.51
-15.84
-17.68
-19.21
-20.65
-22.18
-23.84
-25.60
-27.37
-29.14
-30.98
-32.99
-35.22
-37.71
-40.42
-43.35
-46.48
-49.73
-52.87
-55.46
-56.95
-56.82
-54.73
-50.66
-44.85
-37.76
-29.91
-21.84
-14.02
-6.83
-0.54
4.76
9.10
12.61
15.42
17.56
19.02
19.77
19.87
19.54
19.12
18.96
19.31
20.24
21.65
23.36
25.15
26.83
28.26
29.34
30.02
30.30
30.18
29.65
28.71
27.34
25.59
23.57
21.47
19.51
17.77
16.17
14.48
12.37
9.63
6.25
2.41
-1.62
-5.64
-9.53
-13.35
-17.23
-21.44
-26.36
-32.60
-40.88
-51.69
-64.91
-79.36
-92.90
-102.92
-107.32
-105.34
-97.96
-87.44
-76.45
-66.98
-59.88
-54.88
-51.19
-48.09
-45.26
-42.58
-39.79
-36.21
-30.94
-23.29
-13.29
-1.84
9.59
19.55
27.26
32.82
37.05
40.95
45.31
50.36
55.91
61.60
67.09
72.20
76.74
80.40
82.70
83.13
81.45
77.89
73.15
68.15
63.59
59.61
55.74
51.22
45.52
38.67
31.36
24.54
18.92
14.45
10.35
5.35
-1.76
-11.56
-23.77
-37.30
-50.57
-61.98
-70.22
-74.61
-75.05
-71.88
-65.68
-57.07
-46.64
-35.07
-23.13
-11.71
-1.68
6.27
11.79
14.92
16.04
15.75
14.72
13.56
12.68
12.25
12.20
12.37
12.69
13.26
14.36
16.23
18.85
21.89
24.83
27.19
28.70
29.45
29.70
29.71
29.64
29.46
29.10
28.48
27.54
26.18
24.22
21.41
17.57
12.69
7.00
0.96
-4.85
-9.91
-13.96
-17.12
-19.87
-22.86
-26.66
-31.46
-36.86
-42.00
-45.78
-47.24
-45.85
-41.69
-35.39
-27.83
-19.89
-12.18
-5.00
1.59
7.59
12.98
17.61
21.33
24.00
25.64
26.35
26.35
25.85
25.05
24.08
23.09
22.16
21.38
20.78
20.35
20.01
19.68
19.23
18.55
17.55
16.14
14.30
12.05
9.51
6.92
4.53
2.58
1.08
-0.15
-1.46
-3.19
-5.57
-8.62
-12.23
-16.28
-20.63
-25.10
-29.29
-32.51
-33.92
-32.75
-28.58
-21.51
-12.10
-1.19
10.40
21.98
33.12
43.53
53.10
61.77
69.62
76.77
83.39
89.56
95.28
100.41
104.86
108.60
111.78
114.67
117.54
120.50
123.54
126.48
129.16
131.38
132.79
132.64
129.78
122.87
110.80
93.27
71.10
46.16
20.87
-2.54
-22.59
-38.83
-51.68
-61.99
-70.58
-78.01
-84.58
-90.45
-95.76
-100.64
-104.99
-108.37
-109.94
-108.71
-104.01
-95.76
-84.63
-71.79
-58.56
-46.15
-35.41
-26.92
-20.99
-17.66
-16.62
-17.20
-18.51
-19.67
-20.03
-19.30
-17.44
-14.63
-11.16
-7.49
-4.20
-1.97
-1.26
-1.96
-3.33
-4.22
-3.63
-1.15
2.79
7.18
11.03
13.80
15.61
16.83
17.67
17.92
16.96
14.25
9.65
3.57
-3.26
-10.14
-16.67
-22.83
-28.77
-34.69
-40.78
-47.22
-54.07
-61.11
-67.60
-72.32
-73.89
-71.41
-65.07
-56.09
-46.66
-38.99
-34.71
-34.74
-39.26
-47.79
-59.00
-70.53
-79.23
-82.31
-78.58
-69.45
-58.60
-50.45
-48.16
-52.26
-60.68
-70.05
-77.56
-82.01
-83.83
-84.08
-83.37
-81.49
-77.76
-71.79
-64.09
-55.94
-48.85
-43.90
-41.33
-40.35
-39.66
-38.02
-34.64
-29.52
-23.29
-16.91
-11.28
-7.04
-4.40
-3.30
-3.42
-4.27
-5.21
-5.49
-4.27
-0.79
5.49
14.68
26.37
39.69
53.50
66.74
78.57
88.47
96.14
101.24
103.47
102.59
98.72
92.52
85.16
78.00
72.15
68.05
65.41
63.46
61.47
59.09
56.61
54.61
53.63
53.72
54.32
54.46
53.14
49.68
43.97
36.34
27.48
18.14
8.97
0.38
-7.56
-15.09
-22.72
-31.02
-40.47
-51.26
-63.32
-76.33
-89.80
-103.15
-115.71
-126.76
-135.63
-141.82
-145.17
-145.82
-144.14
-140.55
-135.48
-129.45
-123.15
-117.45
-113.22
-110.91
-110.27
-110.28
-109.41
-106.23
-100.00
-91.02
-80.56
-70.40
-62.17
-56.74
-53.83
-51.99
-48.86
-41.69
-28.10
-6.74
22.07
56.08
91.47
123.71
148.68
163.77
168.38
163.76
152.22
136.27
118.06
99.13
80.74
64.09
50.44
40.79
35.49
34.00
35.05
37.17
39.39
41.54
44.16
47.92
53.03
58.84
64.03
67.12
67.12
63.96
58.37
51.57
44.72
38.53
33.24
28.76
24.87
21.53
18.79
16.87
15.85
15.63
15.82
15.85
15.21
13.63
11.18
8.23
5.25
2.53
0.06
-2.50
-5.59
-9.61
-14.72
-20.74
-27.20
-33.38
-38.37
-41.24
-41.19
-37.72
-30.83
-20.97
-8.99
4.04
17.03
29.06
39.40
47.60
53.53
57.34
59.35
60.00
59.66
58.61
57.04
55.09
52.87
50.45
47.83
45.00
42.01
39.06
36.50
34.68
33.75
33.46
33.25
32.35
30.22
26.66
21.95
16.66
11.34
6.30
1.48
-3.55
-9.35
-16.38
-24.76
-34.06
-43.26
-50.95
-55.62
-56.13
-52.03
-43.79
-32.59
-19.96
-7.34
4.27
14.40
22.94
29.90
35.32
39.18
41.61
42.88
43.43
43.56
43.39
42.77
41.45
39.34
36.69
34.02
31.92
30.73
30.42
30.62
30.86
30.78
30.27
29.46
28.52
27.52
26.38
24.90
22.85
20.15
16.87
13.20
9.40
5.68
2.13
-1.26
-4.59
-7.97
-11.53
-15.46
-19.95
-25.18
-31.03
-37.00
-42.11
-45.03
-44.45
-39.47
-29.98
-16.80
-1.48
14.12
28.34
40.15
49.27
56.07
61.26
65.50
69.22
72.56
75.51
78.10
80.49
82.89
85.49
88.32
91.31
94.42
97.76
101.60
106.23
111.73
117.81
123.90
129.28
133.39
135.95
136.95
136.51
134.65
131.29
126.23
119.22
110.06
98.58
84.68
68.42
50.19
30.82
11.45
-6.91
-23.82
-39.76
-55.85
-73.17
-92.01
-111.41
-129.50
-144.07
-153.48
-157.01
-154.82
-147.66
-136.54
-122.70
-107.59
-92.91
-80.27
-70.74
-64.46
-60.69
-58.16
-55.72
-52.78
-49.39
-46.07
-43.42
-41.80
-41.18
-41.14
-41.01
-40.06
-37.64
-33.41
-27.49
-20.43
-13.02
-6.01
0.16
5.58
10.62
15.74
21.07
26.23
30.41
32.59
31.97
28.26
21.79
13.41
4.17
-5.06
-13.87
-22.28
-30.67
-39.35
-48.32
-57.10
-64.79
-70.32
-72.67
-71.17
-65.66
-56.63
-45.22
-32.95
-21.34
-11.50
-3.84
1.81
5.88
8.67
10.19
10.26
8.82
6.18
2.99
0.03
-2.10
-3.13
-3.02
-1.80
0.52
3.85
7.94
12.18
15.82
18.07
18.42
16.68
12.90
7.23
-0.12
-8.89
-18.68
-28.99
-39.39
-49.73
-60.26
-71.44
-83.56
-96.29
-108.59
-118.92
-125.84
-128.57
-127.35
-123.34
-118.22
-113.59
-110.53
-109.39
-109.82
-111.03
-112.11
-112.35
-111.44
-109.55
-107.20
-104.86
-102.55
-99.59
-94.69
-86.35
-73.56
-56.33
-35.86
-14.31
5.87
22.66
34.94
42.58
46.19
46.65
44.72
40.91
35.53
28.87
21.34
13.54
6.11
-0.29
-5.14
-8.03
-8.78
-7.49
-4.64
-1.08
2.13
4.08
4.37
3.28
1.76
1.03
2.17
5.73
11.51
18.69
26.14
32.80
37.93
41.27
43.03
43.65
43.69
43.66
43.92
44.66
45.93
47.52
49.12
50.31
50.76
50.36
49.32
48.10
47.26
47.19
47.91
49.03
49.91
49.89
48.69
46.45
43.65
40.86
38.38
36.19
34.04
31.70
29.21
26.91
25.30
24.76
25.45
27.24
29.76
32.48
34.72
35.67
34.47
30.53
23.80
15.00
5.46
-3.24
-9.81
-13.60
-14.73
-13.85
-11.75
-9.09
-6.28
-3.56
-1.20
0.54
1.46
1.49
0.84
-0.28
-1.83
-3.93
-6.89
-10.77
-15.28
-19.83
-23.92
-27.52
-31.01
-34.77
-38.55
-41.35
-41.82
-39.25
-34.29
-28.91
-25.56
-26.02
-30.67
-38.75
-49.37
-62.25
-77.68
-95.61
-114.53
-131.19
-141.44
-141.95
-131.56
-111.75
-85.83
-57.50
-29.72
-4.12
18.65
38.39
54.90
67.97
77.50
83.72
87.26
88.98
89.85
90.73
92.23
94.54
97.51
100.91
104.58
108.64
113.29
118.50
123.67
127.46
128.31
125.24
118.54
110.06
102.48
98.04
97.32
98.72
99.11
95.45
86.36
72.83
57.77
44.57
35.55
31.17
30.32
31.24
32.45
33.24
33.30
32.42
30.15
26.00
19.89
12.48
5.10
-0.60
-3.33
-2.64
0.95
6.07
10.94
13.86
13.67
9.96
3.17
-5.52
-14.50
-22.04
-26.63
-27.22
-23.34
-15.11
-3.25
11.19
26.85
42.30
56.21
67.57
75.91
81.55
85.62
89.74
95.41
103.40
113.20
122.99
130.07
131.52
124.86
108.64
82.77
48.77
9.74
-30.04
-65.90
-94.00
-112.24
-120.83
-121.82
-118.27
-113.04
-108.15
-104.51
-102.32
-101.46
-101.77
-103.11
-105.27
-107.91
-110.60
-112.83
-114.14
-114.02
-112.04
-107.84
-101.27
-92.40
-81.57
-69.36
-56.52
-43.86
-32.20
-22.27
-14.54
-9.19
-6.03
-4.58
-4.24
-4.43
-4.71
-4.85
-4.78
-4.45
-3.85
-2.98
-1.90
-0.80
0.06
0.42
0.11
-0.88
-2.45
-4.47
-6.89
-9.75
-13.11
-16.97
-21.27
-25.90
-30.83
-36.18
-42.16
-48.80
-55.82
-62.50
-67.75
-70.46
-69.84
-65.69
-58.48
-49.15
-38.83
-28.59
-19.16
-10.92
-3.93
1.89
6.66
10.42
13.17
14.94
15.81
15.98
15.69
15.11
14.29
13.23
11.98
10.69
9.60
8.93
8.71
8.76
8.72
8.20
7.01
5.14
2.71
-0.06
-3.02
-6.06
-9.16
-12.38
-15.89
-19.97
-24.94
-30.94
-37.75
-44.67
-50.53
-54.04
-54.11
-50.26
-42.73
-32.45
-20.72
-8.86
2.08
11.50
19.19
25.24
29.81
33.10
35.26
36.42
36.67
36.15
35.04
33.51
31.78
30.05
28.49
27.25
26.42
26.05
26.11
26.45
26.79
26.79
26.11
24.59
22.25
19.32
16.09
12.78
9.38
5.68
1.44
-3.47
-8.91
-14.50
-19.77
-24.40
-28.37
-32.01
-35.94
-40.87
-47.36
-55.63
-65.30
-75.24
-83.73
-88.65
-88.18
-81.39
-68.68
-51.65
-32.70
-14.11
2.54
16.59
28.18
37.70
45.37
51.16
54.84
56.34
55.87
53.93
51.15
48.06
45.01
42.16
39.48
37.01
34.81
33.06
31.93
31.47
31.57
31.85
31.87
31.22
29.70
27.42
24.76
22.27
20.35
19.20
18.67
18.32
17.57
15.87
12.95
8.79
3.71
-1.77
-7.16
-12.08
-16.46
-20.48
-24.52
-29.02
-34.30
-40.34
-46.74
-52.64
-56.93
-58.48
-56.54
-50.96
-42.31
-31.68
-20.39
-9.57
0.01
8.01
14.39
19.23
22.64
24.72
25.60
25.48
24.62
23.32
21.89
20.59
19.61
19.10
19.11
19.66
20.73
22.25
24.09
26.01
27.70
28.80
29.06
28.40
26.97
25.11
23.09
21.00
18.69
15.94
12.63
8.83
4.85
1.02
-2.50
-5.74
-8.92
-12.32
-16.17
-20.64
-25.84
-31.70
-37.93
-43.86
-48.52
-50.87
-50.10
-46.00
-39.04
-30.20
-20.66
-11.39
-3.05
4.12
10.05
14.74
18.10
20.02
20.48
19.66
17.96
15.93
14.05
12.57
11.43
10.34
8.99
7.15
4.76
2.01
-0.76
-3.01
-4.10
-3.40
-0.60
4.13
10.15
16.42
21.96
26.09
28.61
29.68
29.55
28.36
26.01
22.44
17.72
12.22
6.49
0.97
-4.22
-9.42
-15.22
-22.04
-29.82
-37.79
-44.62
-48.86
-49.39
-45.87
-38.83
-29.49
-19.37
-9.86
-1.86
4.29
8.77
12.07
14.68
16.90
18.74
19.98
20.39
19.89
18.62
16.91
15.11
13.52
12.34
11.64
11.49
11.95
12.98
14.43
16.02
17.35
18.08
18.00
17.11
15.58
13.71
11.77
9.93
8.19
6.40
4.29
1.62
-1.75
-5.74
-10.05
-14.28
-18.07
-21.25
-23.99
-26.71
-29.98
-34.20
-39.49
-45.39
-50.97
-55.00
-56.32
-54.13
-48.30
-39.39
-28.50
-16.95
-5.96
3.53
11.04
16.43
19.83
21.54
21.88
21.19
19.79
17.95
15.92
13.91
12.10
10.58
9.39
8.57
8.13
8.08
8.39
9.00
9.77
10.56
11.24
11.71
11.93
11.84
11.35
10.35
8.82
6.82
4.63
2.61
1.03
-0.07
-0.89
-1.86
-3.34
-5.53
-8.35
-11.53
-14.75
-17.81
-20.67
-23.45
-26.34
-29.55
-33.26
-37.66
-42.79
-48.51
-54.31
-59.36
-62.59
-63.02
-60.06
-53.65
-44.33
-33.13
-21.24
-9.80
0.36
8.76
15.25
19.95
23.12
25.04
25.98
26.18
25.83
25.08
24.10
23.00
21.95
21.12
20.63
20.61
21.10
22.03
23.25
24.60
25.88
26.92
27.56
27.67
27.10
25.82
23.88
21.46
18.79
16.11
13.52
11.04
8.50
5.67
2.32
-1.67
-6.27
-11.27
-16.34
-21.16
-25.43
-29.11
-32.34
-35.51
-39.11
-43.56
-48.95
-54.90
-60.56
-64.80
-66.50
-64.86
-59.65
-51.22
-40.39
-28.25
-15.93
-4.39
5.71
14.05
20.56
25.38
28.70
30.72
31.66
31.75
31.25
30.44
29.55
28.70
27.90
27.15
26.51
26.08
26.02
26.39
27.13
28.04
28.81
29.21
29.00
28.08
26.40
24.01
20.98
17.46
13.63
9.63
5.55
1.38
-2.93
-7.47
-12.30
-17.44
-22.80
-28.24
-33.71
-39.20
-44.87
-51.02
-57.88
-65.37
-72.95
-79.58
-83.93
-84.78
-81.50
-74.33
-64.41
-53.58
-43.80
-36.64
-32.83
-32.11
-33.55
-35.98
-38.63
-41.48
-45.27
-51.07
-59.79
-71.79
-86.55
-102.69
-118.05
-129.84
-134.95
-130.53
-114.99
-88.81
-54.94
-17.96
17.41
48.24
74.18
97.00
118.81
140.13
159.15
172.44
176.81
171.09
156.78
137.23
116.12
96.38
79.78
67.50
60.60
60.21
67.02
80.81
100.08
122.39
144.98
165.26
181.22
191.45
195.16
192.32
183.68
170.63
154.91
138.06
121.17
104.90
89.71
76.24
65.37
58.07
54.92
55.76
59.52
64.46
68.81
71.37
71.84
70.81
69.28
68.03
67.14
65.78
62.33
55.03
42.68
25.26
4.23
-17.92
-38.37
-55.04
-67.11
-75.13
-80.48
-84.70
-89.02
-94.36
-101.56
-111.43
-124.59
-141.00
-159.68
-178.93
-196.98
-212.58
-225.35
-235.74
-244.69
-253.24
-262.51
-273.74
-288.03
-305.69
-325.42
-343.95
-356.64
-358.96
-348.30
-325.15
-292.98
-256.88
-221.56
-189.87
-162.18
-137.03
-112.24
-85.92
-56.78
-24.11
12.23
51.38
90.92
126.80
154.38
170.17
173.55
167.46
157.34
148.94
146.06
149.19
155.95
162.68
166.25
165.30
160.35
153.15
145.67
139.27
134.45
131.11
128.96
128.08
129.01
132.36
138.15
145.35
151.89
155.39
154.13
147.76
137.40
124.84
111.65
98.43
84.71
69.59
52.45
33.67
14.75
-2.10
-14.61
-21.24
-21.54
-16.29
-6.95
4.92
18.09
31.84
45.72
59.28
71.77
82.20
89.53
92.97
92.19
87.24
78.40
66.08
50.74
32.99
13.78
-5.52
-23.23
-37.72
-47.88
-53.61
-55.92
-56.54
-57.32
-59.40
-62.79
-66.48
-68.96
-68.86
-65.51
-59.04
-50.29
-40.45
-30.83
-22.58
-16.60
-13.28
-12.42
-13.22
-14.52
-15.12
-14.19
-11.50
-7.41
-2.71
1.71
5.10
7.01
7.31
6.11
3.76
0.70
-2.59
-5.67
-8.28
-10.42
-12.35
-14.42
-16.79
-19.21
-20.90
-20.66
-17.20
-9.64
2.20
17.65
35.28
53.28
69.63
82.44
90.01
91.09
85.14
72.54
54.74
34.02
13.03
-5.92
-21.31
-32.62
-40.13
-44.51
-46.45
-46.55
-45.31
-43.27
-41.09
-39.41
-38.67
-38.98
-40.09
-41.51
-42.75
-43.49
-43.77
-43.99
-44.84
-47.05
-51.13
-57.05
-64.17
-71.23
-76.74
-79.38
-78.48
-74.12
-67.04
-58.26
-48.74
-39.14
-29.84
-21.13
-13.42
-7.32
-3.50
-2.43
-4.18
-8.34
-14.13
-20.71
-27.41
-33.87
-40.14
-46.53
-53.55
-61.76
-71.53
-82.74
-94.32
-104.15
-109.41
-107.35
-96.44
-77.07
-51.70
-24.15
1.61
22.58
37.37
46.13
49.93
50.14
47.95
44.29
40.03
36.14
33.62
33.29
35.42
39.63
45.00
50.37
54.74
57.53
58.66
58.38
57.16
55.50
53.93
53.03
53.39
55.63
60.25
67.39
76.65
86.96
96.56
103.49
106.12
103.78
97.03
87.35
76.42
65.41
54.57
43.50
31.79
19.54
7.50
-3.27
-11.99
-18.53
-23.46
-27.65
-31.87
-36.49
-41.50
-46.65
-51.62
-56.02
-59.27
-60.57
-59.00
-53.87
-44.96
-32.78
-18.44
-3.40
10.94
23.51
33.72
41.35
46.48
49.33
50.21
49.45
47.36
44.26
40.46
36.27
32.07
28.21
25.03
22.69
21.09
19.89
18.61
16.79
14.15
10.65
6.47
1.93
-2.66
-7.08
-11.21
-15.05
-18.68
-22.23
-25.87
-29.70
-33.73
-37.73
-41.20
-43.38
-43.47
-40.86
-35.38
-27.39
-17.73
-7.39
2.69
11.89
19.86
26.45
31.59
35.17
37.15
37.66
37.05
35.92
34.84
34.20
34.01
33.96
33.60
32.55
30.70
28.24
25.53
22.94
20.68
18.71
16.83
14.75
12.23
9.15
5.54
1.56
-2.59
-6.74
-10.76
-14.67
-18.60
-22.82
-27.54
-32.81
-38.30
-43.23
-46.53
-47.16
-44.43
-38.25
-29.20
-18.32
-6.86
4.03
13.48
20.97
26.29
29.53
31.01
31.10
30.26
28.85
27.16
25.40
23.67
22.03
20.54
19.27
18.30
17.73
17.65
18.02
18.70
19.33
19.55
19.03
17.60
15.29
12.28
8.86
5.34
1.95
-1.18
-4.09
-6.96
-10.00
-13.45
-17.37
-21.66
-26.01
-30.07
-33.55
-36.37
-38.64
-40.74
-43.08
-46.04
-49.69
-53.75
-57.51
-59.97
-60.15
-57.39
-51.52
-43.03
-32.85
-22.13
-11.92
-2.96
4.42
10.22
14.61
17.79
19.92
21.12
21.55
21.38
20.86
20.20
19.60
19.14
18.85
18.73
18.86
19.33
20.23
21.55
23.11
24.57
25.52
25.60
24.66
22.80
20.32
17.61
14.99
12.58
10.28
7.90
5.22
2.17
-1.15
-4.55
-7.81
-10.79
-13.48
-16.01
-18.64
-21.70
-25.46
-29.94
-34.81
-39.27
-42.24
-42.62
-39.76
-33.67
-25.13
-15.36
-5.67
2.94
9.97
15.35
19.23
21.82
23.27
23.72
23.32
22.27
20.83
19.22
17.64
16.21
15.06
14.27
13.91
14.01
14.53
15.31
16.17
16.88
17.23
17.12
16.56
15.65
14.48
13.13
11.55
9.69
7.47
4.86
1.93
-1.19
-4.38
-7.54
-10.58
-13.49
-16.34
-19.24
-22.47
-26.29
-30.82
-35.89
-40.95
-45.15
-47.51
-47.28
-44.14
-38.30
-30.44
-21.53
-12.59
-4.43
2.46
7.97
12.23
15.48
17.92
19.63
20.60
20.77
20.24
19.23
18.06
17.01
16.23
15.75
15.49
15.39
15.46
15.78
16.41
17.26
18.15
18.75
18.73
17.89
16.23
13.92
11.31
8.76
6.42
4.24
2.01
-0.53
-3.50
-6.82
-10.27
-13.60
-16.64
-19.41
-22.02
-24.67
-27.58
-30.99
-35.08
-39.88
-45.11
-50.05
-53.63
-54.72
-52.55
-47.02
-38.77
-29.00
-19.02
-9.88
-2.15
4.06
8.90
12.61
15.33
17.21
18.41
19.08
19.43
19.54
19.40
18.87
17.84
16.37
14.72
13.33
12.64
12.89
14.01
15.63
17.20
18.25
18.46
17.77
16.33
14.44
12.38
10.37
8.50
6.71
4.81
2.58
-0.12
-3.31
-6.83
-10.47
-14.01
-17.33
-20.50
-23.73
-27.34
-31.60
-36.55
-41.91
-47.03
-50.97
-52.79
-51.81
-47.81
-41.08
-32.32
-22.45
-12.41
-3.00
5.21
11.86
16.89
20.42
22.69
24.01
24.65
24.81
24.62
24.19
23.59
22.95
22.39
22.05
22.04
22.47
23.32
24.49
25.80
27.02
27.95
28.44
28.45
28.01
27.16
26.02
24.69
23.30
21.95
20.72
19.58
18.50
17.37
16.12
14.69
13.09
11.35
9.50
7.48
5.21
2.57
-0.38
-3.36
-5.75
-6.64
-5.15
-0.60
7.24
18.02
30.82
44.25
56.71
66.63
72.77
74.44
71.74
65.55
57.56
49.85
44.41
42.54
44.42
49.01
54.42
58.51
59.65
57.10
51.05
42.28
31.76
20.36
8.69
-2.87
-14.00
-24.43
-33.82
-41.81
-48.04
-52.26
-54.48
-55.09
-54.75
-54.28
-54.24
-54.83
-55.81
-56.79
-57.57
-58.28
-59.41
-61.53
-64.88
-69.18
-73.54
-76.76
-77.62
-75.32
-69.73
-61.36
-51.15
-40.18
-29.38
-19.40
-10.62
-3.23
2.65
6.95
9.69
11.09
11.45
11.17
10.58
9.87
9.12
8.30
7.49
6.85
6.67
7.14
8.26
9.72
11.04
11.74
11.56
10.54
8.92
7.01
4.98
2.84
0.44
-2.35
-5.58
-9.15
-12.98
-16.94
-20.99
-25.09
-29.15
-33.11
-37.00
-41.01
-45.51
-50.88
-57.23
-64.13
-70.58
-75.12
-76.35
-73.38
-66.19
-55.65
-43.18
-30.27
-18.06
-7.20
2.12
9.90
16.19
20.99
24.32
26.30
27.23
27.44
27.22
26.83
26.35
25.83
25.32
24.89
24.70
24.92
25.67
27.00
28.76
30.58
32.02
32.60
32.09
30.49
28.10
25.31
22.44
19.60
16.68
13.50
9.90
5.89
1.57
-2.93
-7.50
-12.05
-16.53
-20.87
-25.02
-29.04
-33.14
-37.69
-43.06
-49.36
-56.20
-62.70
-67.56
-69.48
-67.50
-61.32
-51.46
-39.07
-25.60
-12.48
-0.75
9.03
16.78
22.69
27.05
30.10
31.99
32.83
32.78
32.09
31.06
29.99
29.13
28.62
28.52
28.82
29.51
30.54
31.84
33.31
34.76
35.96
36.66
36.63
35.77
34.09
31.74
28.95
25.91
22.72
19.41
15.96
12.34
8.49
4.38
-0.06
-4.84
-9.89
-15.00
-19.92
-24.44
-28.52
-32.41
-36.51
-41.31
-47.11
-53.83
-60.93
-67.38
-71.92
-73.33
-70.79
-64.15
-53.96
-41.35
-27.71
-14.32
-2.16
8.18
16.45
22.65
26.93
29.61
31.10
31.81
32.08
32.10
31.94
31.59
31.13
30.66
30.34
30.26
30.46
30.90
31.54
32.38
33.42
34.57
35.57
36.04
35.61
34.08
31.58
28.44
25.08
21.79
18.59
15.33
11.78
7.80
3.43
-1.20
-5.94
-10.68
-15.39
-20.08
-24.78
-29.52
-34.36
-39.46
-45.03
-51.20
-57.91
-64.68
-70.56
-74.30
-74.66
-70.91
-63.06
-51.93
-38.93
-25.54
-12.95
-1.85
7.50
15.09
20.97
25.22
27.95
29.41
29.93
29.86
29.45
28.80
27.92
26.84
25.70
24.72
24.19
24.35
25.33
27.06
29.26
31.47
33.18
33.95
33.56
32.11
29.91
27.40
24.86
22.38
19.75
16.66
12.87
8.36
3.32
-1.94
-7.14
-12.06
-16.65
-20.99
-25.23
-29.62
-34.46
-40.03
-46.43
-53.36
-59.99
-65.08
-67.24
-65.39
-59.18
-49.09
-36.32
-22.48
-9.10
2.67
12.20
19.39
24.50
27.98
30.25
31.63
32.24
32.11
31.23
29.67
27.67
25.61
23.91
22.94
22.89
23.69
25.09
26.69
28.09
28.97
29.18
28.73
27.75
26.37
24.75
22.89
20.71
18.03
14.68
10.55
5.66
0.15
-5.68
-11.52
-17.10
-22.42
-27.68
-33.35
-39.86
-47.33
-55.30
-62.69
-68.05
-69.90
-67.39
-60.43
-49.85
-37.04
-23.53
-10.59
0.95
10.72
18.70
24.99
29.74
33.08
35.06
35.78
35.35
34.00
32.04
29.82
27.70
25.92
24.71
24.21
24.44
25.32
26.60
27.88
28.71
28.69
27.67
25.80
23.40
20.86
18.36
15.88
13.15
9.79
5.61
0.61
-4.95
-10.67
-16.22
-21.47
-26.47
-31.45
-36.69
-42.47
-49.00
-56.29
-64.01
-71.38
-77.21
-80.09
-78.83
-72.86
-62.52
-48.96
-33.83
-18.75
-4.95
6.90
16.63
24.33
30.13
34.20
36.73
37.96
38.22
37.87
37.14
36.18
34.99
33.61
32.15
30.84
30.01
29.96
30.76
32.22
33.91
35.22
35.63
34.87
32.98
30.31
27.29
24.28
21.32
18.23
14.63
10.25
5.01
-0.88
-7.08
-13.18
-18.93
-24.24
-29.23
-34.21
-39.62
-45.96
-53.50
-62.08
-70.86
-78.38
-82.89
-82.84
-77.50
-67.23
-53.32
-37.66
-22.05
-7.84
4.28
14.16
21.99
28.02
32.50
35.63
37.59
38.57
38.76
38.33
37.47
36.34
35.12
33.99
33.16
32.87
33.29
34.50
36.32
38.34
39.98
40.63
39.93
37.87
34.80
31.23
27.64
24.24
20.95
17.48
13.56
9.07
4.11
-1.12
-6.40
-11.64
-16.86
-22.16
-27.65
-33.42
-39.56
-46.27
-53.69
-61.81
-70.25
-78.06
-83.86
-86.13
-83.77
-76.49
-64.99
-50.69
-35.27
-20.21
-6.44
5.58
15.67
23.77
29.83
33.90
36.24
37.29
37.55
37.47
37.20
36.72
35.93
34.83
33.61
32.66
32.36
32.96
34.47
36.62
38.96
40.93
42.06
42.05
40.78
38.43
35.32
31.88
28.42
25.07
21.70
18.05
13.85
9.01
3.66
-1.91
-7.36
-12.45
-17.18
-21.75
-26.55
-32.04
-38.54
-46.13
-54.41
-62.48
-69.03
-72.62
-72.09
-66.92
-57.45
-44.75
-30.37
-15.86
-2.44
9.15
18.64
26.05
31.49
35.10
37.03
37.42
36.52
34.61
32.03
29.20
26.53
24.47
23.30
23.12
23.78
24.93
26.15
27.09
27.56
27.52
27.02
26.11
24.75
22.87
20.35
17.16
13.30
8.84
3.88
-1.44
-6.98
-12.59
-18.17
-23.72
-29.41
-35.54
-42.48
-50.43
-59.16
-67.85
-75.09
-79.22
-78.83
-73.22
-62.70
-48.52
-32.51
-16.52
-1.97
10.39
20.40
28.30
34.38
38.84
41.77
43.25
43.44
42.68
41.32
39.70
38.04
36.45
35.00
33.81
33.07
32.95
33.50
34.55
35.72
36.57
36.68
35.84
34.07
31.54
28.51
25.15
21.50
17.47
12.91
7.71
1.90
-4.31
-10.58
-16.65
-22.30
-27.59
-32.75
-38.19
-44.37
-51.60
-59.82
-68.50
-76.61
-82.76
-85.55
-83.94
-77.56
-66.89
-53.07
-37.60
-21.93
-7.20
5.90
16.99
25.91
32.64
37.25
39.97
41.22
41.54
41.45
41.32
41.29
41.37
41.46
41.56
41.73
42.10
42.81
43.93
45.48
47.33
49.25
50.80
51.43
50.65
48.25
44.50
40.10
36.03
33.16
32.03
32.77
35.17
38.81
43.05
46.96
49.31
48.73
44.08
34.90
21.64
5.54
-11.92
-29.50
-46.43
-62.31
-76.63
-88.55
-96.86
-100.42
-98.63
-91.75
-80.93
-67.82
-54.11
-41.12
-29.68
-20.07
-12.31
-6.25
-1.70
1.56
3.77
5.20
6.19
7.06
8.05
9.34
10.98
12.94
15.16
17.55
20.06
22.68
25.40
28.14
30.72
32.87
34.20
34.40
33.30
31.03
27.92
24.42
20.89
17.47
14.05
10.38
6.21
1.47
-3.76
-9.25
-14.70
-19.98
-25.11
-30.41
-36.33
-43.28
-51.30
-59.87
-67.79
-73.48
-75.42
-72.67
-65.23
-54.06
-40.70
-26.85
-13.89
-2.62
6.73
14.28
20.30
25.05
28.65
31.15
32.59
33.01
32.55
31.37
29.75
27.97
26.34
25.17
24.70
25.02
26.07
27.54
29.03
30.12
30.48
30.03
28.90
27.36
25.61
23.71
21.55
18.91
15.64
11.75
7.39
2.77
-1.96
-6.71
-11.52
-16.45
-21.62
-27.15
-33.22
-39.85
-46.75
-53.19
-57.98
-59.75
-57.52
-51.01
-40.85
-28.42
-15.34
-3.03
7.61
16.27
22.96
27.89
31.22
33.05
33.47
32.59
30.61
27.81
24.57
21.38
18.73
17.02
16.43
16.86
17.96
19.33
20.59
21.59
22.26
22.55
22.36
21.42
19.46
16.28
11.91
6.59
0.73
-5.26
-11.06
-16.55
-21.82
-27.16
-32.96
-39.60
-47.34
-56.13
-65.50
-74.49
-81.71
-85.61
-84.88
-78.84
-67.81
-53.02
-36.30
-19.56
-4.27
8.81
19.56
28.21
35.05
40.22
43.76
45.68
46.14
45.44
43.90
41.83
39.45
36.93
34.48
32.33
30.72
29.78
29.48
29.60
29.82
29.83
29.37
28.29
26.51
24.02
20.75
16.61
11.55
5.59
-1.11
-8.24
-15.36
-22.13
-28.32
-34.09
-39.85
-46.25
-53.85
-62.87
-72.96
-83.12
-91.79
-97.22
-97.88
-92.91
-82.42
-67.51
-49.93
-31.67
-14.43
0.69
13.22
23.21
30.93
36.76
40.99
43.93
45.75
46.58
46.43
45.33
43.36
40.79
38.04
35.58
33.78
32.78
32.44
32.41
32.36
32.02
31.26
30.07
28.42
26.25
23.45
19.93
15.68
10.75
5.27
-0.62
-6.83
-13.31
-20.02
-26.93
-34.07
-41.50
-49.43
-58.07
-67.48
-77.20
-86.20
-92.89
-95.59
-92.95
-84.50
-70.79
-53.22
-33.67
-13.97
4.44
20.67
34.43
45.77
54.97
62.31
67.94
71.83
73.84
73.90
72.10
68.79
64.51
59.81
55.17
50.96
47.40
44.71
43.05
42.48
42.86
43.74
44.47
44.30
42.64
39.22
34.06
27.50
19.98
11.96
3.78
-4.35
-12.31
-20.04
-27.56
-34.95
-42.41
-50.20
-58.62
-67.85
-77.70
-87.56
-96.30
-102.41
-104.36
-101.07
-92.26
-78.66
-61.81
-43.67
-26.08
-10.39
2.74
13.23
21.37
27.49
31.85
34.61
35.94
36.07
35.34
34.12
32.70
31.25
29.81
28.35
26.93
25.74
25.08
25.19
26.11
27.55
28.92
29.55
28.84
26.54
22.69
17.70
12.08
6.29
0.67
-4.67
-9.83
-15.07
-20.79
-27.41
-35.22
-44.16
-53.61
-62.31
-68.61
-70.91
-68.16
-60.25
-48.10
-33.27
-17.54
-2.40
11.19
22.76
32.22
39.51
44.62
47.49
48.20
47.01
44.38
40.93
37.20
33.61
30.34
27.41
24.76
22.44
20.60
19.47
19.21
19.68
20.43
20.74
19.81
17.15
12.71
6.94
0.55
-5.77
-11.66
-17.16
-22.67
-28.70
-35.78
-44.21
-54.00
-64.65
-75.09
-83.69
-88.59
-88.26
-81.96
-70.11
-54.09
-35.90
-17.53
-0.50
14.29
26.47
36.04
43.19
48.16
51.20
52.60
52.62
51.56
49.71
47.41
44.91
42.43
40.03
37.73
35.59
33.79
32.56
32.10
32.32
32.73
32.58
31.04
27.54
22.00
14.85
6.86
-1.21
-8.86
-16.01
-22.93
-30.13
-38.14
-47.33
-57.71
-68.82
-79.63
-88.64
-94.13
-94.56
-89.08
-77.82
-61.96
-43.45
-24.42
-6.71
8.57
21.05
30.91
38.48
44.05
47.75
49.68
50.05
49.23
47.74
46.08
44.56
43.28
42.13
40.94
39.64
38.30
37.12
36.34
36.05
36.05
35.96
35.24
33.39
30.20
25.74
20.39
14.65
8.92
3.42
-1.88
-7.25
-13.03
-19.61
-27.24
-35.85
-44.80
-52.74
-57.79
-57.98
-51.97
-39.61
-22.13
-1.82
18.79
37.70
53.92
67.45
78.91
88.95
97.88
105.59
111.57
115.18
115.77
112.82
106.01
95.35
81.31
65.01
48.05
32.28
19.16
9.22
1.85
-4.51
-11.58
-20.47
-31.15
-42.52
-53.07
-61.58
-67.67
-71.67
-74.28
-76.01
-77.08
-77.53
-77.47
-77.34
-77.77
-79.35
-82.42
-87.00
-92.87
-99.53
-106.22
-111.87
-115.17
-114.74
-109.61
-99.51
-84.94
-67.18
-47.82
-28.45
-10.36
5.49
18.57
28.72
36.05
40.97
43.96
45.57
46.20
46.20
45.74
44.98
43.94
42.62
41.02
39.19
37.29
35.55
34.20
33.34
32.79
32.15
30.87
28.47
24.73
19.78
14.03
8.02
2.20
-3.25
-8.46
-13.76
-19.64
-26.52
-34.64
-43.94
-53.90
-63.52
-71.41
-76.03
-76.09
-70.96
-60.89
-47.00
-30.97
-14.59
0.57
13.47
23.65
31.07
35.96
38.65
39.48
38.81
36.98
34.40
31.50
28.70
26.31
24.53
23.38
22.82
22.74
23.03
23.55
24.09
24.35
23.98
22.64
20.17
16.58
12.09
6.99
1.56
-4.12
-10.19
-16.99
-24.83
-33.84
-43.62
-53.23
-61.20
-65.89
-65.94
-60.68
-50.40
-36.21
-19.84
-3.08
12.56
26.11
37.17
45.74
51.96
55.99
57.87
57.63
55.45
51.76
47.18
42.44
38.12
34.49
31.51
28.97
26.67
24.56
22.77
21.39
20.36
19.34
17.82
15.28
11.42
6.26
0.13
-6.47
-13.09
-19.43
-25.52
-31.59
-38.11
-45.58
-54.34
-64.35
-75.02
-85.11
-92.95
-96.80
-95.32
-88.00
-75.36
-58.84
-40.32
-21.72
-4.50
10.51
23.03
33.19
41.22
47.33
51.62
54.19
55.15
54.75
53.34
51.36
49.31
47.56
46.38
45.82
45.74
45.91
46.05
45.99
45.61
44.88
43.76
42.09
39.63
36.11
31.38
25.45
18.64
11.37
4.13
-2.82
-9.42
-15.81
-22.32
-29.37
-37.39
-46.70
-57.31
-68.66
-79.56
-88.29
-93.05
-92.45
-86.00
-74.25
-58.64
-41.00
-23.15
-6.56
7.87
19.70
28.86
35.54
40.08
42.90
44.36
44.80
44.43
43.42
41.92
40.12
38.25
36.62
35.47
34.96
35.01
35.37
35.67
35.57
34.84
33.47
31.53
29.14
26.33
23.02
19.02
14.16
8.41
1.90
-5.09
-12.17
-18.99
-25.34
-31.23
-36.91
-42.88
-49.69
-57.74
-67.02
-76.88
-85.96
-92.45
-94.48
-90.76
-80.97
-66.01
-47.70
-28.25
-9.69
6.61
20.00
30.40
38.04
43.23
46.25
47.40
47.07
45.67
43.67
41.45
39.28
37.30
35.49
33.79
32.14
30.58
29.23
28.25
27.72
27.52
27.29
26.52
24.71
21.56
17.09
11.63
5.66
-0.30
-5.98
-11.34
-16.65
-22.32
-28.79
-36.36
-45.02
-54.39
-63.58
-71.33
-76.16
-76.74
-72.30
-62.93
-49.58
-33.82
-17.37
-1.64
12.41
24.33
33.89
40.94
45.37
47.14
46.48
43.92
40.19
36.06
32.14
28.75
25.91
23.48
21.26
19.16
17.26
15.77
14.86
14.52
14.46
14.15
13.01
10.62
6.87
2.00
-3.57
-9.40
-15.22
-21.01
-27.01
-33.62
-41.22
-49.92
-59.30
-68.29
-75.30
-78.57
-76.74
-69.31
-56.95
-41.20
-24.04
-7.29
7.78
20.58
31.07
39.34
45.49
49.44
51.13
50.63
48.30
44.80
40.88
37.19
34.08
31.55
29.44
27.55
25.84
24.44
23.49
22.94
22.53
21.69
19.89
16.67
11.91
5.84
-1.08
-8.24
-15.13
-21.52
-27.54
-33.64
-40.54
-48.89
-59.03
-70.69
-82.80
-93.57
-100.87
-102.70
-97.86
-86.41
-69.75
-50.34
-30.90
-13.65
0.27
10.91
19.09
25.86
31.88
37.24
41.62
44.64
46.13
46.30
45.55
44.35
43.00
41.64
40.25
38.81
37.39
36.17
35.33
34.98
35.02
35.10
34.66
33.18
30.25
25.84
20.22
13.91
7.40
1.01
-5.21
-11.45
-17.95
-24.97
-32.72
-41.31
-50.76
-60.80
-70.79
-79.52
-85.43
-86.90
-82.80
-72.94
-58.19
-40.27
-21.25
-3.00
13.21
26.79
37.66
45.98
51.91
55.60
57.22
57.10
55.73
53.70
51.53
49.53
47.82
46.40
45.21
44.27
43.63
43.34
43.38
43.69
44.10
44.39
44.38
43.86
42.62
40.49
37.41
33.41
28.65
23.38
17.87
12.36
6.96
1.69
-3.60
-9.24
-15.68
-23.21
-31.77
-40.56
-48.07
-52.36
-51.61
-44.77
-31.92
-14.34
5.92
26.54
45.49
61.35
73.50
82.11
88.01
92.30
95.94
99.19
101.46
101.36
97.38
88.42
74.38
56.17
35.42
14.01
-6.46
-24.76
-40.11
-52.05
-60.52
-65.83
-68.73
-70.22
-71.28
-72.52
-74.03
-75.45
-76.28
-76.21
-75.35
-74.16
-73.23
-73.03
-73.74
-75.28
-77.46
-80.16
-83.44
-87.47
-92.27
-97.51
-102.37
-105.57
-105.69
-101.60
-92.82
-79.82
-63.82
-46.49
-29.36
-13.53
0.46
12.48
22.43
30.16
35.43
38.15
38.51
37.13
34.82
32.31
30.06
28.15
26.42
24.76
23.25
22.17
21.89
22.58
24.02
25.63
26.61
26.26
24.28
20.79
16.25
11.28
6.32
1.58
-3.04
-7.81
-13.13
-19.35
-26.70
-35.03
-43.75
-51.72
-57.50
-59.67
-57.24
-50.03
-38.69
-24.50
-9.01
6.34
20.54
33.02
43.58
52.13
58.53
62.57
64.01
62.81
59.27
54.06
48.05
42.07
36.69
32.02
27.85
23.78
19.52
15.00
10.50
6.37
2.89
0.06
-2.49
-5.34
-9.01
-13.75
-19.36
-25.33
-31.06
-36.14
-40.52
-44.55
-48.78
-53.80
-60.03
-67.64
-76.39
-85.53
-93.90
-99.98
-102.23
-99.49
-91.31
-78.13
-61.21
-42.31
-23.27
-5.54
9.99
23.05
33.75
42.36
49.12
54.17
57.63
59.70
60.68
60.93
60.70
60.18
59.46
58.66
58.03
57.83
58.20
59.05
59.96
60.45
60.11
58.79
56.62
53.83
50.57
46.85
42.51
37.35
31.32
24.54
17.23
9.70
2.21
-5.10
-12.25
-19.40
-26.86
-35.01
-44.12
-54.21
-64.80
-74.86
-82.94
-87.45
-87.11
-81.39
-70.62
-55.95
-39.01
-21.48
-4.78
10.11
22.69
32.76
40.40
45.84
49.41
51.53
52.59
52.85
52.49
51.59
50.19
48.45
46.60
44.98
43.89
43.56
44.05
45.19
46.59
47.75
48.12
47.33
45.22
41.96
37.94
33.60
29.26
24.98
20.56
15.70
10.06
3.54
-3.76
-11.52
-19.34
-26.91
-34.11
-41.09
-48.19
-55.84
-64.40
-73.86
-83.70
-92.85
-99.78
-102.89
-100.94
-93.40
-80.68
-64.02
-45.14
-25.86
-7.71
8.26
21.48
31.83
39.49
44.79
48.12
49.80
50.11
49.26
47.48
45.05
42.33
39.68
37.37
35.59
34.42
33.91
34.08
34.82
35.87
36.74
36.89
35.90
33.60
30.20
26.09
21.68
17.18
12.57
7.68
2.33
-3.53
-9.80
-16.25
-22.65
-28.82
-34.75
-40.62
-46.83
-53.80
-61.80
-70.64
-79.49
-86.94
-91.27
-90.98
-85.25
-74.27
-59.20
-41.80
-23.98
-7.32
7.18
19.13
28.52
35.50
40.25
42.87
43.50
42.39
39.93
36.66
33.16
29.93
27.29
25.39
24.16
23.49
23.22
23.31
23.68
24.31
25.03
25.62
25.70
24.93
23.00
19.84
15.59
10.57
5.21
-0.11
-5.17
-9.95
-14.66
-19.61
-25.22
-31.77
-39.33
-47.49
-55.35
-61.53
-64.46
-62.84
-56.09
-44.59
-29.59
-12.80
4.13
20.05
34.45
47.36
59.00
69.52
78.74
86.14
90.90
92.12
89.13
81.89
71.09
58.11
44.69
32.40
22.19
14.26
8.26
3.62
-0.03
-2.81
-4.70
-5.69
-6.03
-6.07
-6.21
-6.67
-7.52
-8.67
-9.99
-11.40
-12.89
-14.50
-16.29
-18.41
-20.99
-24.16
-27.94
-32.14
-36.26
-39.52
-40.97
-39.62
-34.81
-26.35
-14.66
-0.74
14.11
28.57
41.56
52.37
60.67
66.34
69.46
70.18
68.80
65.69
61.23
55.78
49.62
43.02
36.36
30.11
24.84
20.96
18.66
17.75
17.75
18.06
18.14
17.68
16.60
14.99
13.00
10.71
8.11
5.05
1.26
-3.43
-9.18
-15.96
-23.68
-32.23
-41.51
-51.50
-62.22
-73.76
-86.16
-99.38
-113.10
-126.58
-138.60
-147.54
-151.84
-150.45
-143.31
-131.38
-116.39
-100.18
-84.22
-69.21
-55.22
-41.96
-29.19
-16.97
-5.63
4.37
12.68
19.17
23.96
27.32
29.57
31.01
31.94
32.68
33.60
35.05
37.20
39.96
42.94
45.47
46.83
46.49
44.28
40.46
35.63
30.55
25.82
21.70
18.05
14.35
10.03
4.68
-1.74
-8.94
-16.37
-23.60
-30.39
-36.85
-43.35
-50.38
-58.39
-67.49
-77.34
-86.94
-94.80
-99.17
-98.50
-91.99
-79.80
-63.07
-43.59
-23.30
-3.87
13.55
28.30
40.24
49.44
56.24
61.05
64.32
66.48
67.85
68.72
69.32
69.93
70.92
72.64
75.38
79.14
83.64
88.29
92.45
95.61
97.57
98.46
98.69
98.70
98.79
98.90
98.60
97.11
93.45
86.64
76.00
61.24
42.76
21.62
-0.58
-22.12
-41.62
-58.59
-73.58
-87.95
-103.22
-120.26
-138.73
-156.86
-171.95
-181.18
-182.56
-175.42
-160.63
-140.20
-116.62
-92.28
-69.04
-48.10
-30.08
-15.23
-3.50
5.24
11.34
15.29
17.61
18.83
19.38
19.50
19.29
18.81
18.16
17.55
17.29
17.68
18.90
20.86
23.10
24.94
25.68
24.82
22.25
18.21
13.17
7.65
2.03
-3.48
-8.86
-14.20
-19.69
-25.61
-32.29
-40.03
-48.93
-58.64
-68.27
-76.39
-81.29
-81.47
-76.12
-65.42
-50.57
-33.41
-15.91
0.32
14.36
25.87
34.94
41.74
46.40
48.92
49.35
47.85
44.79
40.75
36.46
32.63
29.86
28.46
28.46
29.56
31.33
33.30
35.15
36.66
37.64
37.82
36.92
34.64
30.91
25.88
19.92
13.46
6.84
0.22
-6.38
-13.04
-19.80
-26.75
-34.05
-42.01
-50.97
-61.05
-71.83
-82.25
-90.64
-95.08
-93.99
-86.64
-73.42
-55.81
-35.92
-15.95
2.32
17.85
30.33
39.94
47.16
52.49
56.28
58.81
60.20
60.49
59.74
58.08
55.71
53.01
50.40
48.26
46.83
46.14
46.04
46.25
46.42
46.21
45.35
43.64
40.99
37.43
33.10
28.19
22.86
17.23
11.32
5.17
-1.19
-7.62
-14.02
-20.32
-26.72
-33.60
-41.49
-50.76
-61.32
-72.40
-82.54
-89.83
-92.42
-89.10
-79.67
-65.03
-46.95
-27.47
-8.46
8.76
23.50
35.55
45.00
51.98
56.70
59.38
60.40
60.24
59.46
58.60
57.99
57.74
57.73
57.80
57.78
57.67
57.59
57.64
57.84
57.97
57.69
56.59
54.41
51.12
46.93
42.21
37.32
32.50
27.82
23.12
18.12
12.54
6.18
-0.97
-8.70
-16.67
-24.47
-31.73
-38.30
-44.28
-50.10
-56.40
-63.82
-72.60
-82.29
-91.58
-98.54
-101.15
-97.92
-88.41
-73.32
-54.27
-33.26
-12.21
7.43
24.72
39.17
50.57
58.89
64.23
66.84
67.09
65.39
62.20
57.94
52.95
47.54
42.02
36.73
32.10
28.47
26.09
24.90
24.53
24.37
23.76
22.21
19.54
15.97
11.94
7.91
4.17
0.73
-2.68
-6.46
-11.01
-16.46
-22.69
-29.29
-35.72
-41.58
-46.76
-51.55
-56.59
-62.59
-70.07
-79.01
-88.73
-97.91
-104.79
-107.67
-105.23
-97.00
-83.43
-65.90
-46.27
-26.55
-8.40
7.14
19.68
29.38
36.63
41.88
45.41
47.38
47.87
47.02
45.09
42.48
39.67
37.19
35.46
34.80
35.33
36.95
39.36
42.05
44.45
46.05
46.49
45.66
43.58
40.42
36.28
31.30
25.58
19.28
12.65
5.91
-0.75
-7.27
-13.71
-20.23
-27.03
-34.34
-42.35
-51.04
-60.00
-68.37
-74.79
-77.78
-76.15
-69.42
-58.04
-43.27
-26.83
-10.39
4.73
17.71
28.24
36.33
42.19
46.14
48.49
49.45
49.19
47.82
45.51
42.56
39.39
36.45
34.15
32.73
32.22
32.48
33.23
34.08
34.60
34.37
33.11
30.77
27.49
23.58
19.31
14.78
9.93
4.58
-1.40
-7.97
-14.94
-22.05
-29.08
-36.02
-43.09
-50.66
-59.14
-68.76
-79.34
-90.13
-99.79
-106.60
-108.91
-105.57
-96.36
-82.08
-64.34
-45.11
-26.22
-9.08
5.57
17.47
26.73
33.65
38.56
41.80
43.64
44.33
44.09
43.12
41.71
40.12
38.71
37.77
37.47
37.80
38.61
39.61
40.46
40.91
40.79
40.08
38.78
36.94
34.52
31.40
27.45
22.59
16.83
10.29
3.22
-4.13
-11.52
-18.79
-25.96
-33.24
-40.99
-49.58
-59.19
-69.41
-79.20
-86.93
-90.84
-89.59
-82.70
-70.73
-55.09
-37.59
-19.96
-3.53
10.87
22.88
32.45
39.74
45.06
48.70
50.94
51.95
51.79
50.57
48.47
45.86
43.20
40.98
39.57
39.07
39.30
39.85
40.27
40.16
39.35
37.86
35.84
33.41
30.58
27.23
23.14
18.20
12.46
6.12
-0.49
-7.08
-13.47
-19.61
-25.62
-31.66
-38.01
-45.03
-53.00
-62.04
-71.82
-81.41
-89.33
-93.83
-93.40
-87.33
-75.91
-60.47
-42.92
-25.16
-8.60
6.02
18.49
28.83
37.02
42.97
46.57
47.94
47.50
45.87
43.71
41.46
39.27
37.14
35.06
33.13
31.62
30.84
30.95
31.82
32.97
33.72
33.45
31.82
28.94
25.28
21.49
18.07
15.19
12.62
9.86
6.43
2.03
-3.30
-9.24
-15.37
-21.30
-26.86
-32.13
-37.43
-43.21
-49.82
-57.39
-65.53
-73.36
-79.57
-82.71
-81.60
-75.67
-65.18
-51.16
-35.15
-18.76
-3.31
10.32
21.73
30.82
37.67
42.40
45.14
46.10
45.49
43.64
40.88
37.60
34.19
31.00
28.35
26.45
25.37
25.05
25.34
26.06
27.03
28.05
28.87
29.13
28.40
26.32
22.73
17.80
11.98
5.86
-0.09
-5.67
-11.05
-16.69
-23.15
-30.87
-39.97
-50.09
-60.31
-69.23
-75.24
-76.85
-73.15
-64.12
-50.70
-34.50
-17.39
-0.94
13.74
26.11
36.00
43.40
48.35
50.96
51.45
50.24
47.89
44.92
41.74
38.56
35.43
32.37
29.47
26.90
24.81
23.28
22.27
21.59
20.91
19.85
18.01
15.00
10.64
4.96
-1.69
-8.79
-15.78
-22.30
-28.35
-34.26
-40.62
-48.06
-56.98
-67.30
-78.35
-88.81
-96.90
-100.79
-99.11
-91.41
-78.34
-61.54
-43.07
-24.91
-8.43
5.75
17.56
27.22
34.93
40.80
44.86
47.17
47.94
47.47
46.10
44.19
41.98
39.72
37.56
35.66
34.15
33.08
32.46
32.18
31.99
31.58
30.58
28.66
25.68
21.68
16.92
11.68
6.22
0.62
-5.19
-11.39
-18.22
-25.90
-34.61
-44.38
-55.06
-66.08
-76.42
-84.68
-89.28
-88.91
-82.99
-71.89
-56.84
-39.60
-21.98
-5.40
9.27
21.70
31.91
40.01
46.18
50.54
53.28
54.64
54.95
54.52
53.65
52.52
51.20
49.72
48.17
46.76
45.74
45.39
45.75
46.59
47.34
47.33
46.03
43.23
39.19
34.43
29.56
24.98
20.78
16.73
12.44
7.49
1.65
-5.07
-12.42
-20.00
-27.35
-34.19
-40.47
-46.49
-52.78
-59.91
-68.20
-77.41
-86.66
-94.48
-99.13
-99.10
-93.54
-82.55
-67.20
-49.21
-30.58
-13.03
2.24
14.71
24.37
31.54
36.60
39.90
41.68
42.16
41.61
40.35
38.70
36.97
35.35
33.98
32.95
32.36
32.25
32.61
33.32
34.15
34.77
34.91
34.33
32.90
30.57
27.33
23.23
18.34
12.77
6.67
0.24
-6.32
-12.82
-19.13
-25.22
-31.28
-37.67
-44.85
-53.07
-62.15
-71.20
-78.75
-83.04
-82.61
-76.73
-65.70
-50.71
-33.53
-15.94
0.57
15.01
26.92
36.24
43.10
47.78
50.48
51.41
50.78
48.91
46.21
43.22
40.46
38.30
36.89
36.17
35.91
35.86
35.82
35.65
35.23
34.46
33.20
31.34
28.83
25.59
21.59
16.83
11.37
5.35
-1.02
-7.47
-13.80
-19.95
-26.00
-32.19
-38.85
-46.32
-54.82
-64.27
-74.11
-83.23
-90.06
-92.94
-90.59
-82.61
-69.58
-52.94
-34.58
-16.33
0.42
14.83
26.57
35.64
42.27
46.78
49.57
51.03
51.50
51.25
50.46
49.29
47.89
46.45
45.15
44.20
43.76
43.93
44.71
45.90
47.17
48.05
48.05
46.81
44.16
40.21
35.31
29.92
24.42
19.04
13.67
8.06
1.91
-4.88
-12.16
-19.51
-26.42
-32.63
-38.13
-43.32
-48.78
-55.11
-62.70
-71.62
-81.46
-91.24
-99.52
-104.61
-105.05
-99.95
-89.39
-74.38
-56.58
-37.82
-19.70
-3.31
10.78
22.38
31.53
38.42
43.34
46.58
48.49
49.32
49.27
48.52
47.27
45.77
44.26
42.95
42.02
41.61
41.83
42.66
43.92
45.22
46.01
45.77
44.22
41.45
37.88
34.03
30.27
26.61
22.76
18.29
12.84
6.35
-0.96
-8.64
-16.23
-23.33
-29.80
-35.67
-41.19
-46.77
-52.89
-60.00
-68.35
-77.69
-87.16
-95.24
-100.14
-100.27
-94.78
-83.92
-68.91
-51.59
-33.82
-17.05
-2.14
10.53
20.92
29.10
35.23
39.55
42.40
44.16
45.15
45.53
45.32
44.47
42.97
40.97
38.77
36.80
35.44
34.94
35.26
36.17
37.18
37.75
37.43
36.03
33.58
30.35
26.73
22.97
19.18
15.23
10.91
6.01
0.52
-5.42
-11.50
-17.42
-22.99
-28.20
-33.28
-38.63
-44.71
-51.82
-59.92
-68.39
-76.03
-81.22
-82.34
-78.32
-69.01
-55.26
-38.73
-21.30
-4.61
10.29
22.97
33.43
41.83
48.23
52.62
55.02
55.60
54.79
53.20
51.46
50.05
49.19
48.86
48.88
49.09
49.42
50.01
51.05
52.67
54.83
57.17
59.14
60.14
59.73
57.81
54.66
50.85
47.01
43.69
41.25
39.71
38.65
37.11
33.66
26.77
15.32
-0.73
-20.08
-40.31
-58.49
-72.10
-79.74
-81.43
-78.33
-72.21
-64.82
-57.44
-50.76
-44.95
-39.98
-35.79
-32.43
-29.94
-28.25
-27.09
-26.01
-24.53
-22.38
-19.55
-16.35
-13.17
-10.27
-7.70
-5.30
-2.84
-0.21
2.47
4.87
6.51
6.96
5.97
3.57
0.03
-4.19
-8.70
-13.21
-17.65
-22.13
-26.89
-32.10
-37.96
-44.59
-52.11
-60.66
-70.13
-80.02
-89.24
-96.22
-99.23
-96.95
-88.91
-75.69
-58.76
-40.04
-21.39
-4.23
10.59
22.74
32.26
39.40
44.55
48.17
50.72
52.50
53.65
54.09
53.65
52.24
50.03
47.41
44.91
42.98
41.86
41.50
41.67
42.06
42.31
42.11
41.08
38.92
35.48
30.86
25.48
19.96
14.83
10.32
6.31
2.32
-2.25
-7.90
-14.89
-23.08
-31.86
-40.11
-46.39
-49.18
-47.39
-40.72
-29.81
-16.08
-1.29
12.87
25.21
34.99
41.93
46.02
47.39
46.30
43.10
38.22
32.09
25.13
17.68
10.12
2.84
-3.77
-9.44
-14.03
-17.58
-20.17
-21.89
-22.73
-22.69
-21.80
-20.23
-18.27
-16.31
-14.76
-14.00
-14.32
-15.88
-18.68
-22.56
-27.17
-32.07
-36.81
-41.14
-45.11
-49.07
-53.60
-59.22
-66.13
-73.98
-81.79
-88.10
-91.28
-90.02
-83.63
-72.28
-56.94
-39.11
-20.50
-2.62
13.42
26.99
37.91
46.33
52.56
56.90
59.62
60.86
60.74
59.41
57.13
54.33
51.46
48.96
47.16
46.19
46.03
46.49
47.27
47.95
48.15
47.50
45.87
43.31
40.08
36.47
32.68
28.71
24.41
19.58
14.09
8.03
1.63
-4.79
-11.00
-16.99
-23.04
-29.66
-37.42
-46.62
-57.00
-67.57
-76.68
-82.44
-83.23
-78.29
-67.96
-53.60
-37.13
-20.53
-5.28
7.84
18.66
27.41
34.40
39.83
43.69
45.87
46.33
45.20
42.85
39.87
36.90
34.44
32.74
31.78
31.35
31.21
31.14
31.06
30.91
30.59
29.94
28.72
26.68
23.66
19.61
14.63
8.92
2.73
-3.75
-10.36
-17.08
-23.98
-31.24
-39.11
-47.83
-57.54
-68.04
-78.63
-88.05
-94.67
-96.90
-93.68
-84.88
-71.37
-54.73
-36.80
-19.17
-2.97
11.17
22.98
32.36
39.30
43.99
46.77
48.11
48.46
48.13
47.24
45.76
43.78
41.52
39.42
37.93
37.29
37.45
38.05
38.57
38.55
37.73
36.02
33.49
30.27
26.45
22.09
17.22
11.87
6.07
-0.11
-6.58
-13.16
-19.69
-26.07
-32.36
-38.79
-45.77
-53.73
-62.86
-72.90
-82.95
-91.60
-97.18
-98.22
-93.88
-84.20
-70.10
-53.02
-34.55
-16.11
1.21
16.73
30.01
40.81
49.08
54.97
58.81
61.12
62.47
63.38
64.23
65.23
66.41
67.76
69.24
70.89
72.79
75.09
77.84
81.04
84.57
88.20
91.62
94.44
96.21
96.55
95.29
92.72
89.54
86.71
84.92
84.20
83.69
81.94
77.50
69.53
58.03
43.69
27.47
10.13
-7.89
-26.43
-45.40
-64.73
-84.39
-104.48
-125.09
-145.93
-166.08
-183.74
-196.66
-202.72
-200.60
-190.24
-172.82
-150.46
-125.56
-100.36
-76.54
-55.08
-36.38
-20.39
-6.83
4.68
14.54
23.04
30.39
36.72
42.09
46.59
50.45
54.03
57.86
62.40
67.99
74.54
81.55
88.14
93.22
95.87
95.52
92.14
86.31
78.99
71.24
63.90
57.31
51.32
45.37
38.79
31.11
22.15
12.10
1.38
-9.54
-20.26
-30.63
-40.72
-50.91
-61.62
-73.14
-85.28
-97.24
-107.59
-114.60
-116.67
-112.82
-103.07
-88.43
-70.71
-51.98
-34.14
-18.46
-5.52
4.65
12.31
17.68
20.87
21.93
21.04
18.62
15.35
11.94
9.02
6.98
6.03
6.23
7.56
9.90
12.96
16.29
19.29
21.42
22.28
21.73
19.81
16.71
12.60
7.64
2.02
-4.03
-10.23
-16.31
-22.09
-27.59
-33.04
-38.87
-45.60
-53.66
-63.10
-73.42
-83.38
-91.21
-95.00
-93.25
-85.42
-72.11
-54.88
-35.85
-17.06
-0.10
14.13
25.35
33.70
39.48
42.99
44.56
44.49
43.22
41.20
38.87
36.55
34.38
32.37
30.48
28.74
27.27
26.19
25.48
24.92
24.12
22.76
20.69
18.03
15.03
11.84
8.47
4.69
0.27
-4.93
-10.79
-17.03
-23.32
-29.47
-35.49
-41.55
-47.89
-54.78
-62.50
-71.18
-80.76
-90.72
-99.97
-106.90
-109.72
-107.01
-98.21
-83.91
-65.66
-45.54
-25.51
-7.03
9.11
22.61
33.48
41.85
47.93
52.05
54.65
56.15
56.88
56.99
56.50
55.50
54.21
53.05
52.53
52.99
54.53
56.83
59.34
61.34
62.20
61.49
59.12
55.36
50.72
45.86
41.24
37.00
32.87
28.28
22.58
15.41
6.83
-2.63
-12.21
-21.22
-29.29
-36.54
-43.43
-50.63
-58.68
-67.77
-77.57
-87.13
-95.00
-99.49
-99.18
-93.35
-82.24
-67.08
-49.66
-31.86
-15.18
-0.51
11.84
21.90
29.85
35.88
40.20
42.97
44.37
44.53
43.60
41.77
39.28
36.44
33.57
30.92
28.71
27.03
25.93
25.38
25.29
25.44
25.58
25.44
24.79
23.50
21.49
18.72
15.10
10.57
5.09
-1.25
-8.21
-15.50
-22.81
-29.93
-36.83
-43.68
-50.86
-58.77
-67.64
-77.20
-86.55
-94.17
-98.31
-97.43
-90.74
-78.50
-61.94
-42.93
-23.40
-4.95
11.44
25.32
36.55
45.09
50.91
54.06
54.78
53.58
51.18
48.32
45.58
43.26
41.37
39.76
38.31
37.00
35.93
35.23
34.95
34.99
35.08
34.79
33.66
31.31
27.55
22.51
16.58
10.29
4.14
-1.60
-7.00
-12.43
-18.41
-25.47
-33.91
-43.63
-53.97
-63.75
-71.37
-75.20
-73.98
-67.22
-55.44
-39.95
-22.56
-5.07
11.14
25.19
36.67
45.45
51.56
55.07
56.20
55.31
52.91
49.60
45.97
42.45
39.33
36.70
34.54
32.82
31.43
30.35
29.52
28.90
28.35
27.66
26.54
24.68
21.88
18.11
13.56
8.54
3.38
-1.71
-6.73
-11.88
-17.45
-23.81
-31.30
-40.23
-50.68
-62.41
-74.63
-85.89
-94.37
-98.26
-96.27
-88.05
-74.28
-56.44
-36.44
-16.12
3.02
19.96
34.20
45.68
54.62
61.35
66.20
69.37
71.02
71.29
70.36
68.57
66.29
63.92
61.79
60.12
59.00
58.36
57.97
57.45
56.44
54.65
51.93
48.35
44.10
39.44
34.63
29.93
25.52
21.50
17.80
14.23
10.53
6.47
1.96
-3.00
-8.38
-14.30
-21.06
-29.03
-38.35
-48.67
-59.00
-67.78
-73.28
-74.07
-69.50
-59.89
-46.41
-30.79
-14.77
0.20
13.25
24.01
32.47
38.72
42.91
45.16
45.68
44.83
43.09
40.92
38.64
36.32
33.86
31.10
27.99
24.72
21.64
19.13
17.40
16.33
15.46
14.13
11.73
7.89
2.62
-3.72
-10.61
-17.53
-24.17
-30.47
-36.63
-43.05
-50.21
-58.60
-68.50
-79.76
-91.61
-102.65
-111.01
-114.82
-112.76
-104.41
-90.42
-72.25
-51.80
-30.97
-11.33
6.01
20.40
31.54
39.44
44.36
46.73
47.09
45.99
43.90
41.18
38.08
34.84
31.70
28.93
26.81
25.54
25.19
25.62
26.44
27.07
26.92
25.56
22.94
19.34
15.34
11.56
8.36
5.72
3.21
0.10
-4.37
-10.60
-18.46
-27.02
-34.73
-39.64
-39.97
-34.54
-23.09
-6.34
14.28
37.04
60.25
82.54
102.86
120.53
135.00
145.81
152.43
154.27
150.71
141.25
125.83
105.00
80.02
52.69
24.92
-1.60
-25.78
-47.06
-65.33
-80.65
-93.08
-102.70
-109.62
-114.08
-116.40
-116.88
-115.75
-113.14
-109.29
-104.61
-99.86
-96.03
-94.12
-94.74
-97.77
-102.17
-106.09
-107.27
-103.64
-93.87
-77.87
-56.70
-32.33
-7.13
16.62
37.11
53.11
64.10
70.15
71.81
69.94
65.47
59.27
52.00
44.14
36.04
28.02
20.41
13.54
7.76
3.31
0.33
-1.22
-1.61
-1.39
-1.29
-2.08
-4.34
-8.23
-13.43
-19.26
-24.99
-30.15
-34.74
-39.27
-44.58
-51.54
-60.61
-71.58
-83.39
-94.23
-101.92
-104.49
-100.74
-90.63
-75.28
-56.61
-36.82
-17.79
-0.81
13.49
24.91
33.43
39.15
42.17
42.77
41.38
38.63
35.19
31.64
28.32
25.37
22.81
20.66
19.06
18.22
18.22
18.89
19.76
20.14
19.37
17.10
13.33
8.46
3.02
-2.53
-7.95
-13.36
-19.20
-26.10
-34.55
-44.62
-55.59
-65.99
-73.74
-76.76
-73.64
-64.08
-49.05
-30.44
-10.56
8.55
25.44
39.34
50.01
57.51
61.97
63.60
62.68
59.71
55.36
50.41
45.57
41.31
37.84
35.14
33.12
31.68
30.76
30.26
29.95
29.43
28.25
26.03
22.62
18.16
13.01
7.57
1.97
-3.98
-10.85
-19.36
-29.95
-42.46
-55.82
-68.12
-76.95
-80.14
-76.37
-65.63
-49.25
-29.44
-8.73
10.73
27.52
41.03
51.23
58.42
62.95
65.11
65.22
63.60
60.74
57.14
53.33
49.68
46.44
43.69
41.48
39.86
38.90
38.58
38.77
39.09
38.99
37.83
35.05
30.36
23.82
15.89
7.29
-1.21
-9.06
-16.11
-22.71
-29.64
-37.84
-48.08
-60.49
-74.35
-87.96
-98.98
-104.93
-103.93
-95.29
-79.79
-59.42
-36.81
-14.47
5.74
22.91
36.88
47.93
56.46
62.80
67.18
69.83
70.97
70.86
69.73
67.81
65.29
62.49
59.79
57.56
56.09
55.43
55.34
55.47
55.36
54.68
53.16
50.66
47.14
42.60
37.12
30.79
23.70
15.93
7.53
-1.40
-10.65
-19.97
-29.05
-37.76
-46.18
-54.70
-63.91
-74.30
-85.97
-98.27
-109.73
-118.20
-121.44
-117.74
-106.58
-88.91
-66.84
-43.05
-20.05
0.43
17.58
31.32
41.97
49.92
55.48
58.90
60.51
60.64
59.71
58.08
56.03
53.75
51.46
49.38
47.81
46.95
46.87
47.35
47.94
48.10
47.40
45.64
42.88
39.34
35.22
30.64
25.58
19.94
13.63
6.64
-0.98
-9.10
-17.51
-25.97
-34.24
-42.17
-49.83
-57.55
-65.89
-75.31
-85.85
-96.85
-106.84
-113.81
-115.80
-111.46
-100.56
-84.07
-63.86
-42.21
-21.24
-2.48
13.28
25.85
35.45
42.43
47.08
49.64
50.29
49.29
47.02
43.99
40.73
37.69
35.15
33.20
31.84
31.02
30.78
31.13
32.01
33.20
34.29
34.81
34.32
32.58
29.55
25.39
20.34
14.65
8.48
2.01
-4.66
-11.41
-18.08
-24.63
-31.15
-37.92
-45.33
-53.66
-62.74
-71.82
-79.54
-84.22
-84.32
-78.94
-68.11
-52.80
-34.60
-15.29
3.52
20.68
35.41
47.25
55.89
61.22
63.33
62.65
59.90
55.99
51.73
47.73
44.21
41.18
38.50
36.06
33.85
31.92
30.34
29.12
28.11
27.01
25.37
22.70
18.65
13.14
6.48
-0.79
-8.03
-14.80
-21.00
-26.85
-32.78
-39.28
-46.82
-55.70
-65.93
-77.04
-87.89
-96.72
-101.51
-100.52
-92.96
-79.26
-61.00
-40.42
-19.79
-0.86
15.28
28.23
38.04
45.01
49.56
52.15
53.21
53.10
52.12
50.48
48.39
46.10
43.82
41.78
40.04
38.62
37.46
36.51
35.74
35.06
34.34
33.37
31.85
29.52
26.12
21.53
15.78
9.04
1.60
-6.15
-13.86
-21.32
-28.50
-35.58
-42.92
-50.94
-59.96
-70.12
-81.15
-92.17
-101.77
-108.10
-109.42
-104.54
-93.37
-76.91
-57.01
-35.89
-15.49
2.84
18.43
31.11
41.02
48.42
53.64
57.06
59.06
59.99
60.13
59.63
58.59
57.12
55.41
53.78
52.59
52.21
52.79
54.24
56.17
57.97
58.99
58.77
57.19
54.52
51.26
47.95
44.91
42.10
39.23
35.93
31.96
27.40
22.60
18.02
14.00
10.58
7.44
4.03
-0.26
-5.71
-11.92
-17.72
-21.25
-20.45
-13.65
-0.27
18.80
41.34
64.16
83.87
97.50
103.13
100.15
89.27
72.29
51.56
29.38
7.44
-13.29
-32.51
-50.13
-65.91
-79.39
-89.96
-97.18
-100.94
-101.44
-99.05
-94.15
-87.13
-78.51
-69.04
-59.66
-51.32
-44.65
-39.83
-36.57
-34.34
-32.64
-31.20
-30.09
-29.60
-30.08
-31.69
-34.39
-37.87
-41.69
-45.42
-48.78
-51.77
-54.70
-58.15
-62.72
-68.87
-76.57
-85.11
-93.15
-98.87
-100.51
-96.77
-87.25
-72.58
-54.24
-34.19
-14.36
3.70
19.11
31.55
41.14
48.11
52.71
55.15
55.67
54.61
52.44
49.64
46.65
43.69
40.84
38.09
35.56
33.43
32.03
31.54
31.95
32.90
33.75
33.75
32.33
29.23
24.62
18.99
12.96
7.01
1.37
-4.06
-9.64
-15.88
-23.25
-31.99
-41.96
-52.51
-62.47
-70.31
-74.42
-73.60
-67.34
-56.04
-40.91
-23.65
-5.99
10.63
25.31
37.62
47.44
54.73
59.44
61.50
61.04
58.38
54.14
49.04
43.76
38.77
34.32
30.48
27.32
24.93
23.36
22.57
22.29
21.99
21.08
19.00
15.43
10.36
4.12
-2.78
-9.82
-16.61
-23.08
-29.48
-36.39
-44.44
-54.05
-65.11
-76.76
-87.45
-95.16
-98.01
-94.77
-85.29
-70.53
-52.28
-32.60
-13.32
4.30
19.55
32.14
41.98
49.00
53.25
54.96
54.59
52.79
50.27
47.55
44.91
42.33
39.65
36.79
33.84
31.13
29.12
28.12
28.11
28.63
28.93
28.15
25.70
21.43
15.62
8.86
1.80
-5.12
-11.70
-18.08
-24.65
-31.95
-40.50
-50.60
-62.10
-74.25
-85.64
-94.44
-98.73
-97.03
-88.66
-74.01
-54.45
-32.04
-9.07
12.44
30.99
45.84
56.88
64.48
69.31
72.12
73.62
74.39
74.78
74.90
74.70
74.03
72.82
71.19
69.39
67.74
66.43
65.48
64.68
63.69
62.15
59.74
56.27
51.69
46.15
39.94
33.42
26.89
20.44
13.92
7.02
-0.57
-8.98
-18.02
-27.31
-36.51
-45.51
-54.60
-64.31
-75.14
-87.11
-99.42
-110.47
-118.10
-120.29
-115.75
-104.33
-87.16
-66.23
-43.87
-22.23
-2.82
13.51
26.51
36.34
43.39
48.11
50.97
52.38
52.65
52.00
50.59
48.55
46.09
43.49
41.14
39.40
38.55
38.62
39.45
40.60
41.49
41.59
40.54
38.24
34.86
30.74
26.20
21.46
16.49
11.21
5.48
-0.68
-7.15
-13.75
-20.30
-26.79
-33.31
-40.12
-47.59
-56.11
-66.02
-77.21
-88.92
-99.56
-107.05
-109.29
-104.90
-93.79
-77.12
-57.02
-35.83
-15.53
2.66
18.13
30.72
40.42
47.25
51.27
52.72
52.06
49.96
47.15
44.27
41.76
39.77
38.31
37.32
36.81
36.89
37.68
39.20
41.21
43.27
44.73
44.97
43.56
40.42
35.85
30.39
24.66
19.11
13.90
8.85
3.62
-2.11
-8.49
-15.38
-22.45
-29.31
-35.75
-41.74
-47.48
-53.32
-59.70
-66.97
-75.25
-84.24
-93.02
-100.09
-103.62
-101.98
-94.24
-80.66
-62.55
-41.98
-21.08
-1.63
15.24
28.99
39.50
46.89
51.44
53.52
53.57
52.00
49.21
45.58
41.59
37.82
34.93
33.43
33.55
35.10
37.56
40.26
42.51
43.80
43.83
42.52
40.04
36.69
32.86
28.85
24.79
20.58
15.95
10.61
4.42
-2.54
-10.03
-17.72
-25.37
-32.90
-40.49
-48.54
-57.51
-67.60
-78.53
-89.24
-98.03
-102.86
-102.02
-94.66
-81.15
-63.01
-42.45
-21.77
-2.79
13.40
26.43
36.40
43.68
48.67
51.74
53.24
53.48
52.78
51.45
49.75
47.89
46.07
44.43
43.14
42.36
42.18
42.64
43.59
44.76
45.74
46.16
45.77
44.50
42.43
39.66
36.22
32.02
26.94
20.96
14.23
7.07
-0.13
-7.08
-13.65
-19.97
-26.30
-32.97
-40.34
-48.69
-58.07
-68.11
-77.80
-85.47
-89.12
-86.99
-78.21
-63.24
-43.83
-22.48
-1.66
16.77
31.89
43.60
52.27
58.35
62.20
64.07
64.16
62.72
60.09
56.60
52.56
48.21
43.78
39.50
35.68
32.66
30.64
29.66
29.41
29.41
29.07
27.93
25.78
22.70
18.88
14.54
9.74
4.41
-1.54
-8.17
-15.31
-22.71
-30.00
-36.93
-43.40
-49.56
-55.83
-62.76
-70.88
-80.42
-91.11
-101.98
-111.39
-117.35
-118.00
-112.19
-99.87
-82.18
-61.16
-39.14
-18.20
0.27
15.62
27.80
37.01
43.53
47.61
49.52
49.64
48.47
46.52
44.20
41.74
39.23
36.71
34.39
32.64
31.88
32.39
34.12
36.55
38.93
40.44
40.52
38.98
36.03
32.09
27.60
22.83
17.86
12.60
6.88
0.52
-6.57
-14.35
-22.57
-30.83
-38.66
-45.72
-52.00
-57.96
-64.34
-71.90
-80.95
-91.03
-100.73
-107.97
-110.53
-106.74
-95.97
-78.90
-57.29
-33.51
-9.91
11.70
30.29
45.52
57.55
66.64
73.04
76.90
78.37
77.74
75.50
72.26
68.63
65.10
62.01
59.51
57.63
56.36
55.59
55.19
54.87
54.27
53.03
50.80
47.37
42.62
36.56
29.37
21.42
13.21
5.31
-1.88
-8.34
-14.44
-20.90
-28.53
-37.86
-48.89
-60.98
-72.87
-82.93
-89.43
-90.98
-86.80
-77.05
-62.79
-45.81
-28.18
-11.78
2.07
12.74
20.19
24.77
26.87
26.80
24.79
21.04
15.79
9.39
2.26
-5.14
-12.38
-19.12
-25.02
-29.88
-33.62
-36.38
-38.53
-40.58
-43.02
-46.13
-49.81
-53.64
-57.01
-59.42
-60.74
-61.25
-61.65
-62.83
-65.54
-70.20
-76.58
-83.75
-90.14
-93.85
-93.10
-86.75
-74.68
-57.90
-38.29
-18.01
1.04
17.64
31.37
42.33
50.79
56.89
60.55
61.63
60.13
56.36
50.90
44.53
38.02
32.01
26.99
23.22
20.73
19.32
18.57
17.94
16.87
14.94
12.00
8.09
3.41
-1.82
-7.45
-13.54
-20.39
-28.47
-38.28
-49.87
-62.59
-74.89
-84.58
-89.44
-87.93
-79.74
-65.88
-48.28
-29.14
-10.31
6.93
21.89
34.16
43.45
49.55
52.44
52.39
50.03
46.15
41.43
36.31
30.88
25.11
19.07
13.10
7.72
3.34
-0.03
-2.94
-6.36
-11.32
-18.47
-27.89
-39.09
-51.23
-63.48
-75.16
-85.92
-95.70
-104.80
-113.72
-123.00
-132.90
-142.95
-151.86
-157.65
-158.21
-152.00
-138.63
-119.03
-95.14
-69.28
-43.54
-19.36
2.54
21.94
38.86
53.39
65.59
75.53
83.30
89.06
92.92
95.06
95.68
94.99
93.32
91.01
88.44
85.91
83.65
81.77
80.21
78.79
77.19
74.99
71.74
67.09
60.91
53.34
44.75
35.66
26.50
17.52
8.71
-0.13
-9.35
-19.34
-30.48
-43.00
-56.81
-71.17
-84.61
-95.04
-100.31
-98.85
-90.25
-75.43
-56.25
-34.94
-13.46
6.86
25.32
41.59
55.59
67.25
76.62
83.93
89.48
93.64
96.69
98.78
99.95
100.21
99.64
98.43
96.94
95.60
94.82
94.83
95.55
96.53
97.12
96.69
94.86
91.66
87.50
82.94
78.45
74.22
70.12
65.76
60.75
54.83
48.03
40.64
33.13
25.95
19.39
13.46
7.89
2.23
-3.98
-11.03
-18.94
-27.47
-36.13
-44.44
-52.03
-58.84
-65.25
-71.96
-79.82
-89.43
-100.70
-112.52
-122.83
-129.05
-128.90
-121.09
-105.84
-84.77
-60.36
-35.26
-11.63
9.20
26.68
40.87
52.10
60.78
67.30
71.94
74.88
76.25
76.16
74.82
72.56
69.84
67.20
65.13
63.98
63.90
64.79
66.36
68.24
69.98
71.20
71.56
70.79
68.77
65.52
61.23
56.25
50.97
45.75
40.76
35.98
31.23
26.24
20.81
14.77
8.15
1.03
-6.37
-13.75
-20.85
-27.43
-33.46
-39.11
-44.80
-51.08
-58.55
-67.47
-77.62
-87.99
-96.88
-102.23
-102.22
-95.85
-83.35
-66.07
-46.13
-25.71
-6.51
10.46
24.81
36.54
45.72
52.43
56.78
59.00
59.48
58.70
57.07
54.89
52.39
49.75
47.26
45.24
44.00
43.71
44.34
45.64
47.21
48.71
49.77
50.19
49.80
48.53
46.38
43.42
39.80
35.68
31.25
26.67
22.07
17.47
12.85
8.07
3.01
-2.44
-8.27
-14.39
-20.62
-26.73
-32.54
-37.96
-43.08
-48.18
-53.66
-59.98
-67.37
-75.61
-83.88
-90.76
-94.56
-93.74
-87.44
-75.74
-59.74
-41.17
-21.97
-3.77
12.27
25.57
35.93
43.40
48.17
50.53
50.90
49.74
47.54
44.73
41.62
38.49
35.53
32.96
30.97
29.68
29.10
29.18
29.82
30.85
32.07
33.21
33.96
33.99
33.06
31.06
28.10
24.47
20.55
16.67
13.00
9.48
5.87
1.89
-2.64
-7.69
-13.00
-18.26
-23.14
-27.53
-31.46
-35.15
-38.82
-42.74
-47.18
-52.38
-58.44
-65.14
-71.76
-77.05
-79.55
-77.98
-71.72
-61.03
-46.96
-31.08
-14.94
0.16
13.38
24.20
32.43
38.07
41.29
42.45
41.94
40.22
37.66
34.59
31.27
27.98
24.96
22.41
20.45
19.13
18.47
18.43
19.01
20.18
21.80
23.62
25.25
26.25
26.26
25.09
22.79
19.66
16.10
12.51
9.11
5.86
2.51
-1.29
-5.81
-11.11
-17.02
-23.14
-29.04
-34.42
-39.19
-43.50
-47.73
-52.35
-57.75
-64.17
-71.48
-79.05
-85.76
-90.13
-90.71
-86.48
-77.24
-63.73
-47.47
-30.29
-13.86
0.67
12.72
22.20
29.21
33.97
36.68
37.63
37.13
35.55
33.26
30.56
27.69
24.84
22.16
19.83
18.01
16.82
16.35
16.64
17.62
19.05
20.58
21.73
22.04
21.19
19.15
16.16
12.66
9.02
5.47
1.96
-1.75
-5.91
-10.69
-16.04
-21.70
-27.33
-32.61
-37.36
-41.61
-45.60
-49.74
-54.49
-60.25
-67.16
-74.92
-82.62
-88.86
-91.98
-90.57
-83.98
-72.51
-57.43
-40.52
-23.58
-7.98
5.44
16.39
24.86
30.95
34.85
36.76
37.00
35.93
33.91
31.30
28.35
25.32
22.42
19.90
18.04
17.14
17.39
18.77
20.95
23.38
25.36
26.32
25.97
24.42
22.10
19.53
17.13
15.07
13.24
11.33
8.97
5.86
1.86
-2.88
-8.02
-13.14
-17.87
-22.10
-25.99
-29.97
-34.58
-40.24
-47.08
-54.70
-62.20
-68.23
-71.31
-70.22
-64.41
-54.17
-40.63
-25.45
-10.33
3.37
14.84
23.88
30.63
35.39
38.37
39.71
39.49
37.84
35.07
31.54
27.70
23.86
20.26
17.00
14.13
11.75
9.99
8.97
8.75
9.20
10.04
10.81
11.02
10.24
8.25
5.08
1.03
-3.46
-7.99
-12.35
-16.56
-20.87
-25.59
-31.00
-37.25
-44.40
-52.32
-60.59
-68.44
-74.65
-77.77
-76.57
-70.44
-59.78
-45.90
-30.66
-15.84
-2.68
8.27
17.00
23.70
28.46
31.26
32.04
30.93
28.26
24.59
20.43
16.21
12.19
8.51
5.33
2.82
1.17
0.42
0.43
0.82
1.10
0.75
-0.59
-3.03
-6.45
-10.52
-14.83
-19.06
-23.06
-27.00
-31.32
-36.63
-43.38
-51.61
-60.66
-69.18
-75.33
-77.34
-74.01
-65.09
-51.45
-34.76
-17.00
0.02
15.00
27.27
36.69
43.45
47.88
50.37
51.23
50.74
49.09
46.50
43.19
39.43
35.55
31.90
28.75
26.29
24.57
23.55
23.15
23.16
23.26
23.01
21.85
19.36
15.35
9.99
3.78
-2.66
-8.82
-14.53
-19.98
-25.58
-31.86
-39.25
-47.93
-57.71
-67.87
-77.12
-83.77
-86.10
-82.91
-73.94
-59.97
-42.59
-23.70
-5.03
12.16
27.07
39.29
48.71
55.47
59.96
62.74
64.36
65.16
65.24
64.54
63.03
60.87
58.43
56.18
54.51
53.67
53.68
54.37
55.39
56.27
56.51
55.70
53.70
50.67
46.99
43.11
39.31
35.56
31.57
26.93
21.27
14.48
6.73
-1.56
-9.91
-17.91
-25.40
-32.56
-39.81
-47.71
-56.64
-66.52
-76.62
-85.56
-91.60
-93.08
-88.91
-79.02
-64.36
-46.70
-28.10
-10.42
5.12
17.97
28.17
36.06
42.06
46.51
49.64
51.65
52.68
52.87
52.40
51.41
50.08
48.63
47.32
46.41
46.07
46.30
46.98
47.87
48.71
49.23
49.18
48.34
46.53
43.75
40.18
36.16
32.09
28.23
24.57
20.82
16.59
11.53
5.57
-1.10
-8.11
-15.04
-21.58
-27.58
-33.05
-38.19
-43.27
-48.70
-54.90
-62.14
-70.37
-79.01
-86.89
-92.40
-93.90
-90.21
-80.96
-66.84
-49.34
-30.45
-12.07
4.39
18.17
29.16
37.71
44.29
49.33
53.08
55.62
56.97
57.23
56.62
55.52
54.36
53.50
53.17
53.46
54.40
55.97
58.07
60.46
62.69
64.18
64.32
62.74
59.45
54.82
49.48
44.01
38.77
33.82
28.95
23.87
18.32
12.17
5.45
-1.76
-9.29
-17.01
-24.71
-32.18
-39.23
-45.75
-51.81
-57.74
-64.10
-71.45
-80.03
-89.52
-98.88
-106.50
-110.52
-109.42
-102.51
-90.13
-73.63
-54.98
-36.24
-19.04
-4.41
7.35
16.41
23.14
27.93
31.05
32.69
33.04
32.30
30.79
28.86
26.89
25.21
24.11
23.73
24.13
25.26
27.02
29.24
31.66
33.89
35.46
35.93
35.02
32.75
29.44
25.59
21.67
18.00
14.61
11.28
7.68
3.48
-1.53
-7.34
-13.72
-20.23
-26.42
-31.97
-36.82
-41.28
-45.90
-51.32
-58.00
-65.99
-74.76
-83.14
-89.57
-92.35
-90.20
-82.61
-69.99
-53.65
-35.43
-17.22
-0.59
13.42
24.37
32.31
37.60
40.77
42.29
42.56
41.83
40.31
38.24
35.92
33.69
31.83
30.52
29.81
29.69
30.09
30.98
32.25
33.67
34.95
35.70
35.61
34.52
32.48
29.76
26.67
23.44
20.15
16.64
12.64
7.93
2.49
-3.44
-9.43
-15.10
-20.24
-24.93
-29.46
-34.29
-39.82
-46.38
-54.06
-62.52
-70.96
-78.06
-82.18
-81.88
-76.38
-65.91
-51.71
-35.63
-19.57
-4.96
7.48
17.60
25.57
31.62
35.86
38.31
39.01
38.12
35.96
33.02
29.83
26.90
24.59
23.10
22.43
22.42
22.88
23.59
24.41
25.18
25.80
26.12
25.97
25.19
23.65
21.31
18.18
14.36
9.93
4.94
-0.54
-6.37
-12.34
-18.16
-23.65
-28.83
-34.04
-39.85
-46.77
-54.90
-63.61
-71.58
-77.09
-78.53
-74.93
-66.31
-53.57
-38.26
-22.09
-6.56
7.29
18.88
28.00
34.72
39.18
41.58
42.18
41.28
39.23
36.42
33.19
29.89
26.79
24.12
22.10
20.85
20.44
20.75
21.54
22.42
23.02
23.04
22.33
20.83
18.55
15.50
11.69
7.19
2.09
-3.42
-9.12
-14.83
-20.45
-26.04
-31.72
-37.71
-44.22
-51.44
-59.54
-68.52
-78.07
-87.31
-94.90
-99.20
-98.76
-92.85
-81.76
-66.70
-49.49
-31.89
-15.26
-0.40
12.33
22.83
31.04
37.00
40.90
43.10
44.06
44.21
43.81
42.94
41.61
39.91
38.10
36.60
35.83
36.06
37.25
39.04
40.88
42.18
42.53
41.75
39.94
37.22
33.73
29.45
24.25
18.06
10.94
3.12
-5.01
-13.06
-20.78
-28.12
-35.20
-42.29
-49.71
-57.82
-66.95
-77.17
-88.15
-98.90
-107.84
-113.09
-113.08
-106.98
-95.06
-78.58
-59.38
-39.34
-20.03
-2.46
12.82
25.62
35.95
43.97
49.91
54.12
56.93
58.62
59.35
59.24
58.36
56.84
54.91
52.86
51.00
49.55
48.61
48.13
47.91
47.64
46.99
45.59
43.16
39.53
34.77
29.18
23.22
17.37
11.90
6.81
1.82
-3.39
-9.03
-15.00
-21.04
-26.83
-32.18
-37.12
-41.92
-46.93
-52.49
-58.92
-66.42
-74.97
-84.12
-92.95
-100.00
-103.63
-102.50
-95.96
-84.34
-68.81
-51.06
-32.82
-15.51
-0.09
12.99
23.60
31.79
37.79
41.88
44.41
45.75
46.19
45.96
45.25
44.24
43.18
42.30
41.83
41.95
42.66
43.87
45.44
47.14
48.71
49.84
50.18
49.45
47.55
44.59
40.91
36.95
33.02
29.22
25.43
21.38
16.77
11.39
5.19
-1.72
-8.99
-16.19
-22.88
-28.81
-34.06
-39.03
-44.41
-50.88
-58.83
-68.01
-77.49
-85.72
-90.88
-91.49
-86.75
-76.85
-62.85
-46.39
-29.23
-12.85
1.73
14.04
24.00
31.83
37.83
42.31
45.42
47.25
47.82
47.24
45.78
43.85
41.96
40.57
39.99
40.32
41.43
43.06
44.88
46.55
47.77
48.28
47.89
46.50
44.15
41.00
37.35
33.50
29.71
26.00
22.20
18.02
13.15
7.51
1.22
-5.40
-12.06
-18.60
-25.18
-32.19
-40.07
-48.97
-58.54
-67.79
-75.24
-79.31
-78.70
-72.93
-62.37
-48.30
-32.40
-16.41
-1.69
10.95
21.22
29.15
34.94
38.83
41.01
41.65
40.96
39.20
36.74
34.02
31.52
29.64
28.56
28.26
28.46
28.81
29.08
29.19
29.22
29.29
29.28
28.83
27.43
24.67
20.43
14.99
8.87
2.61
-3.42
-9.16
-14.76
-20.48
-26.59
-33.39
-41.11
-49.89
-59.55
-69.40
-78.22
-84.43
-86.56
-83.69
-75.78
-63.61
-48.57
-32.21
-15.93
-0.79
12.50
23.54
32.20
38.59
42.99
45.80
47.39
48.00
47.74
46.69
44.94
42.78
40.60
38.83
37.80
37.63
38.19
39.13
40.00
40.42
40.14
39.09
37.34
35.00
32.15
28.80
24.91
20.51
15.60
10.24
4.53
-1.45
-7.58
-13.72
-19.78
-25.78
-31.94
-38.64
-46.32
-55.19
-65.05
-75.08
-83.94
-90.04
-91.94
-88.73
-80.32
-67.47
-51.59
-34.39
-17.48
-2.11
11.05
21.81
30.32
36.92
41.91
45.54
47.99
49.41
49.96
49.82
49.17
48.15
46.94
45.73
44.81
44.47
44.92
46.18
48.03
50.03
51.67
52.51
52.34
51.15
49.06
46.21
42.73
38.65
34.10
29.21
24.23
19.37
14.76
10.40
6.08
1.52
-3.56
-9.31
-15.73
-22.58
-29.45
-35.96
-41.83
-47.14
-52.29
-57.92
-64.64
-72.65
-81.55
-90.20
-96.93
-100.03
-98.21
-91.02
-78.98
-63.42
-46.07
-28.67
-12.57
1.37
12.82
21.80
28.58
33.55
37.12
39.69
41.53
42.79
43.52
43.74
43.50
42.97
42.42
42.14
42.33
43.08
44.31
45.83
47.36
48.60
49.29
49.22
48.30
46.52
44.00
40.89
37.36
33.53
29.49
25.28
20.97
16.60
12.15
7.52
2.56
-2.87
-8.76
-14.90
-20.96
-26.58
-31.60
-36.13
-40.55
-45.36
-51.04
-57.88
-65.83
-74.43
-82.80
-89.70
-93.70
-93.54
-88.47
-78.52
-64.59
-48.22
-31.20
-15.10
-0.97
10.72
19.99
27.12
32.47
36.31
38.86
40.28
40.71
40.31
39.27
37.86
36.33
34.95
33.91
33.35
33.32
33.80
34.72
35.94
37.29
38.50
39.29
39.39
38.64
36.97
34.45
31.31
27.75
23.99
20.15
16.22
12.07
7.57
2.65
-2.66
-8.19
-13.77
-19.23
-24.45
-29.40
-34.12
-38.75
-43.60
-49.04
-55.39
-62.69
-70.41
-77.43
-82.28
-83.51
-80.22
-72.33
-60.61
-46.41
-31.28
-16.56
-3.18
8.31
17.72
25.06
30.47
34.16
36.36
37.33
37.34
36.59
35.26
33.51
31.52
29.51
27.75
26.52
26.02
26.32
27.28
28.65
30.08
31.24
31.90
31.89
31.13
29.58
27.33
24.48
21.22
17.73
14.14
10.45
6.62
2.56
-1.76
-6.28
-10.87
-15.41
-19.86
-24.38
-29.22
-34.70
-40.93
-47.63
-54.03
-58.87
-60.74
-58.44
-51.38
-39.82
-24.75
-7.66
9.87
26.54
41.46
54.18
64.55
72.60
78.49
82.48
84.97
86.39
87.12
87.43
87.42
87.09
86.47
85.68
84.93
84.43
84.30
84.45
84.60
84.34
83.29
81.23
78.12
74.09
69.41
64.41
59.32
54.27
49.25
44.18
38.97
33.64
28.24
22.93
17.84
13.05
8.52
4.10
-0.39
-5.00
-9.47
-13.14
-14.90
-13.47
-7.67
3.10
18.67
38.00
59.41
80.86
100.32
116.06
126.78
131.77
130.90
124.63
113.96
100.36
85.50
70.95
57.87
46.71
37.17
28.30
18.82
7.49
-6.40
-22.89
-41.22
-60.06
-77.81
-92.98
-104.56
-112.18
-116.16
-117.29
-116.62
-115.21
-113.96
-113.59
-114.58
-117.12
-121.05
-125.87
-130.84
-135.20
-138.41
-140.38
-141.53
-142.60
-144.29
-146.94
-150.14
-152.80
-153.26
-149.89
-141.52
-127.93
-109.94
-89.17
-67.62
-47.11
-28.85
-13.35
-0.57
9.79
18.02
24.28
28.63
31.16
32.12
31.86
30.77
29.14
27.20
25.10
22.97
20.96
19.17
17.61
16.18
14.76
13.20
11.41
9.37
7.01
4.22
0.81
-3.37
-8.42
-14.22
-20.59
-27.26
-33.97
-40.57
-47.06
-53.62
-60.56
-68.28
-77.09
-86.90
-97.09
-106.45
-113.35
-116.13
-113.59
-105.39
-92.20
-75.52
-57.23
-39.17
-22.70
-8.55
3.07
12.32
19.46
24.71
28.26
30.25
30.91
30.54
29.47
27.98
26.32
24.65
23.15
22.04
21.54
21.84
22.94
24.56
26.22
27.34
27.44
26.35
24.22
21.42
18.34
15.22
12.03
8.50
4.34
-0.66
-6.44
-12.75
-19.21
-25.51
-31.56
-37.48
-43.67
-50.66
-58.85
-68.28
-78.38
-87.94
-95.26
-98.54
-96.44
-88.48
-75.26
-58.28
-39.56
-21.10
-4.36
9.85
21.37
30.44
37.41
42.57
46.07
48.00
48.50
47.79
46.18
43.98
41.44
38.80
36.30
34.20
32.76
32.14
32.30
33.00
33.80
34.26
34.03
32.97
31.15
28.74
25.89
22.61
18.76
14.16
8.68
2.39
-4.49
-11.55
-18.44
-24.96
-31.16
-37.32
-43.88
-51.27
-59.71
-69.02
-78.36
-86.36
-91.33
-91.65
-86.34
-75.41
-59.92
-41.69
-22.77
-4.95
10.62
23.46
33.67
41.57
47.50
51.72
54.37
55.62
55.66
54.82
53.46
51.88
50.33
48.93
47.74
46.79
46.11
45.68
45.43
45.19
44.69
43.66
41.84
39.02
35.05
29.90
23.63
16.47
8.75
0.87
-6.85
-14.25
-21.32
-28.23
-35.24
-42.67
-50.81
-59.81
-69.45
-78.95
-87.00
-91.90
-92.06
-86.56
-75.55
-60.22
-42.53
-24.53
-7.83
6.69
18.82
28.76
36.69
42.67
46.58
48.34
48.05
46.11
43.12
39.73
36.45
33.60
31.33
29.63
28.47
27.79
27.54
27.65
28.00
28.37
28.48
27.96
26.48
23.80
19.91
15.02
9.56
4.00
-1.36
-6.45
-11.49
-16.89
-23.08
-30.31
-38.61
-47.59
-56.48
-64.05
-68.84
-69.49
-65.15
-55.82
-42.46
-26.76
-10.62
4.37
17.22
27.61
35.58
41.32
44.89
46.31
45.71
43.42
40.00
36.11
32.32
28.92
25.94
23.28
20.81
18.63
16.96
16.09
16.10
16.76
17.45
17.42
15.99
12.92
8.42
3.07
-2.52
-7.90
-13.04
-18.23
-23.96
-30.73
-38.86
-48.32
-58.59
-68.60
-76.80
-81.51
-81.33
-75.58
-64.62
-49.67
-32.52
-14.95
1.64
16.39
28.91
39.13
47.04
52.66
56.00
57.18
56.44
54.25
51.16
47.76
44.53
41.76
39.49
37.64
36.04
34.62
33.41
32.47
31.75
31.03
29.86
27.71
24.17
19.16
12.94
6.05
-0.96
-7.70
-14.14
-20.52
-27.26
-34.79
-43.48
-53.50
-64.71
-76.46
-87.51
-96.10
-100.36
-98.84
-91.03
-77.52
-59.88
-40.14
-20.29
-1.84
14.28
27.70
38.33
46.34
51.96
55.50
57.31
57.74
57.14
55.86
54.17
52.29
50.36
48.42
46.46
44.51
42.60
40.84
39.35
38.20
37.30
36.38
35.01
32.73
29.17
24.23
18.10
11.20
4.04
-2.97
-9.66
-16.10
-22.56
-29.39
-36.99
-45.60
-55.28
-65.63
-75.72
-84.05
-88.86
-88.58
-82.35
-70.35
-53.81
-34.65
-14.96
3.51
19.61
32.83
43.12
50.68
55.83
58.94
60.45
60.83
60.48
59.69
58.63
57.35
55.91
54.45
53.15
52.25
51.87
51.98
52.40
52.85
53.06
52.82
51.97
50.44
48.19
45.27
41.79
37.94
33.91
29.79
25.60
21.28
16.79
12.11
7.31
2.43
-2.53
-7.68
-13.13
-18.92
-24.98
-31.11
-37.09
-42.82
-48.38
-54.11
-60.51
-68.08
-77.14
-87.47
-98.13
-107.50
-113.48
-114.15
-108.38
-96.31
-79.33
-59.66
-39.66
-21.17
-5.16
8.15
19.00
27.73
34.56
39.58
42.84
44.50
44.82
44.15
42.86
41.29
39.77
38.54
37.81
37.68
38.18
39.22
40.65
42.24
43.68
44.62
44.74
43.76
41.58
38.32
34.25
29.76
25.11
20.39
15.51
10.28
4.55
-1.66
-8.16
-14.65
-20.84
-26.53
-31.71
-36.46
-41.07
-45.94
-51.56
-58.35
-66.45
-75.40
-84.09
-90.89
-94.01
-92.05
-84.45
-71.66
-55.06
-36.53
-18.04
-1.13
13.23
24.69
33.36
39.62
43.85
46.31
47.14
46.40
44.30
41.19
37.63
34.24
31.52
29.71
28.80
28.59
28.83
29.38
30.15
31.03
31.82
32.19
31.79
30.35
27.79
24.25
19.98
15.22
10.10
4.68
-0.96
-6.74
-12.48
-18.07
-23.59
-29.38
-35.94
-43.75
-52.84
-62.64
-71.84
-78.64
-81.25
-78.40
-69.79
-56.20
-39.27
-21.06
-3.53
11.93
24.63
34.48
41.78
46.86
49.95
51.15
50.54
48.31
44.83
40.66
36.37
32.47
29.32
27.07
25.70
25.09
25.05
25.29
25.54
25.45
24.76
23.26
20.89
17.65
13.61
8.89
3.57
-2.27
-8.48
-14.89
-21.37
-27.79
-34.22
-40.89
-48.22
-56.69
-66.51
-77.39
-88.27
-97.43
-102.85
-102.80
-96.46
-84.17
-67.37
-48.12
-28.46
-9.98
6.35
20.10
31.16
39.61
45.61
49.48
51.65
52.56
52.56
51.84
50.44
48.33
45.62
42.63
39.87
37.91
37.11
37.53
38.83
40.37
41.45
41.52
40.34
37.95
34.57
30.46
25.75
20.50
14.70
8.38
1.63
-5.41
-12.62
-19.86
-27.01
-34.01
-40.83
-47.60
-54.64
-62.40
-71.31
-81.46
-92.23
-102.26
-109.58
-112.18
-108.63
-98.57
-82.90
-63.47
-42.57
-22.24
-3.98
11.45
23.81
33.28
40.18
44.90
47.83
49.34
49.73
49.18
47.79
45.66
42.95
39.98
37.20
35.10
34.06
34.23
35.43
37.19
38.83
39.62
39.05
36.90
33.33
28.83
23.96
19.20
14.73
10.37
5.75
0.46
-5.69
-12.61
-19.95
-27.29
-34.32
-40.97
-47.50
-54.42
-62.26
-71.35
-81.44
-91.53
-99.94
-104.64
-103.87
-96.71
-83.46
-65.56
-45.18
-24.55
-5.40
11.22
25.00
36.03
44.62
51.07
55.64
58.56
60.02
60.22
59.37
57.72
55.57
53.25
51.09
49.40
48.40
48.22
48.89
50.24
51.94
53.48
54.31
53.91
52.01
48.68
44.28
39.34
34.35
29.63
25.22
20.89
16.29
11.08
5.04
-1.78
-9.16
-16.71
-24.07
-30.96
-37.37
-43.57
-50.10
-57.55
-66.27
-76.05
-85.91
-94.15
-98.77
-98.08
-91.21
-78.49
-61.32
-41.75
-21.90
-3.51
12.36
25.25
35.20
42.49
47.49
50.57
52.10
52.37
51.66
50.16
48.06
45.58
42.99
40.64
38.90
38.07
38.28
39.37
40.92
42.37
43.17
42.98
41.71
39.50
36.62
33.26
29.47
25.15
20.16
14.40
7.95
1.03
-6.08
-13.10
-19.85
-26.29
-32.59
-39.06
-46.12
-54.13
-63.20
-72.86
-82.04
-89.03
-92.00
-89.52
-81.08
-67.39
-50.12
-31.43
-13.27
3.02
16.80
28.00
36.73
43.13
47.26
49.22
49.29
47.92
45.62
42.93
40.26
37.87
35.95
34.59
33.82
33.60
33.77
34.13
34.46
34.58
34.34
33.61
32.23
30.00
26.70
22.20
16.56
10.01
2.95
-4.20
-11.07
-17.52
-23.58
-29.48
-35.61
-42.42
-50.36
-59.69
-70.21
-81.13
-90.97
-97.85
-99.95
-96.13
-86.22
-71.19
-52.78
-33.06
-13.89
3.39
18.03
29.83
38.89
45.56
50.20
53.21
54.92
55.60
55.38
54.35
52.62
50.37
47.93
45.71
44.11
43.33
43.27
43.58
43.77
43.44
42.40
40.66
38.31
35.44
32.03
28.00
23.35
18.12
12.45
6.43
0.16
-6.33
-13.01
-19.83
-26.77
-33.93
-41.57
-50.02
-59.53
-69.88
-80.26
-89.14
-94.67
-95.14
-89.58
-78.08
-61.91
-43.02
-23.49
-5.01
11.39
25.32
36.83
46.06
53.23
58.47
62.02
64.17
65.25
65.62
65.56
65.34
65.12
65.05
65.29
66.02
67.47
69.90
73.47
78.09
83.34
88.50
92.82
95.75
97.15
97.37
97.03
96.76
96.93
97.64
98.88
100.72
103.34
106.83
110.76
114.04
115.10
112.38
104.94
92.74
76.44
56.94
34.91
10.80
-14.87
-41.00
-65.76
-86.97
-102.80
-112.48
-116.56
-116.57
-114.30
-111.19
-107.89
-104.42
-100.49
-95.85
-90.63
-85.20
-80.04
-75.44
-71.32
-67.30
-62.85
-57.57
-51.34
-44.38
-37.10
-29.85
-22.77
-15.80
-8.75
-1.53
5.73
12.68
18.82
23.72
27.20
29.29
30.25
30.43
30.11
29.44
28.36
26.65
23.97
20.04
14.71
8.08
0.44
-7.91
-16.86
-26.55
-37.19
-48.77
-60.63
-71.39
-79.23
-82.35
-79.66
-71.20
-58.15
-42.40
-25.99
-10.51
3.20
15.06
25.53
35.26
44.83
54.56
64.32
73.44
80.77
84.76
84.00
77.79
66.64
52.39
37.70
25.22
16.67
12.41
11.56
12.67
14.34
15.66
16.14
15.49
13.38
9.46
3.60
-3.84
-12.04
-19.95
-26.77
-32.33
-37.21
-42.44
-49.01
-57.26
-66.50
-75.16
-81.12
-82.53
-78.31
-68.62
-54.73
-38.79
-23.22
-10.18
-1.13
3.40
3.79
1.11
-3.28
-8.05
-12.25
-15.40
-17.46
-18.62
-19.17
-19.34
-19.35
-19.37
-19.58
-20.11
-20.97
-22.05
-23.09
-23.86
-24.27
-24.52
-25.08
-26.51
-29.21
-33.18
-37.98
-42.90
-47.35
-51.16
-54.78
-59.08
-64.99
-72.94
-82.48
-92.26
-100.33
-104.73
-104.09
-97.97
-86.93
-72.22
-55.38
-37.87
-20.89
-5.27
8.46
19.98
29.15
35.93
40.35
42.51
42.56
40.84
37.89
34.38
31.01
28.28
26.37
25.11
24.15
23.17
22.02
20.81
19.69
18.74
17.77
16.28
13.68
9.54
3.72
-3.46
-11.41
-19.48
-27.21
-34.48
-41.46
-48.53
-56.11
-64.64
-74.36
-85.18
-96.43
-106.82
-114.47
-117.42
-114.22
-104.40
-88.71
-68.89
-47.12
-25.48
-5.52
11.86
26.30
37.78
46.58
53.09
57.77
61.01
63.09
64.12
64.07
62.96
60.94
58.33
55.64
53.38
51.93
51.46
51.84
52.70
53.51
53.73
52.92
50.86
47.58
43.35
38.52
33.37
28.02
22.38
16.24
9.41
1.88
-6.17
-14.40
-22.48
-30.26
-37.90
-45.92
-54.96
-65.53
-77.63
-90.52
-102.55
-111.51
-115.15
-111.84
-101.16
-84.07
-62.59
-39.17
-16.15
4.77
22.57
36.86
47.66
55.32
60.40
63.56
65.46
66.56
67.07
66.97
66.13
64.55
62.43
60.23
58.47
57.60
57.79
58.91
60.54
62.04
62.77
62.25
60.24
56.87
52.50
47.60
42.54
37.46
32.21
26.47
19.93
12.48
4.29
-4.27
-12.81
-21.08
-29.08
-37.05
-45.39
-54.56
-64.93
-76.61
-89.14
-101.38
-111.52
-117.40
-117.15
-109.80
-95.72
-76.53
-54.64
-32.53
-12.15
5.42
19.87
31.41
40.38
47.07
51.61
54.06
54.56
53.42
51.10
48.22
45.43
43.28
42.15
42.16
43.16
44.88
46.88
48.78
50.19
50.85
50.55
49.24
46.91
43.69
39.71
35.15
30.08
24.54
18.48
11.85
4.67
-2.94
-10.80
-18.81
-27.08
-35.94
-45.83
-56.95
-68.92
-80.55
-89.96
-95.03
-94.05
-86.32
-72.40
-53.96
-33.23
-12.41
6.82
23.46
37.10
47.69
55.29
59.99
61.94
61.43
58.97
55.30
51.15
47.15
43.64
40.66
38.11
35.88
34.03
32.75
32.28
32.64
33.54
34.37
34.35
32.80
29.34
24.02
17.34
10.02
2.74
-3.99
-10.06
-15.78
-21.74
-28.66
-37.11
-47.27
-58.76
-70.45
-80.64
-87.31
-88.64
-83.61
-72.37
-56.23
-37.32
-17.93
0.14
15.90
29.10
39.93
48.58
55.07
59.21
60.88
60.28
58.01
54.92
51.82
49.26
47.47
46.38
45.85
45.78
46.12
46.85
47.79
48.57
48.71
47.71
45.26
41.25
35.81
29.18
21.69
13.63
5.29
-3.11
-11.47
-19.85
-28.52
-37.94
-48.59
-60.71
-73.97
-87.33
-98.97
-106.74
-108.73
-103.84
-92.19
-75.06
-54.50
-32.80
-11.91
6.80
22.59
35.28
45.03
52.19
57.14
60.28
61.93
62.38
61.84
60.52
58.61
56.30
53.87
51.68
50.10
49.46
49.86
51.06
52.52
53.54
53.49
52.02
49.17
45.23
40.62
35.63
30.37
24.77
18.63
11.77
4.14
-4.13
-12.74
-21.36
-29.70
-37.67
-45.46
-53.53
-62.47
-72.73
-84.31
-96.41
-107.45
-115.27
-117.71
-113.32
-101.88
-84.53
-63.41
-41.04
-19.60
-0.47
15.76
29.15
40.03
48.74
55.52
60.49
63.71
65.31
65.50
64.63
63.12
61.45
59.99
59.04
58.74
59.08
59.96
61.20
62.60
63.87
64.75
64.96
64.25
62.48
59.61
55.67
50.79
45.17
39.03
32.63
26.17
19.85
13.74
7.82
1.94
-4.14
-10.63
-17.65
-25.09
-32.65
-39.95
-46.68
-52.75
-58.37
-64.01
-70.32
-77.97
-87.32
-98.22
-109.73
-120.11
-127.14
-128.69
-123.34
-110.90
-92.51
-70.29
-46.73
-24.11
-4.01
12.76
26.07
36.18
43.52
48.58
51.81
53.58
54.21
53.89
52.78
51.05
48.94
46.83
45.13
44.16
44.07
44.76
45.96
47.37
48.76
49.90
50.56
50.43
49.18
46.54
42.53
37.47
31.88
26.35
21.22
16.54
12.04
7.33
2.04
-3.97
-10.58
-17.46
-24.23
-30.62
-36.56
-42.28
-48.20
-54.82
-62.56
-71.60
-81.70
-92.06
-101.37
-107.88
-109.84
-105.95
-95.83
-80.21
-60.82
-39.92
-19.68
-1.75
13.09
24.71
33.48
39.88
44.28
46.92
47.98
47.70
46.41
44.51
42.38
40.31
38.48
37.05
36.20
36.16
37.09
38.97
41.46
44.01
45.98
46.83
46.31
44.48
41.58
37.98
33.96
29.70
25.25
20.52
15.38
9.70
3.46
-3.21
-10.07
-16.86
-23.39
-29.73
-36.16
-43.10
-50.83
-59.25
-67.62
-74.52
-78.20
-76.94
-69.64
-56.23
-37.76
-16.15
6.29
27.47
45.97
61.21
73.28
82.68
89.94
95.40
99.19
101.31
101.87
101.20
99.93
98.88
98.99
101.07
105.69
112.79
121.58
130.37
136.93
138.98
134.85
123.91
106.66
84.51
59.19
32.32
5.15
-21.45
-46.94
-70.84
-92.74
-112.25
-129.12
-143.36
-155.27
-165.53
-174.97
-184.27
-193.53
-201.96
-208.05
-209.91
-206.01
-195.69
-179.41
-158.53
-134.85
-110.06
-85.51
-62.15
-40.67
-21.69
-5.77
6.69
15.61
21.28
24.35
25.61
25.81
25.56
25.25
25.06
25.03
25.09
25.16
25.15
25.05
24.87
24.63
24.26
23.66
22.63
20.87
18.11
14.08
8.69
2.06
-5.45
-13.35
-21.17
-28.62
-35.77
-43.04
-51.05
-60.39
-71.31
-83.49
-95.88
-106.78
-114.12
-115.96
-111.01
-99.05
-81.14
-59.30
-36.04
-13.70
6.06
22.42
35.35
45.33
53.01
58.96
63.60
67.11
69.59
71.16
72.04
72.62
73.34
74.66
76.87
80.02
83.95
88.39
93.04
97.64
101.94
105.68
108.54
110.26
110.69
109.86
107.94
105.21
101.98
98.56
95.22
92.24
89.74
87.61
85.38
82.21
77.03
68.78
56.80
41.06
22.35
2.22
-17.25
-33.94
-46.28
-53.67
-56.68
-56.79
-55.88
-55.55
-56.67
-59.32
-62.93
-66.73
-70.02
-72.35
-73.48
-73.38
-72.10
-69.85
-67.00
-63.92
-60.96
-58.21
-55.55
-52.61
-49.04
-44.61
-39.29
-33.39
-27.33
-21.63
-16.75
-13.04
-10.62
-9.46
-9.36
-10.03
-11.25
-12.87
-14.97
-17.70
-21.24
-25.65
-30.81
-36.44
-42.17
-47.76
-53.13
-58.54
-64.47
-71.50
-80.07
-90.12
-100.91
-110.98
-118.36
-121.06
-117.65
-107.66
-91.79
-71.71
-49.63
-27.67
-7.46
10.06
24.63
36.39
45.61
52.50
57.18
59.74
60.31
59.23
56.98
54.11
51.12
48.42
46.29
44.92
44.44
44.93
46.37
48.56
51.07
53.31
54.66
54.69
53.24
50.50
46.87
42.77
38.47
33.97
29.09
23.53
17.08
9.71
1.55
-7.03
-15.63
-23.88
-31.62
-39.00
-46.50
-54.79
-64.40
-75.41
-87.17
-98.24
-106.72
-110.65
-108.54
-99.89
-85.22
-65.96
-44.15
-21.88
-0.92
17.53
32.88
44.99
53.96
59.98
63.22
63.96
62.65
59.93
56.52
53.06
49.96
47.37
45.21
43.37
41.81
40.61
39.89
39.71
39.94
40.22
40.04
38.88
36.32
32.22
26.75
20.32
13.47
6.65
0.11
-6.23
-12.65
-19.63
-27.61
-36.89
-47.50
-59.08
-70.84
-81.50
-89.47
-93.09
-91.06
-82.80
-68.74
-50.24
-29.29
-8.00
11.85
29.06
43.03
53.52
60.48
63.94
64.11
61.48
56.88
51.36
45.89
41.13
37.23
34.00
31.17
28.62
26.53
25.18
24.80
25.27
26.10
26.56
25.92
23.67
19.67
14.15
7.62
0.74
-5.92
-12.01
-17.60
-23.22
-29.72
-37.94
-48.26
-60.21
-72.32
-82.34
-87.80
-86.71
-78.19
-62.68
-41.79
-17.73
7.27
31.53
54.05
74.42
92.61
108.64
122.40
133.50
141.34
145.27
144.85
140.13
131.80
121.05
109.24
97.41
85.92
74.34
61.79
47.38
30.72
12.15
-7.41
-26.89
-45.39
-62.49
-78.04
-92.01
-104.20
-114.20
-121.57
-126.19
-128.48
-129.44
-130.42
-132.74
-137.35
-144.48
-153.56
-163.23
-171.53
-176.30
-175.60
-168.22
-153.90
-133.48
-108.54
-81.14
-53.33
-26.87
-3.02
17.46
34.28
47.48
57.36
64.31
68.81
71.28
72.15
71.79
70.55
68.76
66.77
64.89
63.45
62.66
62.58
63.03
63.62
63.82
63.17
61.39
58.50
54.68
50.16
45.05
39.25
32.55
24.71
15.74
5.91
-4.24
-14.17
-23.52
-32.34
-41.12
-50.68
-61.82
-74.88
-89.47
-104.21
-116.89
-125.01
-126.30
-119.54
-104.87
-83.83
-58.91
-32.91
-8.18
13.70
32.06
46.83
58.27
66.68
72.35
75.54
76.64
76.11
74.48
72.23
69.75
67.33
65.12
63.24
61.75
60.72
60.16
60.02
60.02
59.75
58.67
56.37
52.68
47.79
42.20
36.54
31.33
26.89
23.17
19.85
16.35
12.04
6.42
-0.72
-9.13
-18.14
-26.86
-34.57
-40.97
-46.43
-51.84
-58.33
-66.85
-77.80
-90.76
-104.35
-116.48
-124.63
-126.51
-120.60
-106.74
-86.19
-61.39
-35.26
-10.42
11.34
29.27
43.45
54.32
62.35
67.78
70.70
71.25
69.75
66.76
63.04
59.35
56.34
54.44
53.81
54.38
55.92
58.09
60.43
62.52
63.89
64.11
62.92
60.29
56.41
51.61
46.28
40.60
34.53
27.86
20.32
11.86
2.69
-6.71
-15.80
-24.24
-32.05
-39.70
-47.90
-57.35
-68.39
-80.71
-93.23
-104.14
-111.25
-112.49
-106.56
-93.32
-73.92
-50.61
-26.08
-2.81
17.45
33.86
46.39
55.47
61.60
65.24
66.69
66.26
64.33
61.39
58.00
54.69
51.85
49.74
48.49
48.16
48.72
49.99
51.62
53.09
53.85
53.45
51.66
48.58
44.45
39.61
34.25
28.37
21.83
14.45
6.15
-2.95
-12.55
-22.25
-31.74
-40.88
-49.84
-59.10
-69.37
-81.22
-94.80
-109.39
-123.29
-133.99
-138.85
-135.87
-124.45
-105.60
-81.74
-55.83
-30.61
-7.94
11.30
27.02
39.53
49.22
56.41
61.45
64.65
66.38
67.01
66.84
66.08
64.93
63.55
62.20
61.20
60.86
61.37
62.70
64.53
66.27
67.24
66.80
64.63
60.81
55.69
49.84
43.69
37.41
30.84
23.70
15.72
6.87
-2.59
-12.22
-21.64
-30.65
-39.32
-48.02
-57.27
-67.64
-79.51
-92.74
-106.47
-118.95
-127.84
-130.78
-126.13
-113.61
-94.43
-70.93
-45.91
-21.81
-0.25
18.01
32.97
44.90
54.16
61.03
65.73
68.50
69.63
69.49
68.49
66.96
65.18
63.32
61.51
59.85
58.53
57.84
57.92
58.76
59.95
60.79
60.50
58.50
54.67
49.36
43.27
37.12
31.39
26.16
21.14
15.82
9.69
2.45
-5.93
-15.17
-24.77
-34.13
-42.80
-50.63
-57.89
-65.28
-73.67
-83.79
-95.77
-108.83
-121.19
-130.43
-134.07
-130.35
-118.83
-100.52
-77.63
-52.85
-28.67
-6.85
11.76
27.02
39.20
48.63
55.59
60.26
62.82
63.50
62.64
60.69
58.13
55.40
52.85
50.70
49.12
48.26
48.29
49.30
51.22
53.69
55.97
57.22
56.65
53.90
49.18
43.17
36.78
30.76
25.38
20.38
15.13
9.00
1.66
-6.72
-15.62
-24.43
-32.69
-40.35
-47.72
-55.37
-63.93
-73.86
-85.25
-97.62
-109.81
-119.99
-126.01
-125.89
-118.43
-103.65
-82.95
-58.73
-33.76
-10.49
9.51
25.59
37.91
46.97
53.23
56.98
58.33
57.46
54.76
50.86
46.49
42.31
38.73
35.92
33.92
32.68
32.21
32.48
33.37
34.62
35.81
36.42
35.97
34.08
30.57
25.53
19.26
12.23
4.95
-2.24
-9.19
-16.08
-23.29
-31.36
-40.77
-51.68
-63.78
-76.06
-86.85
-94.15
-96.04
-91.31
-79.84
-62.71
-41.89
-19.72
1.67
20.73
36.58
48.91
57.71
63.14
65.41
64.84
61.88
57.17
51.45
45.51
39.98
35.26
31.46
28.47
26.09
24.21
22.85
22.10
21.88
21.84
21.39
19.78
16.46
11.24
4.35
-3.69
-12.22
-20.72
-28.90
-36.80
-44.68
-53.06
-62.55
-73.68
-86.53
-100.52
-114.19
-125.38
-131.68
-131.09
-122.68
-106.87
-85.39
-60.80
-35.79
-12.56
7.48
23.83
36.57
46.13
52.98
57.58
60.31
61.53
61.54
60.62
58.94
56.67
53.98
51.14
48.41
46.02
44.06
42.47
41.07
39.69
38.17
36.36
34.11
31.16
27.24
22.10
15.68
8.12
-0.21
-8.89
-17.57
-26.09
-34.52
-43.13
-52.34
-62.63
-74.37
-87.62
-101.84
-115.74
-127.30
-134.15
-134.18
-126.26
-110.65
-89.01
-63.95
-38.28
-14.31
6.58
23.87
37.74
48.58
56.77
62.62
66.34
68.15
68.34
67.30
65.42
63.16
60.91
59.00
57.62
56.82
56.47
56.34
56.15
55.67
54.70
53.11
50.80
47.68
43.66
38.67
32.65
25.62
17.67
9.00
-0.10
-9.33
-18.42
-27.34
-36.33
-45.89
-56.70
-69.25
-83.54
-98.76
-113.22
-124.52
-130.21
-128.40
-118.45
-101.15
-78.52
-53.23
-27.90
-4.48
15.87
32.71
46.04
56.06
63.09
67.57
70.05
71.08
71.14
70.48
69.15
67.17
64.61
61.79
59.18
57.30
56.49
56.75
57.68
58.62
58.87
57.87
55.43
51.71
47.11
42.05
36.79
31.28
25.25
18.39
10.54
1.87
-7.19
-16.07
-24.24
-31.45
-37.90
-44.17
-51.17
-59.83
-70.66
-83.40
-96.69
-108.23
-115.19
-115.05
-106.42
-89.52
-66.16
-39.16
-11.53
14.36
37.07
56.14
71.71
84.11
93.68
100.60
105.01
107.15
107.38
106.18
104.16
101.92
100.04
99.03
99.29
101.00
104.05
108.02
112.17
115.62
117.53
117.34
114.85
110.15
103.50
95.14
85.19
73.55
59.92
43.83
24.83
2.62
-22.67
-50.36
-79.20
-107.72
-134.59
-159.00
-180.63
-199.33
-214.63
-225.47
-230.26
-227.51
-216.41
-197.37
-171.95
-142.48
-111.46
-81.03
-52.77
-27.70
-6.48
10.57
23.41
32.33
37.91
40.93
42.21
42.51
42.44
42.45
42.85
43.85
45.55
47.92
50.82
53.97
57.01
59.51
61.07
61.39
60.41
58.20
54.99
51.04
46.55
41.60
36.24
