1706691082.00
64.000000
-0.00
-0.00
-0.00
-0.00
-0.00
-0.00
-0.00
-0.00
-0.00
-0.00
0.00
0.01
0.01
-0.00
-0.03
-0.05
-0.05
0.00
0.13
0.36
0.66
1.01
1.37
1.72
2.06
2.40
2.79
3.24
3.80
4.42
5.06
5.66
6.20
6.68
7.15
7.68
8.31
9.14
10.09
11.04
11.88
12.56
13.14
13.76
14.65
15.96
17.91
20.32
22.90
25.38
27.58
29.57
31.68
34.32
37.81
42.54
48.15
54.10
59.83
64.97
69.58
74.14
79.34
85.71
93.76
103.00
112.62
121.73
129.77
136.75
143.30
150.75
157.77
166.64
177.95
191.79
206.97
220.57
228.25
225.36
208.53
176.87
132.76
80.05
23.07
-34.94
-92.44
-149.16
-205.23
-260.37
-313.74
-363.87
-409.83
-450.91
-486.50
-515.74
-537.23
-549.22
-549.96
-538.37
-514.21
-478.67
-433.88
-382.45
-327.02
-269.84
-212.63
-156.66
-102.95
-52.37
-5.90
35.58
71.43
101.35
125.50
144.38
158.69
169.15
176.37
180.75
182.57
182.07
179.51
175.23
169.65
163.18
156.15
148.81
141.30
133.69
126.02
118.33
110.69
103.16
95.80
88.68
81.83
75.25
68.95
62.95
57.25
51.86
46.78
42.03
37.59
33.45
29.61
26.07
22.81
19.83
17.11
14.67
12.48
10.54
8.83
7.35
6.07
4.97
4.05
3.27
2.62
2.09
1.66
1.32
1.05
0.84
0.69
0.58
0.50
0.45
0.43
0.43
0.44
0.46
0.49
0.53
0.57
0.62
0.67
0.73
0.79
0.86
0.93
1.01
1.09
1.18
1.28
1.39
1.52
1.66
1.81
1.98
2.18
2.39
2.63
2.90
3.20
3.52
3.89
4.28
4.72
5.20
5.71
6.27
6.87
7.51
8.21
8.95
9.73
10.56
11.44
12.37
13.34
14.36
15.44
16.58
17.79
19.06
20.38
21.73
23.06
24.30
25.36
26.12
26.45
26.22
25.33
23.68
21.27
18.10
14.23
9.81
5.00
0.02
-4.94
-9.64
-13.93
-17.64
-20.68
-23.02
-24.61
-25.52
-25.81
-25.51
-24.69
-23.41
-21.69
-19.57
-17.08
-14.24
-11.10
-7.73
-4.18
-0.45
3.39
7.30
11.20
15.00
18.68
22.09
25.14
27.87
30.34
32.64
34.85
37.04
39.29
41.70
44.12
46.55
49.08
51.89
55.13
58.87
63.13
67.81
72.91
77.98
82.88
87.71
92.72
98.12
103.97
110.12
116.27
122.12
126.88
130.26
132.31
133.29
133.25
131.76
127.58
118.48
106.19
90.79
72.62
52.49
31.49
10.61
-9.54
-28.98
-48.13
-67.59
-88.55
-111.74
-137.32
-164.56
-191.67
-215.78
-233.63
-242.51
-241.36
-231.86
-217.42
-202.12
-189.19
-180.10
-174.40
-170.58
-167.15
-163.34
-159.55
-156.49
-154.48
-153.03
-150.86
-146.26
-137.67
-124.15
-105.71
-83.43
-58.93
-33.99
-10.13
11.60
30.62
46.58
59.20
68.20
73.43
75.12
74.00
71.32
68.41
66.39
65.74
66.28
67.34
68.12
68.04
66.94
64.98
62.42
59.45
55.95
51.67
46.42
40.29
33.71
27.35
21.72
17.03
13.05
9.28
5.26
0.77
-4.08
-9.01
-13.77
-18.35
-23.00
-28.09
-34.07
-41.25
-49.80
-59.60
-70.13
-80.41
-89.02
-94.38
-95.21
-90.96
-81.98
-69.49
-55.17
-40.78
-27.81
-17.33
-10.10
-6.53
-6.77
-10.47
-16.61
-23.57
-29.26
-31.65
-29.35
-21.96
-10.12
4.73
20.90
36.91
51.66
64.61
75.49
84.29
91.08
96.04
99.39
101.35
102.18
102.17
101.63
100.80
99.64
97.76
94.36
88.59
79.84
68.11
53.98
38.37
22.21
6.18
-9.33
-24.12
-38.00
-50.68
-61.72
-70.56
-76.47
-78.67
-76.51
-69.77
-58.79
-44.60
-28.62
-12.40
2.73
15.85
26.44
34.27
39.25
41.49
41.21
38.87
35.17
31.00
27.33
25.00
24.51
25.79
28.30
31.13
33.41
34.59
34.55
33.55
32.01
30.26
28.34
26.12
23.29
19.65
15.21
10.18
4.95
-0.13
-4.79
-8.97
-12.68
-15.98
-18.91
-21.51
-23.93
-26.46
-29.56
-33.75
-39.35
-46.23
-53.63
-60.18
-64.17
-64.05
-59.03
-49.40
-36.53
-22.39
-8.92
2.54
11.48
18.00
22.41
24.96
25.74
24.92
22.99
20.77
19.16
18.75
19.62
21.28
22.99
24.11
24.42
24.12
23.60
23.30
23.34
23.61
23.71
23.22
21.81
19.35
15.92
11.68
6.79
1.41
-4.28
-10.07
-15.60
-20.56
-24.77
-28.39
-31.90
-36.03
-41.49
-48.72
-57.68
-67.75
-77.75
-86.06
-90.98
-91.13
-85.88
-75.67
-61.90
-46.59
-31.76
-18.89
-8.72
-1.29
3.69
6.52
7.39
6.48
4.08
0.77
-2.72
-5.69
-7.69
-8.71
-9.13
-9.65
-11.01
-13.82
-18.29
-24.13
-30.53
-36.46
-41.02
-43.77
-44.90
-45.03
-44.82
-44.44
-43.49
-41.07
-36.33
-29.06
-20.00
-10.82
-3.73
-0.82
-3.51
-12.27
-26.58
-45.09
-65.91
-86.77
-105.39
-119.76
-128.56
-131.32
-128.35
-120.19
-107.05
-88.34
-62.94
-30.01
9.94
54.38
98.99
138.86
170.19
191.73
205.29
214.99
225.65
240.80
261.21
284.45
305.58
318.85
319.63
305.81
278.42
240.98
198.33
155.29
115.79
82.60
57.65
42.38
37.66
43.47
58.16
78.12
97.96
111.59
113.85
102.02
76.69
41.34
1.05
-39.30
-76.35
-108.68
-136.21
-159.13
-176.98
-188.51
-192.26
-187.54
-175.13
-157.24
-136.93
-117.04
-99.46
-84.83
-72.82
-62.81
-54.45
-47.95
-43.90
-42.78
-44.50
-48.24
-52.62
-56.22
-58.12
-58.23
-57.22
-56.17
-56.11
-57.60
-60.70
-65.14
-70.49
-76.46
-82.81
-89.30
-95.49
-100.85
-104.89
-107.36
-108.40
-108.40
-107.73
-106.36
-103.74
-98.82
-90.52
-78.15
-61.77
-42.36
-21.62
-1.58
15.91
29.68
39.68
47.02
53.79
62.37
74.58
90.90
110.04
129.15
144.73
153.71
154.43
147.01
133.16
115.42
96.35
77.96
61.48
47.46
36.14
27.56
21.70
18.36
17.04
17.00
17.34
17.35
16.69
15.41
13.79
12.06
10.29
8.29
5.85
2.86
-0.56
-4.17
-7.75
-11.28
-14.90
-18.86
-23.32
-28.27
-33.54
-38.93
-44.27
-49.54
-54.87
-60.52
-66.84
-74.11
-82.31
-90.83
-98.37
-103.03
-102.78
-96.22
-83.09
-64.50
-42.65
-20.17
0.67
18.31
32.14
42.15
48.59
51.84
52.22
50.21
46.54
42.14
38.07
35.26
34.30
35.26
37.82
41.33
45.04
48.29
50.58
51.72
51.66
50.63
49.01
47.24
45.72
44.56
43.55
42.21
40.07
36.91
32.95
28.77
25.10
22.38
20.63
19.35
17.68
14.60
9.18
0.84
-10.37
-23.56
-36.99
-48.56
-56.36
-59.43
-58.07
-53.57
-47.59
-41.36
-35.36
-29.37
-23.00
-16.05
-8.63
-0.79
7.77
17.78
30.05
45.03
62.47
81.46
100.76
119.05
134.97
147.05
153.63
153.15
144.64
128.27
105.64
79.51
53.19
29.72
11.31
-1.03
-7.48
-9.26
-8.21
-6.28
-5.04
-5.25
-6.73
-8.67
-10.05
-10.19
-9.13
-7.66
-7.06
-8.76
-13.86
-22.76
-35.09
-49.80
-65.52
-81.09
-95.87
-109.80
-123.14
-136.05
-148.27
-158.97
-166.96
-171.03
-170.38
-164.95
-155.59
-143.86
-131.52
-119.63
-107.71
-93.55
-73.88
-45.97
-9.22
33.85
77.92
116.38
143.24
154.51
148.71
126.43
89.46
40.26
-18.09
-81.50
-144.63
-201.13
-244.49
-269.27
-272.42
-254.24
-218.45
-171.47
-120.83
-73.12
-32.33
0.97
28.91
54.79
81.06
108.20
134.64
157.89
175.85
187.76
193.99
195.15
191.10
180.67
162.34
135.36
100.80
61.57
21.55
-15.75
-48.40
-76.38
-101.19
-124.77
-148.58
-172.99
-197.08
-219.08
-236.81
-248.12
-251.23
-245.00
-229.06
-204.01
-171.41
-133.60
-93.29
-53.05
-14.93
19.72
50.07
75.62
95.94
110.61
119.37
122.32
120.17
114.11
105.52
95.55
84.81
73.40
61.28
48.77
36.83
27.00
20.86
19.34
22.29
28.50
36.16
43.63
49.93
54.85
58.67
61.71
63.94
65.05
64.65
62.62
59.31
55.49
52.06
49.69
48.59
48.45
48.58
48.30
47.08
44.72
41.31
37.08
32.23
26.96
21.36
15.47
9.33
2.97
-3.58
-10.27
-17.03
-23.76
-30.32
-36.57
-42.40
-47.74
-52.68
-57.43
-62.30
-67.75
-74.08
-81.37
-89.24
-96.75
-102.52
-104.99
-102.84
-95.37
-82.64
-65.41
-44.80
-21.91
2.28
26.91
51.01
73.32
92.45
107.22
117.11
122.51
124.68
125.26
125.70
126.85
128.75
130.84
132.25
132.12
129.86
125.30
118.76
110.98
103.02
95.93
90.44
86.77
84.63
83.28
81.91
79.76
76.24
70.92
63.43
53.61
41.55
27.79
13.24
-1.05
-14.30
-26.39
-37.84
-49.62
-62.44
-76.26
-89.88
-101.24
-108.07
-108.77
-103.08
-92.14
-78.05
-63.03
-48.77
-36.01
-24.80
-14.85
-6.06
1.38
7.09
10.92
13.13
14.40
15.59
17.40
20.03
23.27
26.58
29.49
31.68
33.15
34.07
34.58
34.70
34.23
32.96
30.79
27.88
24.58
21.33
18.36
15.66
12.95
9.91
6.38
2.46
-1.56
-5.37
-8.83
-12.03
-15.22
-18.69
-22.81
-27.84
-33.98
-41.15
-48.80
-55.85
-60.78
-62.04
-58.66
-50.58
-38.78
-24.95
-10.92
1.87
12.65
21.23
27.74
32.32
35.03
35.93
35.26
33.57
31.64
30.24
29.88
30.61
32.12
33.89
35.46
36.55
37.15
37.26
36.86
35.84
34.07
31.49
28.20
24.47
20.60
16.85
13.33
10.03
6.80
3.52
0.10
-3.46
-7.07
-10.53
-13.66
-16.34
-18.60
-20.69
-23.03
-26.10
-30.28
-35.69
-42.00
-48.46
-53.92
-57.06
-56.77
-52.46
-44.30
-33.25
-20.71
-8.16
3.16
12.54
19.67
24.57
27.35
28.25
27.58
25.83
23.58
21.49
20.05
19.53
19.91
20.97
22.34
23.71
24.79
25.44
25.58
25.15
24.11
22.45
20.20
17.45
14.35
11.03
7.64
4.23
0.79
-2.71
-6.23
-9.69
-12.91
-15.73
-18.08
-20.06
-22.01
-24.38
-27.64
-32.02
-37.39
-43.18
-48.38
-51.83
-52.46
-49.63
-43.33
-34.11
-23.03
-11.29
-0.03
9.87
17.82
23.50
26.87
28.14
27.77
26.40
24.68
23.16
22.10
21.52
21.29
21.28
21.41
21.68
22.04
22.35
22.40
21.96
20.82
18.91
16.29
13.10
9.66
6.28
3.26
0.71
-1.51
-3.67
-6.10
-8.91
-11.97
-14.92
-17.40
-19.23
-20.59
-21.95
-23.90
-26.94
-31.23
-36.46
-41.81
-46.11
-48.11
-46.85
-42.00
-33.93
-23.61
-12.29
-1.12
9.04
17.68
24.50
29.26
31.80
32.11
30.50
27.66
24.46
21.73
20.00
19.36
19.54
20.05
20.50
20.65
20.50
20.09
19.45
18.54
17.19
15.32
12.94
10.22
7.41
4.70
2.17
-0.29
-2.86
-5.73
-8.95
-12.40
-15.84
-18.99
-21.67
-23.84
-25.71
-27.63
-30.04
-33.35
-37.65
-42.62
-47.48
-51.06
-52.13
-49.76
-43.65
-34.20
-22.49
-9.90
2.17
12.59
20.70
26.32
29.62
31.02
31.02
30.10
28.67
27.04
25.50
24.21
23.25
22.54
21.86
20.94
19.53
17.57
15.19
12.64
10.14
7.77
5.45
3.05
0.51
-2.08
-4.47
-6.35
-7.36
-7.29
-6.07
-3.79
-0.77
2.50
5.41
7.39
7.92
6.76
3.84
-0.69
-6.53
-13.19
-19.94
-25.88
-30.00
-31.56
-30.24
-26.35
-20.73
-14.53
-8.80
-4.27
-1.21
0.41
0.78
0.08
-1.53
-3.81
-6.40
-8.81
-10.55
-11.26
-10.85
-9.52
-7.59
-5.49
-3.51
-1.82
-0.49
0.46
1.02
1.19
0.92
0.24
-0.82
-2.15
-3.62
-5.13
-6.64
-8.19
-9.81
-11.51
-13.24
-14.96
-16.71
-18.69
-21.23
-24.64
-29.03
-34.09
-39.06
-42.83
-44.26
-42.51
-37.33
-29.19
-19.09
-8.29
2.01
10.92
17.91
22.72
25.32
25.76
24.34
21.55
18.10
14.72
11.97
10.10
9.07
8.64
8.61
8.95
9.76
11.18
13.25
15.81
18.63
21.49
24.29
27.04
29.84
32.74
35.76
38.96
42.41
46.18
50.27
54.46
58.44
61.92
64.82
67.32
69.71
72.13
74.43
76.36
77.98
80.06
84.23
92.39
106.00
125.22
148.62
173.55
196.86
215.73
228.11
232.99
230.39
221.25
207.15
189.91
171.03
151.25
130.50
108.33
84.49
59.37
34.00
9.57
-13.11
-33.91
-53.26
-71.80
-90.01
-108.30
-126.96
-146.13
-165.55
-184.26
-200.50
-212.18
-217.47
-215.45
-206.40
-191.58
-172.80
-152.02
-131.20
-112.21
-96.70
-85.77
-79.60
-77.29
-77.11
-77.10
-75.76
-72.38
-66.87
-59.36
-49.77
-37.83
-23.41
-6.88
10.75
28.33
45.18
61.60
78.68
97.54
118.56
140.74
161.96
179.55
191.12
195.03
190.53
177.75
157.67
132.32
104.55
77.61
54.14
35.39
20.92
9.09
-1.97
-13.33
-24.94
-36.02
-45.77
-54.00
-61.11
-67.72
-74.10
-79.92
-84.42
-86.94
-87.32
-86.06
-84.01
-82.11
-81.05
-81.24
-82.91
-86.32
-91.67
-98.92
-107.51
-116.35
-123.97
-129.02
-130.65
-128.81
-124.17
-117.80
-110.73
-103.73
-97.14
-91.01
-85.25
-79.67
-74.09
-68.32
-62.15
-55.52
-48.56
-41.62
-35.25
-30.05
-26.39
-24.31
-23.45
-23.19
-22.92
-22.34
-21.51
-20.87
-20.99
-22.23
-24.64
-27.88
-31.41
-34.74
-37.65
-40.24
-42.77
-45.55
-48.69
-52.08
-55.35
-57.98
-59.39
-58.98
-56.27
-51.02
-43.34
-33.80
-23.25
-12.67
-2.93
5.39
11.99
16.81
19.97
21.71
22.40
22.53
22.63
23.14
24.18
25.59
26.86
27.38
26.66
24.54
21.13
16.77
11.77
6.26
0.16
-6.64
-13.98
-21.30
-27.61
-31.76
-32.80
-30.27
-24.42
-16.13
-6.88
1.61
7.62
9.84
7.70
1.61
-7.17
-16.76
-25.19
-30.80
-32.51
-29.93
-23.29
-13.34
-1.23
11.74
24.25
35.31
44.32
51.05
55.56
58.04
58.74
57.97
56.11
53.53
50.58
47.47
44.29
41.08
37.87
34.68
31.52
28.37
25.15
21.80
18.17
14.11
9.35
3.65
-3.09
-10.73
-18.80
-26.63
-33.55
-39.11
-43.19
-45.90
-47.57
-48.58
-49.32
-50.13
-51.19
-52.30
-52.86
-51.99
-48.82
-42.88
-34.35
-23.99
-12.89
-2.01
8.01
17.00
25.01
32.09
38.17
43.06
46.65
48.97
50.29
51.01
51.57
52.30
53.34
54.65
56.07
57.33
58.08
58.01
56.89
54.72
51.72
48.22
44.61
41.09
37.70
34.42
31.31
28.62
26.75
26.08
26.79
28.76
31.66
35.07
38.61
41.94
44.76
46.81
47.96
48.30
48.24
48.36
49.15
50.73
52.74
54.48
55.26
54.73
53.06
50.71
48.15
45.58
42.81
39.49
35.38
30.55
25.37
20.35
15.82
11.81
8.03
4.08
-0.34
-5.23
-10.26
-14.94
-18.76
-21.42
-22.92
-23.61
-24.03
-24.77
-26.23
-28.51
-31.33
-34.22
-36.77
-38.83
-40.63
-42.67
-45.49
-49.34
-54.14
-59.57
-65.15
-70.48
-75.07
-78.32
-79.43
-77.64
-72.45
-64.07
-53.39
-41.72
-30.38
-20.27
-11.73
-4.72
0.85
5.02
7.75
9.18
9.74
10.10
10.93
12.61
15.17
18.26
21.38
24.06
26.00
27.12
27.47
27.24
26.66
25.92
25.08
24.07
22.70
20.74
18.06
14.68
10.76
6.53
2.24
-1.95
-5.88
-9.57
-13.15
-16.91
-21.18
-26.11
-31.54
-36.87
-41.23
-43.68
-43.58
-40.80
-35.68
-28.90
-21.29
-13.61
-6.42
-0.17
4.80
8.24
10.04
10.26
9.20
7.38
5.40
3.79
2.95
2.99
3.78
4.98
6.18
7.01
7.27
6.96
6.26
5.37
4.47
3.61
2.72
1.71
0.48
-0.94
-2.50
-4.12
-5.77
-7.45
-9.22
-11.12
-13.15
-15.31
-17.62
-20.12
-22.88
-25.90
-29.05
-31.88
-33.79
-34.06
-32.17
-27.95
-21.64
-13.89
-5.42
2.99
10.78
17.52
22.97
26.95
29.42
30.48
30.40
29.65
28.78
28.38
28.81
30.08
31.83
33.47
34.44
34.44
33.52
31.97
30.04
27.85
25.33
22.33
18.85
15.02
11.05
7.09
3.17
-0.72
-4.59
-8.32
-11.74
-14.72
-17.34
-19.83
-22.50
-25.63
-29.31
-33.46
-37.76
-41.69
-44.62
-45.82
-44.70
-40.99
-34.85
-26.97
-18.33
-9.93
-2.57
3.36
7.82
10.97
13.05
14.19
14.46
13.98
12.97
11.77
10.78
10.34
10.56
11.31
12.13
12.59
12.43
11.65
10.49
9.23
8.11
7.12
5.99
4.23
1.42
-2.57
-7.58
-13.23
-19.01
-24.50
-29.52
-34.16
-38.92
-44.07
-49.66
-55.58
-61.68
-67.81
-73.72
-79.03
-83.27
-86.23
-87.39
-86.23
-82.83
-78.12
-73.58
-70.71
-70.43
-72.96
-78.28
-85.11
-91.66
-96.66
-99.93
-102.27
-104.85
-108.25
-112.14
-115.67
-116.01
-109.37
-92.18
-62.02
-18.13
38.27
104.52
180.21
255.57
315.93
349.06
352.66
333.88
304.01
272.95
246.89
227.38
211.84
196.98
180.13
159.91
137.82
116.97
99.31
84.92
71.81
56.74
36.84
8.11
-32.20
-85.19
-145.75
-208.30
-266.22
-312.88
-342.87
-339.19
-296.84
-226.07
-146.83
-76.08
-20.78
21.54
54.50
84.10
111.58
132.74
143.40
142.51
132.80
117.51
100.27
84.00
70.63
60.29
50.68
40.13
28.87
18.88
11.88
8.45
7.60
7.69
6.76
2.74
-4.81
-14.52
-23.93
-31.14
-35.40
-37.30
-37.98
-38.76
-40.83
-44.24
-47.78
-49.61
-48.23
-43.10
-34.77
-24.55
-14.06
-4.76
2.58
7.95
11.85
14.80
17.14
18.86
19.85
19.92
19.07
17.52
15.71
14.09
13.09
12.87
13.37
14.31
15.29
15.98
16.25
16.15
15.80
15.37
14.85
14.14
13.10
11.71
10.07
8.35
6.68
5.01
3.12
0.75
-2.28
-5.94
-10.04
-14.34
-18.74
-23.26
-27.94
-32.67
-37.04
-40.29
-41.66
-40.58
-36.87
-30.92
-23.40
-15.12
-6.82
0.96
7.82
13.49
17.74
20.43
21.61
21.55
20.68
19.57
18.69
18.36
18.60
19.28
20.09
20.73
20.98
20.72
19.93
18.63
16.89
14.77
12.41
9.92
7.42
4.94
2.45
-0.16
-3.00
-6.15
-9.59
-13.19
-16.74
-20.02
-22.82
-25.05
-26.83
-28.44
-30.26
-32.48
-35.03
-37.35
-38.57
-37.81
-34.51
-28.70
-21.03
-12.54
-4.24
3.14
9.26
14.09
17.69
20.09
21.30
21.40
20.73
19.86
19.38
19.74
20.93
22.57
24.01
24.69
24.37
23.17
21.49
19.73
18.16
16.74
15.25
13.41
11.08
8.25
5.09
1.82
-1.36
-4.35
-7.11
-9.63
-12.00
-14.31
-16.73
-19.40
-22.45
-25.79
-29.10
-31.81
-33.23
-32.76
-30.01
-25.05
-18.35
-10.72
-3.01
4.02
9.93
14.59
18.03
20.37
21.64
21.89
21.30
20.18
19.03
18.32
18.29
18.84
19.61
20.07
19.81
18.75
17.05
15.09
13.22
11.60
10.14
8.61
6.67
4.13
0.95
-2.74
-6.69
-10.66
-14.43
-17.87
-20.89
-23.51
-25.83
-28.09
-30.61
-33.64
-37.26
-41.16
-44.60
-46.52
-45.99
-42.45
-35.96
-27.25
-17.32
-7.25
2.06
10.09
16.62
21.57
24.89
26.57
26.59
25.18
22.64
19.28
15.69
12.48
10.04
8.43
7.39
6.38
5.16
3.54
1.28
-1.26
-3.52
-5.16
-6.22
-7.05
-8.44
-10.41
-12.88
-15.82
-18.22
-18.64
-16.01
-10.00
-1.01
9.62
21.80
35.66
51.20
69.33
90.88
115.45
141.41
166.82
189.92
211.86
234.63
251.70
256.47
245.96
223.67
197.69
181.42
175.33
176.58
180.78
183.46
180.00
169.72
154.19
135.68
115.65
93.25
67.89
38.53
4.48
-33.42
-73.19
-112.69
-149.99
-182.94
-209.77
-227.87
-235.88
-234.28
-224.40
-207.55
-185.04
-158.53
-130.72
-106.03
-88.82
-82.53
-87.94
-102.36
-120.47
-136.92
-148.53
-155.04
-158.35
-160.29
-161.53
-161.30
-158.03
-150.40
-138.21
-122.55
-105.19
-87.86
-71.53
-56.42
-42.37
-29.27
-17.36
-7.25
0.40
5.25
7.56
8.17
8.28
8.99
10.97
14.20
18.11
21.82
24.51
25.70
25.38
23.91
21.81
19.52
17.25
14.99
12.55
9.79
6.74
3.52
0.33
-2.75
-5.73
-8.75
-11.91
-15.18
-18.40
-21.40
-24.16
-26.87
-29.92
-33.67
-38.21
-43.19
-47.76
-50.79
-51.15
-48.14
-41.67
-32.40
-21.48
-10.20
0.34
9.48
16.99
22.88
27.21
29.99
31.29
31.31
30.54
29.63
29.16
29.46
30.50
31.98
33.47
34.58
35.05
34.78
33.75
32.05
29.83
27.28
24.60
21.91
19.26
16.54
13.55
10.08
6.03
1.44
-3.47
-8.37
-12.96
-17.06
-20.70
-24.10
-27.58
-31.45
-35.93
-41.04
-46.56
-51.94
-56.32
-58.62
-57.83
-53.34
-45.18
-34.08
-21.26
-8.03
4.50
15.59
24.83
32.00
37.08
40.14
41.52
41.74
41.45
41.15
41.17
41.53
42.10
42.67
43.08
43.16
42.77
41.76
40.06
37.65
34.64
31.21
27.55
23.81
20.07
16.38
12.78
9.29
5.90
2.58
-0.71
-4.01
-7.31
-10.60
-13.88
-17.21
-20.76
-24.75
-29.40
-34.80
-40.76
-46.74
-51.81
-54.80
-54.57
-50.46
-42.48
-31.49
-18.91
-6.24
5.37
15.36
23.65
30.38
35.59
39.14
40.79
40.47
38.51
35.65
32.81
30.76
29.89
30.06
30.80
31.50
31.69
31.14
29.91
28.22
26.23
23.97
21.34
18.24
14.65
10.74
6.82
3.13
-0.20
-3.37
-6.73
-10.74
-15.67
-21.53
-28.03
-34.81
-41.69
-48.85
-56.79
-66.07
-76.92
-88.89
-100.76
-110.73
-117.03
-118.46
-114.90
-107.37
-97.57
-87.37
-78.09
-70.27
-63.80
-58.29
-53.53
-49.53
-46.45
-44.34
-43.05
-42.16
-41.07
-38.68
-33.37
-22.84
-4.83
21.86
56.43
95.71
134.84
168.85
194.43
210.86
220.04
225.46
231.08
240.35
255.49
277.11
303.82
332.38
358.19
376.45
383.61
378.38
361.85
336.61
305.54
270.63
232.68
191.61
147.26
99.88
50.09
-1.48
-54.55
-108.57
-161.89
-211.07
-251.01
-276.25
-283.01
-270.77
-242.53
-203.57
-159.56
-115.04
-73.14
-36.21
-6.50
13.76
23.17
22.23
13.73
1.93
-8.97
-16.30
-19.50
-19.71
-18.70
-17.87
-17.81
-18.44
-19.46
-20.81
-22.69
-25.41
-29.14
-33.72
-38.65
-43.38
-47.59
-51.34
-55.04
-59.18
-64.00
-69.40
-75.01
-80.41
-85.42
-90.18
-95.07
-100.53
-106.80
-113.68
-120.49
-126.09
-129.11
-128.32
-123.06
-113.59
-100.97
-86.72
-72.22
-58.33
-45.23
-32.79
-20.99
-10.17
-0.96
6.14
11.03
14.23
16.52
18.66
21.00
23.51
25.90
27.93
29.51
30.64
31.32
31.45
30.87
29.42
27.14
24.23
21.02
17.89
15.08
12.68
10.53
8.39
5.90
2.85
-0.85
-5.05
-9.55
-14.12
-18.64
-23.15
-27.78
-32.73
-38.20
-44.32
-51.01
-57.94
-64.35
-69.08
-70.84
-68.49
-61.62
-50.61
-36.74
-21.76
-7.37
5.21
15.41
23.24
28.98
32.92
35.22
35.94
35.25
33.54
31.47
29.76
28.96
29.25
30.41
31.96
33.35
34.20
34.28
33.54
31.92
29.41
26.05
21.98
17.48
12.94
8.63
4.63
0.84
-2.95
-6.83
-10.69
-14.20
-17.02
-18.92
-19.98
-20.58
-21.36
-22.99
-25.92
-30.12
-35.03
-39.52
-42.22
-41.95
-38.04
-30.65
-20.66
-9.37
1.93
12.27
21.06
28.01
32.89
35.59
36.12
34.80
32.34
29.69
27.78
27.24
28.18
30.24
32.83
35.37
37.42
38.74
39.22
38.85
37.64
35.68
33.13
30.14
26.82
23.16
19.10
14.60
9.71
4.57
-0.63
-5.83
-11.15
-16.74
-22.65
-28.78
-34.94
-41.00
-47.07
-53.37
-60.07
-66.86
-72.82
-76.51
-76.43
-71.57
-61.80
-48.03
-31.86
-15.11
0.70
14.61
26.18
35.29
41.99
46.28
48.28
48.29
46.91
44.99
43.33
42.51
42.66
43.48
44.43
44.95
44.64
43.35
41.17
38.31
35.05
31.68
28.45
25.49
22.77
20.11
17.18
13.70
9.54
4.78
-0.32
-5.50
-10.59
-15.69
-21.11
-27.23
-34.32
-42.48
-51.49
-60.84
-69.69
-76.90
-81.14
-81.12
-76.09
-66.07
-52.15
-36.17
-20.22
-6.05
5.39
14.00
20.23
24.69
27.83
29.83
30.80
30.96
30.66
30.45
30.77
31.91
33.82
36.22
38.59
40.42
41.31
41.08
39.81
37.73
35.08
32.02
28.66
25.02
21.12
17.01
12.71
8.20
3.47
-1.46
-6.49
-11.40
-16.02
-20.26
-24.25
-28.28
-32.74
-38.01
-44.26
-51.32
-58.48
-64.54
-67.94
-67.32
-61.90
-51.96
-38.75
-24.04
-9.62
3.26
14.01
22.55
28.98
33.38
35.80
36.41
35.65
34.20
32.87
32.25
32.62
33.84
35.45
36.99
38.16
38.93
39.51
40.16
40.99
41.81
42.11
41.28
38.82
34.66
29.25
23.57
18.82
16.06
15.84
17.98
21.53
25.02
26.88
25.78
20.92
12.08
-0.46
-16.03
-33.44
-51.20
-67.56
-80.91
-90.08
-94.84
-95.88
-94.64
-92.77
-91.82
-92.91
-96.60
-102.87
-110.86
-118.99
-125.27
-127.96
-126.19
-120.35
-111.89
-102.77
-94.81
-89.30
-86.78
-87.01
-88.84
-90.14
-87.87
-78.54
-59.20
-28.58
12.01
58.68
105.77
147.35
178.67
197.14
202.54
196.39
181.19
159.49
133.45
104.63
74.07
42.38
9.96
-22.72
-54.89
-85.14
-111.65
-132.60
-146.93
-154.69
-157.04
-155.49
-151.36
-145.39
-137.89
-129.14
-119.49
-109.27
-98.45
-86.53
-72.75
-56.51
-37.77
-16.96
5.13
27.77
50.35
72.16
92.26
109.51
122.92
132.01
137.07
138.95
138.63
136.85
133.92
129.81
124.48
118.03
110.73
102.94
94.87
86.50
77.61
67.88
57.04
44.91
31.56
17.30
2.86
-10.75
-22.31
-30.72
-35.31
-35.97
-33.17
-27.67
-20.34
-11.93
-3.10
5.52
13.23
19.35
23.38
25.18
25.10
23.87
22.35
21.29
21.12
21.85
23.20
24.80
26.31
27.57
28.60
29.53
30.46
31.40
32.19
32.60
32.35
31.20
29.13
26.23
22.71
18.79
14.56
10.01
5.00
-0.63
-7.06
-14.38
-22.61
-31.64
-41.05
-50.09
-57.73
-62.83
-64.47
-62.21
-56.21
-47.16
-35.97
-23.57
-10.78
1.76
13.40
23.56
31.71
37.49
40.92
42.35
42.40
41.84
41.38
41.54
42.59
44.50
46.97
49.59
51.87
53.43
54.05
53.64
52.22
49.87
46.67
42.70
38.09
33.02
27.76
22.53
17.44
12.45
7.35
1.90
-4.10
-10.74
-18.07
-26.05
-34.55
-43.20
-51.19
-57.32
-60.18
-58.63
-52.25
-41.59
-28.09
-13.55
0.28
12.21
21.60
28.30
32.38
34.00
33.38
30.91
27.15
22.79
18.54
14.91
12.13
10.17
8.89
8.23
8.24
9.04
10.63
12.69
14.52
15.27
14.26
11.23
6.55
1.12
-3.96
-7.75
-9.70
-9.76
-8.42
-6.41
-4.59
-3.84
-4.87
-8.21
-14.06
-22.07
-31.20
-39.81
-45.86
-47.57
-44.01
-35.56
-23.82
-11.03
0.75
10.31
17.57
23.40
28.95
35.09
41.98
49.13
55.60
60.42
62.88
62.66
59.84
54.86
48.55
42.10
36.85
33.95
33.93
36.47
40.45
44.39
46.91
47.26
45.27
41.17
35.23
27.63
18.43
7.82
-3.67
-15.28
-26.11
-35.47
-43.08
-49.05
-53.71
-57.33
-59.91
-61.07
-60.13
-56.40
-49.50
-39.55
-27.31
-13.94
-0.78
10.98
20.51
27.35
31.35
32.60
31.33
27.97
23.19
17.85
12.94
9.26
7.26
6.87
7.54
8.56
9.33
9.59
9.53
9.55
9.93
10.59
10.97
10.24
7.74
3.28
-2.66
-9.13
-15.12
-19.97
-23.65
-26.68
-29.85
-33.87
-39.06
-45.13
-51.29
-56.40
-59.26
-58.90
-54.88
-47.36
-37.09
-25.23
-13.01
-1.53
8.46
16.48
22.28
25.70
26.77
25.72
23.12
19.82
16.81
14.91
14.57
15.69
17.71
19.85
21.33
21.62
20.49
17.94
14.14
9.37
3.97
-1.65
-6.99
-11.57
-14.96
-16.95
-17.54
-16.99
-15.83
-14.71
-14.29
-15.00
-16.88
-19.46
-21.85
-23.01
-22.03
-18.44
-12.29
-4.18
5.04
14.33
22.66
29.16
33.16
34.33
32.78
29.01
23.94
18.70
14.36
11.75
11.15
12.31
14.54
17.01
19.13
20.64
21.63
22.24
22.45
21.84
19.83
15.90
9.87
2.06
-6.95
-16.48
-25.97
-34.92
-42.84
-49.17
-53.40
-55.26
-54.82
-52.54
-49.00
-44.71
-39.88
-34.54
-28.60
-22.11
-15.31
-8.63
-2.62
2.17
5.27
6.46
5.93
4.31
2.64
1.96
3.01
5.81
9.74
13.74
16.79
18.31
18.26
16.98
14.94
12.46
9.57
6.12
1.90
-3.21
-9.18
-15.83
-22.96
-30.46
-38.30
-46.53
-55.11
-63.77
-71.98
-79.04
-84.36
-87.56
-88.71
-88.02
-85.66
-81.50
-75.09
-66.07
-54.55
-41.47
-28.51
-17.52
-9.86
-5.85
-4.73
-5.05
-5.35
-4.67
-2.85
-0.29
2.48
5.14
7.80
11.08
15.70
22.15
30.74
41.64
55.14
71.68
91.54
114.39
139.09
163.44
184.45
199.03
204.93
201.43
189.77
172.72
153.77
136.55
123.50
115.12
109.91
104.86
96.31
81.40
58.66
28.63
-5.21
-38.25
-66.56
-88.19
-103.42
-114.63
-124.49
-135.71
-150.27
-166.70
-182.36
-194.95
-203.03
-205.65
-202.69
-193.14
-177.39
-157.64
-133.98
-107.05
-78.47
-50.12
-22.47
4.80
35.08
70.43
110.31
156.34
208.58
264.65
320.27
371.37
413.83
447.61
472.59
461.78
399.71
291.06
159.53
31.46
-66.40
-137.96
-186.99
-214.03
-218.44
-197.21
-151.40
-90.19
-28.78
18.46
42.80
47.56
42.23
36.92
41.19
58.08
83.45
109.22
128.70
138.74
142.91
146.20
151.78
161.90
176.28
192.79
208.98
223.50
235.05
243.11
245.24
237.31
216.67
183.33
140.26
92.59
45.78
3.36
-33.22
-65.36
-96.24
-128.88
-165.07
-204.81
-245.83
-283.59
-312.22
-325.91
-321.29
-299.16
-264.65
-225.82
-191.21
-167.23
-156.76
-159.26
-172.03
-192.02
-217.05
-246.03
-278.28
-312.61
-346.82
-377.83
-402.42
-417.73
-421.74
-412.96
-390.38
-353.53
-303.15
-241.94
-174.70
-107.85
-47.85
0.37
34.65
55.70
66.33
70.27
71.13
71.78
74.23
79.61
88.36
100.26
114.63
130.45
146.60
162.01
175.82
187.34
195.99
201.16
202.26
198.72
190.32
177.31
160.50
141.10
120.52
100.02
80.60
62.90
47.31
34.05
23.23
14.92
9.27
6.58
7.31
11.89
20.45
32.30
45.87
58.94
69.14
74.66
74.76
69.83
60.98
49.62
36.94
23.77
10.67
-1.87
-13.38
-23.51
-32.14
-39.43
-45.67
-51.00
-55.37
-58.48
-60.03
-59.86
-58.09
-54.99
-50.91
-46.17
-41.14
-36.27
-31.97
-28.58
-26.13
-24.37
-22.87
-21.21
-19.29
-17.30
-15.61
-14.55
-14.26
-14.61
-15.36
-16.24
-17.05
-17.67
-17.91
-17.68
-16.85
-15.49
-13.84
-12.28
-11.21
-10.90
-11.46
-12.89
-15.25
-18.63
-23.13
-28.67
-34.74
-40.44
-44.68
-46.55
-45.62
-42.30
-37.52
-32.52
-28.30
-25.36
-23.59
-22.51
-21.65
-20.68
-19.62
-18.61
-17.85
-17.46
-17.45
-17.85
-18.67
-19.84
-21.15
-22.23
-22.58
-21.77
-19.61
-16.16
-11.71
-6.69
-1.59
3.11
7.00
9.79
11.31
11.63
11.00
9.72
8.13
6.48
4.97
3.68
2.60
1.64
0.67
-0.42
-1.67
-2.96
-4.13
-5.03
-5.63
-6.03
-6.51
-7.33
-8.65
-10.44
-12.45
-14.29
-15.56
-16.02
-15.64
-14.65
-13.35
-12.10
-11.09
-10.38
-9.86
-9.37
-8.73
-7.80
-6.61
-5.32
-4.27
-3.84
-4.26
-5.44
-6.97
-8.36
-9.38
-10.26
-11.69
-14.50
-19.16
-25.39
-32.21
-38.09
-41.41
-40.70
-34.83
-22.98
-5.02
17.94
43.06
65.86
81.64
87.44
83.83
75.17
67.95
67.91
77.34
94.33
113.93
130.65
140.70
142.63
136.36
121.36
95.95
58.12
7.94
-50.45
-108.68
-156.34
-184.60
-189.33
-172.17
-138.72
-95.47
-47.26
3.00
52.76
97.80
131.50
146.66
138.70
108.81
64.56
17.71
-19.93
-40.61
-42.73
-30.43
-10.86
9.00
24.69
34.90
40.79
44.64
49.05
56.69
70.54
93.76
128.83
175.91
231.61
288.79
338.17
371.05
381.98
370.19
339.57
297.41
250.95
205.07
161.48
118.95
74.51
25.13
-31.10
-93.55
-158.48
-220.64
-274.93
-317.93
-349.17
-371.49
-390.14
-411.31
-438.76
-470.69
-501.15
-521.96
-524.81
-504.20
-459.19
-393.36
-315.09
-233.11
-151.26
-72.27
1.24
68.38
129.28
184.66
235.30
277.94
309.64
334.69
355.14
368.97
374.74
372.10
361.87
346.10
321.67
286.70
250.38
216.47
179.62
133.75
74.55
1.67
-80.67
-173.02
-273.81
-367.55
-445.99
-512.18
-569.87
-622.07
-670.49
-667.51
-585.89
-500.20
-444.06
-401.30
-366.80
-336.28
-306.59
-275.81
-243.07
-215.60
-198.83
-181.90
-158.09
-129.88
-99.95
-70.67
-43.37
-17.96
1.05
11.28
22.77
41.87
67.37
97.45
130.15
163.63
196.49
223.94
242.14
254.90
264.24
268.69
268.38
265.27
262.48
262.75
265.24
267.08
267.60
265.35
258.79
248.90
238.49
230.42
226.02
223.89
221.38
217.09
210.25
200.61
188.78
175.50
161.21
145.86
129.25
111.50
93.35
76.03
60.95
49.02
40.34
34.01
28.52
22.39
14.74
5.60
-4.37
-14.09
-22.81
-30.36
-37.14
-43.82
-50.75
-57.98
-65.39
-72.82
-79.98
-86.50
-91.79
-95.04
-95.36
-91.97
-84.65
-73.99
-61.13
-47.14
-32.95
-19.39
-7.32
2.25
8.76
11.93
11.76
8.71
4.21
-0.32
-4.28
-8.26
-13.85
-21.51
-31.09
-42.21
-54.08
-64.43
-71.41
-75.05
-77.54
-82.76
-91.83
-104.21
-118.50
-132.51
-142.09
-144.38
-140.04
-133.36
-131.08
-134.85
-142.87
-151.09
-153.55
-141.33
-107.61
-51.56
20.71
97.03
168.87
229.60
274.11
280.41
235.28
146.70
43.55
-29.11
-64.76
-67.37
-43.06
-4.02
41.02
88.42
136.73
183.58
224.40
252.24
266.12
268.14
261.80
251.91
244.82
244.97
252.36
262.71
269.10
269.05
262.75
251.86
239.75
231.68
232.37
243.06
260.45
277.25
286.43
281.89
259.80
220.57
169.39
114.40
63.10
20.24
-12.70
-36.59
-54.35
-70.03
-87.47
-110.56
-138.86
-171.41
-211.74
-261.53
-320.73
-386.97
-455.35
-518.77
-569.32
-599.71
-605.75
-586.79
-544.87
-484.66
-411.93
-332.41
-251.17
-172.19
-98.24
-31.34
27.53
78.74
122.78
159.64
188.25
206.59
212.61
205.66
187.22
161.22
133.24
108.40
89.98
79.16
75.43
77.68
84.43
93.72
102.77
108.60
108.96
104.20
98.45
99.10
114.23
148.88
202.08
266.39
330.32
382.38
414.89
425.86
418.04
396.33
364.96
326.02
279.82
226.50
167.22
104.55
41.27
-20.94
-82.36
-145.16
-212.38
-286.85
-369.98
-460.69
-554.68
-644.58
-721.23
-776.17
-804.50
-806.56
-787.69
-755.96
-718.94
-681.29
-644.27
-607.08
-568.84
-529.93
-491.85
-456.11
-422.97
-391.17
-358.66
-323.83
-286.45
-247.69
-209.72
-174.54
-143.20
-115.54
-90.41
-66.30
-42.11
-17.44
7.34
31.40
53.92
74.42
92.86
109.61
125.18
140.11
154.81
169.54
184.45
199.55
214.71
229.72
244.36
258.50
272.20
285.76
299.64
314.47
331.04
350.27
372.89
398.86
426.65
453.09
474.01
485.61
485.80
475.03
455.82
431.48
404.64
376.51
347.10
316.13
283.89
251.36
219.62
189.03
158.93
128.13
95.75
62.02
28.35
-3.25
-30.63
-52.12
-66.45
-72.70
-70.50
-60.36
-44.13
-25.05
-6.97
6.81
14.68
17.16
16.36
14.82
14.33
15.33
17.22
19.06
20.46
21.77
23.97
27.98
34.16
42.08
50.79
59.27
66.88
73.52
79.36
84.55
88.95
92.25
94.23
94.97
94.86
94.33
93.54
92.18
89.59
85.00
78.07
69.12
59.26
50.24
43.86
41.39
42.88
46.91
50.90
51.98
48.17
39.13
26.14
11.38
-3.24
-16.90
-29.97
-43.49
-58.26
-74.23
-90.42
-105.33
-117.70
-126.98
-133.45
-137.89
-141.14
-143.61
-145.30
-146.03
-145.80
-145.00
-144.31
-144.24
-144.73
-145.01
-143.92
-140.47
-134.51
-126.82
-118.86
-112.12
-107.51
-105.03
-103.87
-102.69
-100.04
-94.78
-86.33
-74.97
-61.81
-48.72
-37.69
-30.21
-26.76
-26.66
-28.46
-30.58
-31.91
-32.02
-31.10
-29.62
-28.11
-26.97
-26.53
-27.06
-28.59
-30.92
-33.47
-35.37
-35.67
-33.63
-28.97
-22.09
-13.97
-6.01
0.41
4.23
5.00
2.81
-1.89
-8.46
-16.09
-23.81
-30.47
-34.91
-36.29
-34.38
-29.67
-23.17
-15.95
-8.79
-2.03
4.32
10.35
16.07
21.48
26.59
31.41
35.68
38.52
38.17
32.31
19.08
-1.81
-28.06
-54.74
-75.54
-84.58
-77.99
-54.86
-17.46
29.09
77.41
119.04
146.19
154.09
142.90
118.19
89.29
65.95
54.78
57.08
69.17
84.79
98.14
105.93
107.78
105.11
99.75
92.98
85.53
77.99
71.14
65.80
62.51
60.64
58.39
53.46
44.57
33.01
22.96
20.19
29.21
50.43
78.91
105.86
122.27
122.71
107.53
82.08
53.72
28.36
8.40
-7.02
-20.05
-32.21
-43.44
-52.83
-59.86
-65.27
-70.64
-77.36
-85.56
-93.77
-99.73
-101.60
-98.85
-92.30
-83.46
-73.73
-64.02
-54.98
-47.38
-42.27
-40.65
-42.84
-48.07
-54.67
-60.65
-64.35
-64.65
-60.75
-51.85
-37.34
-17.38
6.54
31.65
54.69
73.28
86.76
96.17
103.19
108.78
112.41
112.30
106.51
94.20
76.27
55.03
33.30
13.34
-3.74
-17.91
-29.74
-39.85
-48.58
-55.99
-62.08
-66.92
-70.85
-74.34
-77.75
-81.03
-83.49
-83.88
-80.71
-72.75
-59.47
-41.14
-18.71
6.39
32.39
57.33
79.05
95.26
104.17
105.25
99.80
90.99
83.05
80.20
85.35
99.36
120.76
145.98
169.94
187.26
193.58
186.81
167.58
138.74
103.99
66.46
28.08
-10.14
-46.97
-80.28
-106.83
-123.26
-127.23
-118.23
-97.61
-67.81
-31.88
7.04
45.90
81.77
112.27
136.07
153.04
164.10
170.35
172.33
169.60
161.15
146.32
125.58
100.89
75.11
50.98
30.18
12.96
-1.46
-14.04
-25.18
-34.51
-41.36
-45.35
-46.86
-46.97
-46.97
-47.78
-49.64
-52.16
-54.63
-56.52
-57.73
-58.50
-59.26
-60.30
-61.62
-63.06
-64.42
-65.62
-66.72
-67.82
-68.99
-70.26
-71.70
-73.44
-75.53
-77.69
-79.27
-79.37
-77.25
-72.83
-66.82
-60.47
-54.91
-50.53
-46.85
-42.82
-37.59
-31.15
-24.35
-18.55
-14.79
-13.27
-13.36
-14.12
-14.91
-15.71
-16.91
-18.76
-20.98
-22.66
-22.77
-20.73
-16.80
-12.04
-7.80
-5.06
-4.08
-4.23
-4.43
-3.55
-0.81
3.84
9.76
15.63
19.73
20.08
14.93
3.37
-14.04
-34.83
-55.00
-70.05
-76.55
-73.42
-62.40
-47.34
-32.74
-22.30
-18.24
-21.50
-32.52
-51.83
-79.86
-116.27
-159.11
-204.77
-248.69
-286.74
-316.25
-336.35
-347.63
-351.18
-347.98
-338.62
-323.76
-304.45
-282.30
-259.16
-236.48
-214.87
-193.92
-172.49
-149.16
-122.77
-92.69
-58.88
-21.96
16.89
56.09
94.00
129.46
162.21
193.06
223.45
254.61
286.56
317.50
343.87
361.25
365.59
354.51
328.05
288.70
240.81
189.47
139.44
94.30
56.12
25.60
2.68
-13.08
-22.19
-25.41
-24.05
-19.99
-15.25
-11.29
-8.49
-6.09
-2.95
1.49
6.67
11.04
13.00
11.96
9.05
7.02
9.39
19.24
37.80
63.50
91.78
115.88
128.75
125.43
105.02
71.36
31.87
-4.88
-32.02
-46.33
-48.41
-41.50
-29.64
-16.12
-2.99
8.76
18.53
25.76
29.98
31.03
29.40
26.07
22.21
18.64
15.48
12.09
7.41
0.45
-9.35
-21.73
-35.75
-50.03
-63.27
-74.64
-83.98
-91.57
-97.68
-102.16
-104.35
-103.30
-98.20
-88.79
-75.42
-58.81
-39.77
-19.06
2.57
24.12
44.26
61.42
74.24
81.88
84.28
82.08
76.47
68.92
60.98
53.92
48.63
45.45
44.19
44.38
45.45
46.63
47.31
47.02
45.54
42.94
39.64
36.27
33.47
31.65
30.55
29.65
28.35
26.24
23.37
20.15
17.13
14.78
13.51
12.92
12.44
11.35
8.94
4.91
-0.47
-6.21
-10.65
-11.17
-6.53
4.61
22.72
47.22
76.56
108.35
139.79
168.26
193.27
213.07
228.90
243.09
257.95
274.31
290.49
302.33
304.43
293.99
266.03
220.63
160.89
92.53
23.22
-38.68
-85.45
-111.51
-112.17
-92.57
-58.65
-17.91
23.45
62.36
98.87
134.45
153.05
173.47
186.83
185.12
161.49
113.70
45.72
-33.48
-113.09
-183.35
-235.74
-272.37
-296.90
-314.58
-329.24
-342.35
-353.76
-362.80
-368.02
-364.92
-352.09
-325.09
-278.96
-209.82
-117.93
-7.53
103.31
189.29
233.66
234.56
206.51
168.49
134.90
113.38
99.82
88.17
75.17
61.98
50.07
40.50
31.87
22.68
10.83
-5.47
-26.57
-50.95
-75.50
-98.12
-118.40
-137.70
-157.58
-178.73
-200.47
-220.95
-238.11
-250.73
-258.93
-263.74
-265.80
-264.26
-257.19
-242.76
-220.27
-190.87
-157.29
-123.27
-92.84
-69.51
-55.57
-51.75
-56.98
-68.51
-82.57
-95.52
-104.88
-109.73
-110.38
-107.69
-102.53
-95.48
-86.80
-76.61
-65.03
-52.15
-38.10
-23.29
-8.53
4.89
15.54
22.36
25.16
24.77
22.73
20.67
19.67
19.93
20.78
21.25
20.53
18.34
15.11
11.77
9.65
10.15
14.60
23.91
38.35
57.27
79.12
101.71
122.83
140.86
155.15
166.09
174.71
182.12
188.97
195.11
199.72
201.67
200.01
194.35
184.94
172.49
157.83
141.66
124.41
106.47
88.27
70.44
53.63
38.39
24.86
12.84
1.87
-8.50
-18.48
-27.95
-36.58
-44.01
-50.02
-54.68
-58.35
-61.58
-65.03
-69.29
-74.71
-81.17
-87.95
-93.69
-96.68
-95.26
-88.40
-76.10
-59.56
-40.85
-22.30
-5.87
7.29
16.96
23.52
27.69
30.11
31.31
31.72
31.76
31.86
32.36
33.46
35.10
37.07
39.05
40.76
42.08
43.02
43.68
44.06
44.01
43.17
41.08
37.44
32.29
26.04
19.36
12.88
6.93
1.40
-4.14
-10.09
-16.57
-23.15
-28.99
-33.01
-34.30
-32.36
-27.29
-19.73
-10.72
-1.35
7.45
15.06
21.21
25.87
29.08
30.94
31.56
31.20
30.20
29.06
28.20
27.81
27.87
28.13
28.29
28.07
27.36
26.13
24.40
22.25
19.71
16.90
13.94
10.91
7.84
4.62
1.02
-3.24
-8.33
-14.25
-20.68
-27.00
-32.30
-35.66
-36.29
-33.89
-28.68
-21.39
-13.05
-4.60
3.21
10.01
15.64
20.09
23.31
25.27
26.05
25.80
24.91
23.82
22.93
22.44
22.38
22.53
22.64
22.48
21.90
20.88
19.39
17.42
14.88
11.72
7.99
3.82
-0.52
-4.78
-8.78
-12.55
-16.29
-20.32
-24.95
-30.38
-36.57
-43.06
-49.05
-53.47
-55.28
-53.82
-49.02
-41.48
-32.25
-22.46
-12.96
-4.19
3.78
10.96
17.31
22.62
26.63
29.23
30.58
31.06
31.16
31.29
31.64
32.21
32.85
33.31
33.34
32.72
31.37
29.29
26.63
23.62
20.48
17.34
14.22
10.98
7.40
3.26
-1.53
-6.83
-12.33
-17.59
-22.29
-26.49
-30.74
-35.99
-43.24
-53.21
-65.88
-80.28
-94.40
-105.37
-109.98
-105.50
-90.69
-66.47
-36.04
-4.11
24.44
45.95
58.92
64.04
63.46
59.83
55.37
51.51
48.87
47.50
47.01
46.71
45.73
43.21
38.60
31.94
23.92
15.72
8.57
3.35
0.28
-1.11
-1.60
-1.90
-2.39
-2.97
-3.31
-3.04
-2.05
-0.36
1.83
4.43
7.33
10.39
13.26
15.43
16.35
15.65
13.32
9.76
5.64
1.64
-1.72
-4.21
-5.88
-7.03
-8.13
-9.85
-12.85
-17.63
-24.18
-31.68
-38.53
-42.54
-41.65
-34.62
-21.58
-4.16
15.05
33.18
48.02
58.43
64.40
66.68
66.26
64.08
60.91
57.47
54.52
52.89
53.10
55.15
58.30
61.24
62.59
61.40
57.65
52.08
45.91
40.15
35.10
30.27
24.61
17.16
7.57
-3.65
-15.30
-25.90
-34.22
-39.54
-41.80
-41.53
-39.76
-37.85
-37.27
-39.25
-44.36
-52.26
-61.67
-70.78
-77.92
-82.17
-83.66
-83.38
-82.71
-82.72
-83.91
-86.16
-89.02
-92.06
-95.01
-97.63
-99.48
-99.71
-97.17
-90.81
-80.21
-65.95
-49.59
-33.17
-18.56
-6.70
2.51
10.02
16.98
24.15
31.45
38.16
43.35
46.62
48.55
50.84
55.74
65.24
80.30
100.40
123.71
147.77
170.14
188.90
202.62
210.22
210.83
204.12
190.45
170.80
146.19
116.91
82.18
40.87
-7.21
-60.07
-113.29
-161.19
-198.90
-224.16
-237.85
-242.91
-242.31
-237.32
-227.04
-209.43
-183.13
-149.08
-110.92
-74.18
-44.42
-25.44
-18.19
-20.87
-30.01
-41.91
-53.73
-63.74
-71.08
-75.10
-75.09
-70.45
-61.00
-47.30
-30.56
-12.25
6.36
24.47
41.66
57.68
72.10
84.23
93.23
98.31
99.07
95.60
88.63
79.41
69.59
60.86
54.68
51.91
52.61
56.10
61.13
66.26
70.24
72.29
72.30
70.64
67.81
64.09
59.39
53.20
45.02
34.71
22.86
10.67
-0.34
-8.97
-14.67
-17.74
-19.03
-19.52
-19.89
-20.32
-20.56
-20.28
-19.27
-17.75
-16.26
-15.55
-16.30
-18.91
-23.32
-29.03
-35.19
-40.73
-44.67
-46.26
-45.21
-41.56
-35.76
-28.43
-20.21
-11.69
-3.33
4.45
11.26
16.67
20.34
22.06
21.97
20.58
18.70
17.22
16.81
17.66
19.48
21.68
23.68
25.15
26.16
27.01
27.99
29.17
30.32
30.95
30.61
29.02
26.19
22.35
17.78
12.73
7.29
1.56
-4.24
-9.66
-13.99
-16.54
-16.84
-14.93
-11.41
-7.29
-3.74
-1.68
-1.58
-3.39
-6.77
-11.22
-16.39
-21.97
-27.68
-33.01
-37.19
-39.39
-39.00
-35.90
-30.57
-23.95
-17.06
-10.69
-5.29
-0.94
2.40
4.73
6.01
6.21
5.46
4.16
2.90
2.22
2.49
3.73
5.64
7.78
9.81
11.60
13.25
14.98
16.85
18.74
20.27
21.02
20.75
19.47
17.40
14.94
12.39
9.92
7.56
5.18
2.63
-0.21
-3.40
-6.86
-10.44
-13.84
-16.83
-19.29
-21.36
-23.46
-26.11
-29.68
-34.10
-38.83
-42.90
-45.27
-45.18
-42.35
-37.12
-30.23
-22.56
-14.97
-8.05
-2.13
2.63
6.27
8.84
10.48
11.37
11.72
11.82
12.01
12.52
13.53
14.98
16.66
18.24
19.44
20.07
20.12
19.66
18.79
17.54
15.88
13.75
11.15
8.16
4.89
1.53
-1.82
-5.09
-8.30
-11.48
-14.63
-17.69
-20.60
-23.32
-25.88
-28.44
-31.20
-34.26
-37.58
-40.88
-43.61
-45.16
-44.92
-42.43
-37.51
-30.33
-21.39
-11.49
-1.54
7.57
15.23
21.09
25.06
27.23
27.78
26.95
25.02
22.46
19.82
17.69
16.48
16.32
16.99
18.02
18.88
19.18
18.77
17.69
16.17
14.42
12.57
10.65
8.59
6.32
3.78
1.00
-1.96
-5.04
-8.21
-11.42
-14.68
-17.96
-21.28
-24.72
-28.47
-32.67
-37.34
-42.17
-46.47
-49.31
-49.72
-47.12
-41.51
-33.49
-24.04
-14.21
-4.83
3.56
10.71
16.46
20.68
23.22
24.10
23.53
22.01
20.19
18.72
18.11
18.57
19.98
22.03
24.26
26.20
27.46
27.80
27.14
25.57
23.27
20.44
17.25
13.81
10.18
6.51
2.97
-0.24
-2.97
-5.19
-7.07
-8.82
-10.68
-12.83
-15.35
-18.28
-21.60
-25.20
-28.84
-32.14
-34.68
-36.12
-36.35
-35.52
-33.96
-32.01
-29.85
-27.50
-24.76
-21.40
-17.24
-12.26
-6.59
-0.55
5.52
11.31
16.63
21.44
25.79
29.72
33.23
36.27
38.74
40.54
41.56
41.75
41.04
39.43
37.00
33.98
30.61
27.12
23.61
19.98
16.07
11.72
6.85
1.52
-4.19
-10.18
-16.40
-22.75
-29.16
-35.55
-41.96
-48.59
-55.60
-62.91
-69.91
-75.45
-78.03
-76.37
-69.90
-59.02
-44.97
-29.35
-13.59
1.45
15.40
28.16
39.57
49.24
56.70
61.69
64.38
65.31
65.21
64.62
63.76
62.47
60.55
58.01
55.20
52.66
50.88
50.08
50.00
50.07
49.62
48.06
45.08
40.60
34.76
27.82
20.25
12.67
5.86
0.58
-2.71
-4.02
-3.98
-3.60
-3.95
-5.76
-9.15
-13.66
-18.60
-23.28
-27.40
-31.02
-34.45
-38.09
-42.24
-47.01
-52.33
-57.78
-62.61
-65.69
-65.78
-61.86
-53.54
-41.27
-26.29
-10.29
5.12
18.75
30.01
38.81
45.30
49.69
52.09
52.69
51.78
49.95
47.98
46.68
46.62
48.02
50.61
53.85
57.12
59.89
61.87
62.99
63.35
63.15
62.52
61.48
59.82
57.21
53.33
48.01
41.37
33.73
25.50
17.01
8.41
-0.25
-8.92
-17.43
-25.48
-32.80
-39.29
-45.18
-50.98
-57.32
-64.70
-73.29
-82.99
-93.55
-104.91
-117.22
-130.76
-145.48
-160.69
-174.84
-185.92
-191.96
-191.66
-184.60
-171.06
-151.63
-126.96
-97.87
-65.70
-32.54
-1.16
25.63
45.83
58.77
65.23
66.85
65.44
62.43
58.67
54.74
51.22
48.77
48.05
49.34
52.45
56.66
61.12
65.10
68.11
70.03
70.92
70.96
70.41
69.60
68.78
68.07
67.37
66.33
64.54
61.70
57.79
53.06
47.94
42.79
37.79
32.83
27.66
22.01
15.71
8.80
1.51
-5.88
-13.11
-20.09
-26.86
-33.63
-40.65
-48.19
-56.44
-65.46
-74.99
-84.33
-92.34
-97.63
-99.02
-96.00
-89.18
-80.20
-71.39
-64.94
-62.24
-63.49
-67.69
-73.20
-78.37
-82.08
-83.98
-84.38
-83.95
-83.34
-82.98
-82.99
-83.22
-83.39
-83.12
-81.94
-79.35
-74.76
-67.54
-57.07
-42.81
-24.48
-2.17
23.49
51.38
79.95
107.62
133.04
155.32
174.17
189.65
202.06
211.69
218.77
223.54
226.33
227.61
227.80
227.01
224.79
220.04
211.38
197.73
178.80
155.40
129.14
101.91
75.19
49.89
26.38
4.93
-13.99
-29.70
-41.60
-49.50
-53.85
-55.54
-55.56
-54.65
-53.16
-51.12
-48.51
-45.48
-42.37
-39.58
-37.36
-35.62
-33.97
-31.85
-28.83
-24.85
-20.22
-15.50
-11.34
-8.13
-6.08
-5.19
-5.42
-6.79
-9.25
-12.68
-16.72
-20.90
-24.71
-27.82
-30.20
-32.10
-33.93
-36.06
-38.69
-41.78
-45.10
-48.35
-51.30
-53.87
-56.14
-58.40
-60.96
-64.08
-67.82
-71.94
-75.85
-78.67
-79.41
-77.22
-71.69
-63.01
-51.96
-39.66
-27.25
-15.66
-5.48
2.97
9.56
14.24
17.11
18.41
18.56
18.10
17.49
17.03
16.75
16.58
16.40
16.16
15.90
15.63
15.30
14.76
13.80
12.31
10.26
7.80
5.18
2.68
0.50
-1.30
-2.87
-4.48
-6.42
-8.80
-11.48
-14.12
-16.30
-17.80
-18.74
-19.61
-21.12
-23.98
-28.60
-34.84
-41.88
-48.17
-51.75
-50.72
-43.93
-31.45
-14.74
3.78
21.42
36.03
46.47
52.65
55.14
54.77
52.28
48.20
42.96
36.96
30.69
24.65
19.33
15.10
12.22
10.79
10.81
12.11
14.43
17.42
20.72
23.96
26.92
29.38
31.22
32.30
32.51
31.78
30.14
27.77
25.08
22.64
21.00
20.50
21.12
22.37
23.53
23.82
22.74
20.23
16.78
13.41
11.60
13.19
19.96
32.84
51.03
71.69
90.59
103.81
109.53
109.12
106.57
106.54
112.05
123.17
137.24
150.66
160.92
167.69
172.54
177.26
182.45
186.69
187.04
180.13
163.38
135.64
97.34
50.65
-0.47
-50.26
-91.74
-118.23
-125.44
-113.42
-87.00
-54.56
-25.21
-5.79
1.18
-2.31
-11.43
-20.95
-27.51
-30.69
-32.90
-37.93
-49.20
-68.19
-93.81
-122.93
-151.72
-177.21
-198.03
-214.10
-225.71
-232.92
-235.69
-234.63
-231.73
-229.79
-230.90
-234.60
-237.42
-234.04
-219.99
-194.10
-159.23
-121.09
-85.85
-58.18
-40.49
-33.43
-36.62
-48.85
-67.72
-89.12
-107.85
-118.96
-119.51
-109.47
-91.33
-68.54
-43.98
-19.44
4.10
25.61
43.67
56.71
63.90
65.84
64.42
61.95
59.98
58.58
56.49
52.22
45.13
36.13
27.42
21.51
20.06
23.23
29.69
37.34
44.23
49.32
52.60
54.75
56.47
58.00
59.03
59.02
57.66
55.20
52.40
50.17
49.17
49.44
50.38
51.03
50.56
48.58
45.41
41.88
38.96
37.36
37.13
37.70
38.06
37.18
34.49
30.18
25.15
20.72
18.14
18.13
20.66
24.97
29.83
33.81
35.76
35.13
32.16
28.14
25.23
26.16
33.14
46.60
64.02
79.66
85.90
75.70
45.68
-2.08
-60.06
-117.61
-164.34
-192.90
-200.22
-186.92
-156.00
-111.83
-59.93
-6.94
39.82
73.94
91.83
94.08
85.15
71.47
58.86
50.50
46.62
45.48
45.09
44.38
43.32
42.43
41.98
41.75
41.35
40.67
40.25
41.07
44.13
49.77
57.47
65.96
73.74
79.52
82.55
82.72
80.47
76.77
73.11
71.51
74.05
82.25
95.99
112.93
128.57
137.31
134.09
116.00
83.15
38.48
-13.24
-66.81
-117.76
-162.91
-200.32
-228.81
-247.46
-255.32
-251.61
-236.07
-209.51
-174.08
-133.01
-89.95
-48.12
-9.65
24.62
54.69
80.83
103.17
121.53
135.74
145.85
152.48
156.58
159.03
159.92
158.20
151.85
138.80
118.12
90.97
60.57
31.17
6.53
-11.31
-22.32
-27.82
-29.36
-27.87
-23.45
-15.82
-4.99
8.34
22.90
37.27
50.22
60.85
68.68
73.42
74.86
72.82
67.15
57.76
44.77
28.61
10.15
-9.37
-28.60
-46.35
-61.93
-75.17
-86.42
-96.25
-105.12
-113.23
-120.50
-126.73
-131.88
-136.17
-140.11
-144.22
-148.86
-153.98
-159.18
-163.94
-167.91
-170.97
-173.22
-174.68
-175.14
-174.14
-171.22
-166.23
-159.36
-151.08
-141.73
-131.37
-119.88
-107.33
-94.27
-81.73
-70.83
-61.98
-54.54
-46.79
-36.71
-22.94
-5.54
13.82
32.41
47.34
56.52
59.04
55.21
46.12
33.29
18.31
2.77
-11.73
-23.76
-32.09
-35.99
-35.33
-30.65
-23.09
-14.12
-5.38
1.71
6.25
8.04
7.65
6.14
4.60
3.70
3.48
3.40
2.80
1.30
-0.83
-2.63
-2.81
-0.33
5.04
12.46
20.17
26.16
28.86
27.64
22.95
16.02
8.45
1.67
-3.31
-6.02
-6.44
-4.99
-2.28
1.07
4.70
8.74
13.80
20.68
29.85
41.13
53.56
65.65
75.78
82.65
85.66
84.99
81.66
77.24
73.50
71.89
73.03
76.58
81.39
85.90
88.73
89.05
86.55
81.24
73.28
63.12
51.81
41.36
34.33
33.02
38.28
48.79
61.20
71.36
75.91
73.52
65.04
52.76
39.12
25.83
13.71
3.24
-4.78
-8.98
-7.77
-0.05
14.30
34.28
58.12
83.74
109.10
132.41
152.28
167.75
178.29
183.71
183.85
178.48
167.24
149.95
126.93
99.28
68.79
37.66
8.05
-18.22
-39.88
-56.26
-67.45
-74.13
-77.28
-77.74
-75.74
-70.85
-62.36
-50.01
-34.79
-19.10
-6.24
0.60
-0.52
-9.69
-25.31
-45.03
-66.62
-88.56
-109.83
-129.29
-145.16
-155.23
-157.68
-152.23
-140.78
-126.97
-114.72
-106.58
-102.74
-101.30
-99.54
-95.36
-88.15
-78.79
-68.86
-59.77
-52.19
-45.98
-40.50
-34.92
-28.51
-20.85
-11.93
-2.10
8.02
17.79
26.93
35.61
44.40
53.96
64.81
77.05
90.34
103.99
116.96
128.06
136.09
140.23
140.38
137.02
130.94
122.65
112.00
98.41
81.40
61.32
39.58
18.38
-0.09
-14.38
-24.10
-29.91
-33.06
-35.09
-37.56
-41.66
-47.56
-53.84
-57.27
-53.76
-40.12
-16.03
15.13
47.07
73.02
88.29
91.71
85.32
72.47
55.77
36.12
13.15
-13.46
-42.81
-72.66
-100.48
-124.76
-145.68
-164.66
-183.22
-201.88
-219.94
-236.01
-249.14
-259.54
-268.54
-277.91
-288.92
-301.74
-315.47
-328.62
-339.70
-347.43
-350.66
-348.17
-338.69
-321.27
-295.79
-263.28
-225.88
-186.22
-146.55
-108.14
-71.00
-34.07
4.16
44.95
88.61
134.12
179.12
220.47
255.22
281.58
299.58
310.98
318.39
323.90
327.90
328.69
323.23
308.60
283.66
250.12
212.45
176.80
149.32
134.45
133.74
145.52
165.35
187.33
205.43
214.80
212.51
197.76
171.67
136.84
96.85
55.61
16.90
-16.24
-41.85
-59.31
-69.26
-73.31
-73.63
-72.52
-72.04
-73.59
-77.74
-84.10
-91.44
-98.19
-102.90
-104.71
-103.52
-99.82
-94.47
-88.38
-82.34
-76.80
-71.72
-66.33
-59.09
-48.00
-31.33
-8.44
19.69
50.65
81.49
109.88
134.88
156.84
176.61
194.44
209.34
219.16
221.41
214.19
197.00
170.97
138.64
103.40
68.84
38.02
12.94
-5.88
-19.26
-28.81
-36.21
-42.55
-48.19
-53.01
-56.88
-59.85
-62.07
-63.46
-63.51
-61.41
-56.44
-48.48
-38.27
-27.28
-17.31
-9.83
-5.48
-3.71
-2.88
-0.82
4.36
13.45
25.73
39.25
51.52
60.46
64.88
64.47
59.47
50.22
37.04
20.27
0.43
-21.80
-45.66
-70.24
-94.19
-115.48
-131.58
-140.13
-139.74
-130.52
-113.89
-91.93
-66.79
-40.71
-16.42
2.64
12.82
11.55
-1.30
-23.03
-49.02
-74.72
-97.38
-116.72
-134.17
-151.29
-168.55
-185.13
-199.59
-210.89
-219.08
-225.17
-230.54
-236.26
-242.59
-248.95
-254.12
-256.49
-254.37
-246.28
-231.30
-209.39
-181.50
-149.38
-114.97
-79.76
-44.33
-8.36
28.81
67.46
107.00
145.96
182.42
214.56
241.16
261.65
275.93
284.22
286.96
284.92
279.33
271.77
263.84
256.75
251.02
246.40
242.17
237.62
232.48
227.10
222.29
218.83
217.00
216.21
214.98
211.22
202.74
187.73
165.17
135.11
98.80
58.63
17.81
-20.12
-52.00
-75.72
-90.56
-97.26
-97.65
-93.97
-88.34
-82.33
-76.81
-72.06
-68.08
-64.89
-62.68
-61.85
-62.74
-65.37
-69.18
-73.09
-75.66
-75.54
-71.89
-64.74
-55.08
-44.61
-35.30
-28.80
-25.88
-26.29
-28.94
-32.33
-35.10
-36.32
-35.57
-32.73
-27.78
-20.56
-10.98
0.84
14.32
28.41
41.82
53.36
62.34
68.69
72.96
76.01
78.61
81.12
83.34
84.65
84.32
81.87
77.26
70.75
62.69
53.17
42.17
29.75
16.47
3.40
-8.11
-16.95
-22.72
-25.84
-27.34
-28.25
-29.21
-30.29
-31.24
-31.80
-32.02
-32.32
-33.30
-35.50
-39.04
-43.56
-48.17
-51.77
-53.44
-52.80
-50.20
-46.51
-42.79
-39.83
-37.95
-37.04
-36.78
-36.96
-37.61
-39.10
-41.94
-46.62
-53.43
-62.32
-72.72
-83.50
-92.98
-99.12
-100.01
-94.20
-81.32
-62.41
-39.98
-17.66
0.60
11.72
14.54
10.30
2.37
-4.97
-7.96
-4.56
5.18
19.56
36.24
53.24
69.44
84.47
98.05
109.21
115.87
115.27
105.09
84.74
56.20
23.80
-7.14
-32.20
-49.40
-59.51
-65.15
-69.09
-73.01
-77.12
-80.78
-83.63
-86.22
-90.04
-96.90
-108.21
-124.50
-145.09
-167.73
-188.54
-202.11
-202.59
-185.37
-149.04
-96.50
-34.50
28.43
84.72
129.86
162.97
185.70
200.32
208.20
209.40
203.42
190.32
171.45
149.28
126.50
105.05
85.50
67.24
49.27
30.99
12.64
-4.94
-20.81
-34.46
-45.83
-55.04
-61.94
-66.02
-66.82
-64.40
-59.65
-54.05
-49.01
-45.27
-42.75
-40.91
-39.19
-37.44
-35.80
-34.38
-33.03
-31.35
-29.11
-26.64
-24.85
-24.79
-27.04
-31.17
-35.76
-38.98
-39.52
-37.29
-33.44
-29.87
-28.29
-29.46
-32.97
-37.61
-42.03
-45.23
-46.72
-46.32
-43.89
-39.30
-32.68
-24.57
-16.01
-8.19
-2.07
2.02
4.37
5.62
6.37
6.94
7.29
7.27
6.75
5.82
4.78
4.04
4.04
5.25
8.10
12.88
19.37
26.52
32.35
34.34
30.26
19.14
1.80
-19.19
-40.42
-58.72
-72.23
-80.65
-84.89
-86.29
-85.84
-83.88
-80.20
-74.58
-67.31
-59.43
-52.55
-48.06
-46.47
-46.96
-47.64
-46.42
-42.01
-34.47
-24.94
-14.74
-4.60
5.62
16.47
28.10
39.85
50.45
58.77
64.46
68.15
70.79
72.95
74.37
73.97
70.52
63.45
53.29
41.63
30.65
22.26
17.11
14.17
10.79
3.63
-9.78
-29.68
-53.27
-75.13
-88.74
-88.53
-71.81
-39.89
2.10
46.56
85.52
112.68
124.76
121.71
105.89
80.74
49.76
16.07
-17.35
-47.64
-72.25
-89.62
-99.66
-103.64
-103.36
-100.30
-95.37
-89.37
-83.87
-81.54
-85.35
-97.20
-116.48
-139.90
-162.61
-180.15
-190.04
-192.28
-188.45
-180.29
-168.68
-153.39
-133.79
-109.67
-81.84
-51.97
-21.93
7.10
35.16
63.41
93.46
126.09
160.24
192.85
219.76
237.58
245.54
246.26
244.82
246.41
253.73
265.65
278.05
286.31
287.96
283.84
277.24
271.48
268.04
266.01
263.34
258.39
250.80
240.90
228.46
212.06
189.72
160.77
127.21
93.49
64.47
42.75
27.05
12.75
-5.74
-32.15
-66.76
-106.71
-147.89
-186.92
-222.22
-253.67
-281.44
-304.87
-322.24
-331.34
-330.65
-320.10
-301.24
-276.78
-249.61
-221.96
-195.02
-169.01
-143.77
-119.30
-96.02
-74.71
-56.10
-40.36
-26.92
-14.62
-2.26
10.88
24.77
38.66
51.61
62.91
72.43
80.52
87.45
93.06
96.46
96.30
91.32
80.95
65.65
46.75
26.02
5.11
-14.74
-32.69
-48.05
-60.12
-68.27
-72.21
-72.26
-69.44
-65.18
-60.86
-57.53
-55.70
-55.46
-56.58
-58.67
-61.09
-62.91
-62.95
-60.01
-53.27
-42.55
-28.44
-12.18
4.71
20.81
35.05
46.82
55.86
62.21
66.07
67.80
67.93
67.13
66.12
65.49
65.60
66.53
68.07
69.88
71.58
72.78
73.19
72.61
70.96
68.32
64.91
61.00
56.91
52.92
49.14
45.58
42.05
38.28
34.02
29.12
23.67
17.95
12.34
7.14
2.45
-1.86
-6.07
-10.56
-15.70
-21.84
-29.10
-37.26
-45.56
-52.71
-57.08
-57.23
-52.43
-42.94
-29.98
-15.33
-0.77
12.32
23.18
31.46
37.12
40.23
41.02
39.92
37.66
35.11
33.11
32.13
32.13
32.65
32.97
32.51
31.04
28.77
26.17
23.79
21.93
20.69
19.97
19.77
20.25
21.74
24.55
28.72
33.94
39.53
44.66
48.59
50.80
51.02
49.23
45.51
40.02
32.93
24.40
14.59
3.68
-8.11
-20.45
-32.74
-44.08
-53.28
-59.04
-60.32
-56.66
-48.45
-36.83
-23.46
-10.07
1.96
11.85
19.35
24.58
27.81
29.29
29.21
27.90
25.89
23.85
22.47
22.26
23.31
25.34
27.80
30.09
31.76
32.64
32.75
32.18
31.03
29.30
27.00
24.14
20.81
17.12
13.18
9.09
4.95
0.91
-2.91
-6.42
-9.65
-12.74
-15.90
-19.32
-23.17
-27.53
-32.47
-37.91
-43.51
-48.55
-51.90
-52.32
-48.87
-41.40
-30.59
-17.92
-5.09
6.46
15.89
22.91
27.63
30.25
30.96
29.95
27.56
24.42
21.30
19.02
18.15
18.82
20.72
23.23
25.71
27.61
28.69
28.89
28.31
27.04
25.16
22.70
19.68
16.14
12.11
7.68
2.95
-1.87
-6.56
-10.88
-14.79
-18.35
-21.81
-25.47
-29.54
-34.12
-39.07
-44.01
-48.29
-51.02
-51.30
-48.44
-42.23
-33.08
-21.99
-10.20
1.10
11.01
19.03
24.88
28.44
29.73
28.94
26.58
23.40
20.30
18.02
16.98
17.18
18.23
19.61
20.81
21.54
21.67
21.26
20.40
19.17
17.57
15.55
13.00
9.87
6.16
2.01
-2.37
-6.74
-10.87
-14.65
-18.09
-21.29
-24.50
-28.03
-32.20
-37.21
-43.03
-49.20
-54.84
-58.71
-59.57
-56.55
-49.50
-39.09
-26.62
-13.71
-1.77
8.27
16.03
21.58
25.21
27.20
27.83
27.34
26.06
24.41
22.87
21.88
21.73
22.42
23.75
25.29
26.63
27.41
27.49
26.90
25.74
24.09
21.94
19.19
15.78
11.71
7.15
2.40
-2.20
-6.45
-10.26
-13.72
-17.02
-20.38
-23.97
-27.97
-32.54
-37.87
-44.01
-50.75
-57.43
-62.93
-65.92
-65.25
-60.38
-51.53
-39.72
-26.41
-13.05
-0.79
9.71
18.15
24.51
28.82
31.18
31.81
31.17
29.89
28.65
27.98
28.08
28.80
29.76
30.53
30.82
30.56
29.90
29.12
28.49
28.15
28.10
28.13
27.98
27.40
26.21
24.38
21.89
18.76
14.93
10.34
5.04
-0.74
-6.61
-12.14
-17.02
-21.16
-24.69
-27.93
-31.31
-35.30
-40.32
-46.62
-54.01
-61.72
-68.37
-72.27
-71.97
-66.73
-56.88
-43.77
-29.26
-15.17
-2.75
7.46
15.52
21.68
26.18
29.10
30.49
30.65
30.09
29.55
29.68
30.77
32.72
35.03
37.14
38.60
39.29
39.32
38.95
38.39
37.67
36.65
35.08
32.71
29.41
25.29
20.70
16.16
12.11
8.83
6.25
4.04
1.71
-1.17
-4.80
-9.07
-13.68
-18.17
-22.24
-25.78
-28.95
-32.10
-35.70
-40.17
-45.76
-52.43
-59.71
-66.68
-72.04
-74.38
-72.61
-66.32
-56.00
-42.90
-28.64
-14.78
-2.38
8.02
16.27
22.38
26.47
28.70
29.45
29.29
28.94
29.07
30.03
31.83
34.12
36.44
38.35
39.61
40.22
40.26
39.89
39.17
38.10
36.52
34.29
31.33
27.73
23.72
19.67
15.89
12.57
9.67
7.00
4.29
1.33
-1.94
-5.45
-9.07
-12.62
-15.96
-19.04
-21.84
-24.47
-27.12
-30.08
-33.69
-38.25
-43.74
-49.74
-55.22
-58.81
-59.06
-55.07
-46.78
-35.14
-21.75
-8.37
3.61
13.50
21.16
26.81
30.68
32.90
33.58
32.99
31.64
30.18
29.26
29.26
30.18
31.69
33.32
34.62
35.37
35.52
35.18
34.46
33.34
31.70
29.38
26.32
22.64
18.67
14.80
11.36
8.44
5.86
3.23
0.15
-3.65
-8.18
-13.21
-18.38
-23.28
-27.70
-31.65
-35.37
-39.36
-44.12
-50.00
-56.99
-64.57
-71.74
-77.15
-79.47
-77.77
-71.88
-62.47
-50.93
-38.88
-27.79
-18.57
-11.51
-6.46
-3.11
-1.14
-0.35
-0.51
-1.21
-1.88
-1.80
-0.36
2.80
7.76
14.28
22.01
30.48
39.26
47.88
55.87
62.74
68.00
71.17
71.96
70.28
66.32
60.47
53.24
45.06
36.26
27.02
17.52
8.02
-1.10
-9.44
-16.71
-22.85
-28.07
-32.77
-37.42
-42.41
-47.89
-53.64
-59.05
-63.18
-64.92
-63.44
-58.38
-50.14
-39.68
-28.34
-17.38
-7.75
0.05
5.90
9.88
12.16
12.93
12.47
11.20
9.72
8.67
8.59
9.72
11.83
14.37
16.68
18.21
18.73
18.33
17.29
15.89
14.35
12.87
11.67
11.07
11.33
12.53
14.39
16.33
17.59
17.61
16.19
13.53
10.06
6.27
2.45
-1.35
-5.24
-9.41
-13.93
-18.76
-23.58
-27.86
-30.79
-31.44
-28.78
-22.10
-11.32
2.74
18.08
31.86
40.96
42.85
36.33
21.98
1.98
-20.55
-42.29
-60.70
-74.46
-83.76
-90.18
-96.18
-104.38
-116.67
-133.57
-153.92
-175.25
-194.55
-209.11
-217.25
-218.44
-213.20
-202.64
-187.94
-169.59
-147.00
-118.32
-81.26
-34.63
19.92
77.13
129.24
168.58
190.72
196.15
189.81
178.51
167.93
160.80
156.90
154.49
151.90
148.22
143.08
136.03
126.38
113.62
98.16
81.53
65.93
53.40
45.03
40.82
39.84
40.71
42.01
42.63
42.11
40.88
40.23
41.81
46.81
55.20
65.48
75.08
81.22
81.82
76.18
65.04
50.23
34.31
19.91
9.44
4.55
5.85
12.66
23.28
35.43
46.86
55.82
61.15
62.20
58.72
50.83
39.16
24.96
9.89
-4.38
-16.64
-26.40
-33.81
-39.28
-43.06
-45.12
-45.44
-44.39
-42.96
-42.47
-43.96
-47.38
-51.33
-53.25
-50.36
-40.75
-24.26
-2.69
20.73
42.40
59.54
71.02
77.50
81.10
84.61
90.62
100.64
114.45
129.65
141.90
145.80
136.57
111.98
73.64
27.15
-19.50
-58.63
-85.52
-99.77
-104.68
-105.06
-104.74
-105.00
-104.63
-101.38
-93.56
-80.96
-64.48
-45.17
-23.33
1.51
29.59
59.72
88.88
112.87
127.84
131.96
126.38
114.88
102.55
93.81
90.69
92.14
94.43
92.67
82.57
61.85
30.81
-7.93
-50.18
-91.21
-126.76
-153.76
-171.01
-179.35
-181.35
-180.39
-179.35
-179.45
-179.98
-179.10
-175.20
-168.01
-158.69
-148.86
-139.32
-129.25
-116.73
-99.85
-78.27
-53.57
-28.74
-6.72
10.81
23.76
32.95
39.11
42.31
42.19
38.76
32.96
26.54
21.28
18.01
16.34
15.07
13.20
10.81
9.13
10.03
14.93
24.18
36.86
51.21
65.22
77.18
85.92
90.91
92.19
90.17
85.40
78.27
68.92
57.38
43.95
29.58
15.76
4.05
-4.81
-11.45
-17.74
-25.99
-37.71
-52.78
-69.36
-84.67
-96.10
-102.13
-102.62
-98.51
-91.09
-81.59
-70.87
-59.68
-48.85
-39.37
-32.18
-27.76
-25.75
-25.00
-23.91
-21.08
-15.87
-8.64
-0.53
7.08
13.23
17.63
20.68
23.08
25.45
28.14
31.20
34.61
38.33
42.39
46.69
51.01
54.95
58.21
60.73
62.77
64.85
67.45
70.75
74.57
78.37
81.48
83.29
83.41
81.79
78.71
74.74
70.62
66.98
64.15
62.05
60.15
57.65
53.52
46.65
35.94
20.64
0.76
-22.56
-46.97
-69.51
-87.53
-99.68
-106.31
-109.12
-110.12
-110.73
-111.32
-111.50
-110.82
-109.33
-107.52
-105.84
-104.10
-101.27
-96.00
-87.23
-74.71
-58.94
-40.65
-20.31
1.98
25.79
49.82
71.73
88.71
98.68
101.04
96.85
87.97
76.05
61.94
45.83
27.95
9.07
-9.61
-27.10
-43.24
-58.67
-74.16
-89.57
-103.39
-113.11
-116.32
-111.84
-100.23
-83.43
-64.01
-44.32
-26.10
-10.55
1.37
8.83
11.22
8.57
2.01
-6.18
-12.72
-14.20
-8.17
5.68
24.77
44.01
57.24
59.54
49.21
28.67
3.55
-19.64
-36.07
-44.41
-46.71
-46.83
-48.16
-51.99
-57.22
-61.35
-62.20
-58.89
-52.09
-43.16
-33.27
-22.87
-12.01
-1.05
8.77
15.41
16.98
12.81
4.06
-6.53
-15.69
-20.87
-21.13
-17.26
-11.18
-5.05
-0.53
1.46
0.78
-2.33
-7.43
-14.05
-21.76
-30.20
-39.07
-48.20
-57.47
-66.61
-75.02
-81.61
-84.99
-83.95
-78.08
-68.01
-55.30
-41.87
-29.22
-18.08
-8.38
0.34
8.49
16.11
23.06
29.19
34.62
39.79
45.23
51.32
58.00
64.79
70.86
75.39
77.95
78.78
78.72
79.01
80.77
84.53
90.03
96.28
101.82
105.10
104.86
100.59
92.79
83.08
73.73
66.86
63.37
62.26
60.71
54.78
40.59
15.51
-20.90
-66.39
-116.17
-163.74
-202.35
-226.68
-234.02
-224.53
-200.58
-165.38
-122.07
-73.34
-21.72
30.08
79.17
122.96
159.67
188.47
209.27
222.31
227.97
226.96
220.66
210.98
200.07
189.75
181.13
174.56
169.75
165.86
161.75
156.53
150.20
144.09
140.43
140.88
144.79
148.29
145.29
130.15
100.82
60.61
17.28
-20.05
-44.81
-55.23
-54.29
-47.22
-38.49
-29.95
-20.96
-10.08
3.13
17.30
30.04
39.52
45.86
51.35
59.15
71.18
86.51
101.22
109.69
107.04
91.04
62.62
25.07
-17.64
-61.99
-104.99
-143.57
-174.17
-193.27
-198.76
-191.30
-174.48
-153.43
-132.54
-113.67
-95.90
-76.86
-54.51
-28.30
1.08
32.72
66.22
101.26
136.61
169.20
194.46
207.88
206.71
190.94
162.80
125.55
82.22
35.52
-11.62
-55.27
-90.72
-113.47
-120.75
-112.58
-92.03
-64.42
-36.02
-12.52
2.25
7.07
3.40
-5.58
-16.35
-26.53
-35.46
-43.69
-51.83
-59.51
-65.15
-66.93
-64.01
-57.36
-49.51
-43.66
-42.43
-46.98
-56.57
-68.76
-80.07
-86.87
-86.42
-77.56
-60.92
-38.42
-12.65
13.81
38.31
57.89
69.01
68.12
52.89
23.80
-15.05
-56.59
-92.91
-117.90
-129.14
-128.06
-118.54
-104.52
-88.00
-68.64
-45.00
-16.49
14.96
44.84
67.53
78.55
76.29
62.41
40.71
15.49
-9.85
-33.40
-54.48
-72.99
-89.05
-102.91
-115.11
-126.57
-138.34
-151.13
-165.03
-179.40
-193.23
-205.55
-215.90
-224.45
-231.95
-239.21
-246.88
-255.11
-263.64
-271.95
-279.59
-286.23
-291.62
-295.43
-297.22
-296.53
-293.16
-287.34
-279.73
-271.12
-262.05
-252.54
-241.94
-229.25
-213.39
-193.66
-169.87
-142.49
-112.52
-81.26
-50.19
-20.64
6.55
31.23
54.08
76.49
100.01
125.90
154.79
186.62
221.07
257.67
295.69
333.87
370.26
402.54
428.97
449.28
464.85
477.83
489.54
499.04
503.13
497.55
479.07
447.05
403.61
352.18
295.56
234.78
169.60
100.47
30.56
-33.45
-82.79
-109.71
-110.77
-88.59
-51.04
-8.29
30.85
61.45
82.90
97.03
105.70
109.04
105.46
92.94
70.80
40.57
5.64
-30.07
-63.53
-93.58
-120.73
-146.41
-171.85
-197.32
-221.77
-243.05
-258.57
-266.13
-264.60
-254.39
-237.48
-216.92
-196.18
-178.33
-165.48
-158.55
-157.24
-160.12
-164.81
-168.28
-167.32
-159.18
-142.38
-117.13
-85.42
-50.52
-16.04
15.01
40.93
61.54
77.85
91.40
103.57
115.10
125.91
135.47
143.17
148.82
152.84
155.96
158.79
161.33
162.83
161.96
157.32
147.89
133.19
113.27
88.65
60.25
29.53
-1.49
-30.39
-54.91
-73.55
-85.97
-92.92
-95.76
-95.75
-93.52
-88.85
-81.11
-69.75
-54.91
-37.53
-19.23
-1.91
12.62
22.91
28.18
28.53
25.01
19.40
13.72
9.47
7.12
6.19
5.67
4.86
3.76
3.07
3.62
5.75
9.15
13.16
17.23
21.18
25.01
28.54
31.22
32.36
31.70
29.78
27.90
27.49
29.25
32.51
35.45
35.83
32.01
23.80
12.53
0.57
-9.55
-15.99
-17.98
-15.76
-10.35
-3.10
4.41
10.54
13.91
13.84
10.81
6.53
3.42
3.55
7.65
14.61
21.96
26.94
27.77
24.35
18.06
11.05
5.10
1.10
-1.14
-2.48
-3.94
-6.31
-9.94
-14.77
-20.36
-26.10
-31.30
-35.44
-38.28
-39.85
-40.40
-40.23
-39.56
-38.52
-37.21
-35.72
-34.10
-32.25
-29.88
-26.64
-22.29
-17.00
-11.42
-6.60
-3.57
-2.89
-4.42
-7.32
-10.55
-13.30
-15.43
-17.36
-19.72
-22.82
-26.25
-29.05
-30.10
-28.84
-25.57
-21.44
-17.95
-16.27
-16.76
-18.95
-21.84
-24.42
-26.04
-26.50
-25.97
-24.77
-23.21
-21.55
-20.07
-19.12
-19.04
-20.05
-22.04
-24.54
-26.90
-28.47
-28.88
-28.13
-26.49
-24.33
-21.93
-19.40
-16.69
-13.68
-10.22
-6.27
-1.81
3.04
8.11
13.05
17.49
21.11
23.71
25.31
26.09
26.36
26.45
26.74
27.57
29.27
31.98
35.60
39.76
43.79
46.99
48.88
49.35
48.78
47.81
47.08
46.91
47.22
47.65
47.73
47.22
46.15
44.85
43.74
43.15
43.12
43.48
43.90
44.09
43.89
43.29
42.31
40.93
39.01
36.33
32.76
28.33
23.36
18.39
14.04
10.72
8.54
7.28
6.53
5.87
5.00
3.86
2.49
0.94
-0.82
-2.92
-5.41
-8.14
-10.73
-12.67
-13.45
-12.78
-10.68
-7.44
-3.56
0.42
4.01
6.91
8.94
10.23
11.04
11.72
12.65
14.11
16.20
18.81
21.76
24.72
27.43
29.66
31.21
31.87
31.46
29.79
26.79
22.56
17.41
11.89
6.54
1.87
-1.97
-5.21
-8.41
-12.25
-17.17
-23.19
-29.79
-36.11
-41.16
-44.28
-45.27
-44.39
-42.22
-39.43
-36.57
-34.04
-32.01
-30.51
-29.32
-28.11
-26.51
-24.22
-21.22
-17.75
-14.20
-10.94
-8.14
-5.75
-3.53
-1.26
1.11
3.45
5.55
7.20
8.28
8.80
8.88
8.69
8.45
8.33
8.45
8.83
9.41
10.05
10.56
10.75
10.46
9.58
8.12
6.22
4.25
2.62
1.74
1.75
2.53
3.68
4.74
5.37
5.47
5.18
4.70
4.24
3.83
3.40
2.86
2.15
1.37
0.72
0.51
1.06
2.55
4.95
7.94
11.00
13.54
15.07
15.22
13.90
11.23
7.58
3.52
-0.30
-3.36
-5.40
-6.59
-7.42
-8.42
-9.93
-11.89
-13.93
-15.54
-16.41
-16.54
-16.19
-15.83
-15.88
-16.65
-18.23
-20.51
-23.20
-25.88
-28.20
-29.87
-30.80
-31.05
-30.74
-29.97
-28.74
-26.89
-24.19
-20.38
-15.33
-9.20
-2.46
4.07
9.51
13.21
14.96
15.15
14.50
13.77
13.39
13.37
13.42
13.28
12.98
12.87
13.42
14.95
17.37
20.29
23.15
25.50
27.18
28.22
28.74
28.74
28.15
26.89
25.01
22.88
21.06
20.15
20.53
22.21
24.82
27.71
30.28
32.03
32.75
32.43
31.13
28.90
25.74
21.64
16.64
10.94
4.94
-0.83
-5.82
-9.63
-12.21
-13.83
-15.02
-16.36
-18.15
-20.38
-22.70
-24.60
-25.60
-25.41
-23.95
-21.41
-18.12
-14.56
-11.29
-8.69
-6.95
-5.97
-5.49
-5.25
-5.18
-5.42
-6.26
-8.04
-10.92
-14.83
-19.45
-24.19
-28.33
-31.16
-32.18
-31.37
-29.10
-26.14
-23.25
-20.97
-19.48
-18.65
-18.32
-18.38
-18.84
-19.70
-20.87
-22.09
-23.06
-23.56
-23.64
-23.58
-23.74
-24.43
-25.68
-27.27
-28.80
-29.94
-30.56
-30.81
-30.98
-31.29
-31.74
-31.98
-31.54
-29.95
-27.04
-22.89
-17.76
-11.94
-5.60
1.10
7.88
14.30
19.75
23.66
25.76
26.18
25.45
24.31
23.44
23.27
23.88
25.04
26.31
27.24
27.47
26.91
25.70
24.17
22.71
21.59
20.81
20.14
19.21
17.78
15.86
13.74
11.84
10.53
9.93
9.92
10.24
10.63
10.88
10.80
10.21
8.91
6.79
3.97
0.82
-2.05
-4.07
-4.90
-4.53
-3.25
-1.47
0.44
2.18
3.60
4.63
5.26
5.56
5.66
5.67
5.62
5.45
5.08
4.53
3.99
3.84
4.40
5.82
7.91
10.23
12.27
13.63
14.16
13.97
13.30
12.42
11.60
11.03
10.80
10.89
11.21
11.58
11.83
11.81
11.48
10.86
10.08
9.27
8.56
7.98
7.42
6.67
5.51
3.91
2.05
0.35
-0.64
-0.53
0.80
3.14
6.04
9.05
11.86
14.31
16.43
18.24
19.78
21.10
22.26
23.37
24.51
25.66
26.73
27.52
27.85
27.59
26.75
25.35
23.48
21.21
18.55
15.52
12.12
8.32
4.18
-0.20
-4.65
-8.95
-12.91
-16.46
-19.67
-22.67
-25.61
-28.55
-31.40
-33.99
-36.13
-37.65
-38.50
-38.68
-38.27
-37.48
-36.65
-36.20
-36.52
-37.75
-39.65
-41.60
-42.76
-42.44
-40.22
-36.14
-30.66
-24.38
-17.94
-11.83
-6.39
-1.84
1.75
4.45
6.48
8.12
9.59
10.99
12.27
13.29
14.00
14.47
14.87
15.33
15.87
16.31
16.36
15.71
14.24
11.98
9.17
6.20
3.49
1.38
0.08
-0.39
-0.22
0.23
0.63
0.68
0.22
-0.76
-2.23
-4.13
-6.38
-8.82
-11.16
-13.11
-14.43
-15.06
-15.15
-14.99
-14.81
-14.64
-14.30
-13.48
-11.90
-9.50
-6.44
-3.07
0.27
3.38
6.19
8.75
11.07
13.06
14.48
15.12
14.90
13.99
12.79
11.83
11.54
12.14
13.49
15.29
17.13
18.69
19.77
20.33
20.35
19.89
19.02
17.83
16.41
14.87
13.33
11.84
10.48
9.32
8.55
8.41
9.08
10.57
12.60
14.60
15.82
15.61
13.63
10.05
5.53
0.99
-2.75
-5.24
-6.45
-6.72
-6.41
-5.85
-5.18
-4.50
-3.96
-3.77
-4.16
-5.24
-6.85
-8.59
-9.98
-10.66
-10.54
-9.80
-8.89
-8.21
-8.01
-8.33
-8.95
-9.57
-9.84
-9.60
-8.77
-7.44
-5.79
-4.04
-2.37
-0.96
0.07
0.66
0.77
0.47
-0.04
-0.48
-0.54
-0.06
0.88
1.92
2.59
2.47
1.46
-0.17
-1.83
-2.91
-3.04
-2.26
-0.99
0.22
0.98
1.22
1.18
1.27
1.78
2.79
4.16
5.66
7.08
8.37
9.56
10.72
11.92
13.13
14.30
15.33
16.10
16.53
16.59
16.45
16.39
16.75
17.77
19.35
21.07
22.19
21.98
19.97
16.15
10.99
5.30
-0.08
-4.55
-7.86
-10.13
-11.66
-12.81
-13.85
-14.89
-15.96
-16.99
-17.83
-18.21
-17.87
-16.53
-14.10
-10.68
-6.55
-2.09
2.36
6.44
9.87
12.32
13.61
13.67
12.72
11.21
9.70
8.63
8.27
8.61
9.42
10.44
11.36
11.92
11.98
11.55
10.83
10.16
9.90
10.18
10.87
11.55
11.69
10.89
9.06
6.37
3.23
0.05
-2.81
-5.16
-6.93
-8.13
-8.86
-9.31
-9.77
-10.60
-12.12
-14.55
-17.72
-21.18
-24.24
-26.16
-26.48
-25.18
-22.73
-19.93
-17.61
-16.37
-16.39
-17.45
-19.05
-20.69
-22.00
-22.88
-23.44
-23.95
-24.60
-25.41
-26.22
-26.66
-26.29
-24.77
-21.96
-17.92
-12.93
-7.41
-1.83
3.37
7.79
11.06
12.94
13.29
12.24
10.10
7.40
4.66
2.25
0.39
-0.98
-1.94
-2.60
-2.93
-2.86
-2.25
-0.95
1.14
4.06
7.62
11.31
14.28
15.42
13.91
9.60
3.40
-2.88
-7.03
-7.28
-2.90
5.61
16.78
28.69
39.43
47.38
51.32
50.61
45.35
36.53
25.92
15.62
7.38
2.01
-0.74
-1.85
-2.45
-3.17
-4.01
-4.55
-4.35
-3.31
-1.77
-0.25
0.79
1.20
1.16
1.03
1.11
1.48
1.96
2.22
1.91
0.83
-1.00
-3.36
-5.86
-8.06
-9.59
-10.20
-9.86
-8.72
-7.07
-5.22
-3.41
-1.79
-0.43
0.60
1.23
1.36
0.98
0.21
-0.67
-1.34
-1.58
-1.40
-1.06
-0.89
-1.12
-1.76
-2.52
-3.08
-3.20
-2.90
-2.43
-2.12
-2.22
-2.85
-3.96
-5.50
-7.45
-9.80
-12.48
-15.26
-17.79
-19.57
-20.27
-19.73
-18.14
-15.99
-13.91
-12.51
-12.07
-12.56
-13.59
-14.59
-14.99
-14.42
-12.79
-10.28
-7.29
-4.21
-1.41
0.92
2.75
4.09
5.00
5.49
5.57
5.28
4.76
4.24
4.05
4.47
5.60
7.33
9.33
11.20
12.63
13.48
13.79
13.67
13.23
12.51
11.53
10.25
8.68
6.86
4.84
2.74
0.72
-1.00
-2.27
-3.04
-3.51
-4.02
-4.91
-6.45
-8.64
-11.32
-14.22
-16.95
-19.14
-20.41
-20.45
-19.20
-16.84
-13.85
-10.74
-7.84
-5.24
-2.80
-0.41
1.87
3.72
4.76
4.86
4.19
3.26
2.70
2.96
4.19
6.23
8.67
11.04
12.96
14.19
14.71
14.64
14.20
13.57
12.88
12.14
11.33
10.42
9.43
8.41
7.41
6.48
5.60
4.75
3.92
3.14
2.41
1.69
0.84
-0.36
-2.20
-4.82
-8.11
-11.67
-14.79
-16.77
-17.10
-15.69
-12.87
-9.23
-5.33
-1.54
1.96
5.14
7.93
10.16
11.65
12.31
12.30
11.97
11.76
12.00
12.76
13.85
14.90
15.58
15.74
15.47
15.02
14.64
14.48
14.50
14.48
14.16
13.38
12.13
10.61
9.11
7.86
6.96
6.31
5.68
4.79
3.49
1.79
-0.14
-1.98
-3.42
-4.28
-4.56
-4.53
-4.58
-5.14
-6.51
-8.73
-11.52
-14.33
-16.52
-17.48
-16.88
-14.69
-11.23
-7.04
-2.73
1.18
4.39
6.81
8.51
9.60
10.19
10.35
10.16
9.76
9.37
9.17
9.25
9.52
9.76
9.72
9.27
8.54
7.81
7.44
7.62
8.28
9.14
9.75
9.81
9.18
7.98
6.44
4.87
3.48
2.37
1.51
0.77
-0.02
-1.05
-2.45
-4.28
-6.49
-8.91
-11.27
-13.29
-14.72
-15.47
-15.66
-15.61
-15.72
-16.31
-17.38
-18.66
-19.60
-19.61
-18.32
-15.66
-11.88
-7.47
-3.01
1.00
4.21
6.55
8.13
9.14
9.75
10.03
10.02
9.74
9.38
9.17
9.39
10.11
11.18
12.28
13.12
13.52
13.50
13.20
12.68
11.97
10.99
9.69
8.12
6.42
4.71
3.09
1.63
0.37
-0.63
-1.30
-1.67
-1.81
-1.87
-2.03
-2.39
-2.92
-3.52
-4.06
-4.41
-4.52
-4.40
-4.10
-3.79
-3.68
-4.01
-4.96
-6.51
-8.39
-10.05
-10.85
-10.28
-8.23
-4.96
-1.04
2.85
6.24
8.86
10.65
11.64
11.86
11.37
10.34
9.08
7.90
7.08
6.67
6.51
6.31
5.85
5.14
4.42
4.10
4.50
5.70
7.38
8.86
9.26
7.80
4.08
-1.68
-8.64
-15.52
-20.97
-24.04
-24.38
-22.35
-18.75
-14.53
-10.47
-7.02
-4.30
-2.32
-1.07
-0.58
-0.93
-2.14
-4.15
-6.74
-9.52
-11.98
-13.58
-13.90
-12.77
-10.31
-6.91
-3.02
1.01
4.96
8.77
12.38
15.62
18.18
19.67
19.88
18.78
16.69
14.09
11.49
9.29
7.59
6.27
5.14
4.02
2.91
1.97
1.39
1.20
1.27
1.25
0.76
-0.42
-2.32
-4.68
-7.09
-9.10
-10.43
-11.04
-11.13
-11.06
-11.13
-11.49
-11.96
-12.15
-11.64
-10.06
-7.43
-4.06
-0.62
2.07
3.28
2.59
0.10
-3.55
-7.32
-10.11
-11.05
-9.80
-6.61
-2.13
2.79
7.41
11.13
13.58
14.60
14.23
12.70
10.38
7.79
5.38
3.52
2.32
1.75
1.64
1.80
2.10
2.42
2.63
2.63
2.32
1.75
1.06
0.46
0.09
-0.07
-0.22
-0.61
-1.39
-2.54
-3.87
-5.16
-6.33
-7.45
-8.70
-10.19
-11.88
-13.57
-15.08
-16.29
-17.25
-18.04
-18.58
-18.62
-17.81
-15.84
-12.72
-8.73
-4.30
0.28
5.03
10.20
16.05
22.45
28.65
33.38
35.27
33.30
27.25
17.78
6.27
-5.52
-15.83
-23.21
-26.72
-26.14
-21.98
-15.32
-7.57
-0.08
6.14
10.54
12.99
13.61
12.66
10.42
7.26
3.62
-0.01
-3.14
-5.46
-6.86
-7.45
-7.48
-7.30
-7.21
-7.48
-8.19
-9.34
-10.75
-12.15
-13.25
-13.74
-13.43
-12.24
-10.26
-7.66
-4.70
-1.65
1.22
3.61
5.23
5.86
5.51
4.40
3.01
1.82
1.20
1.30
2.01
3.12
4.38
5.63
6.73
7.51
7.79
7.44
6.43
4.95
3.34
1.94
0.95
0.37
0.05
-0.22
-0.56
-0.95
-1.35
-1.73
-2.08
-2.44
-2.80
-3.06
-3.09
-2.81
-2.24
-1.63
-1.23
-1.23
-1.62
-2.16
-2.47
-2.20
-1.21
0.43
2.46
4.57
6.50
8.11
9.35
10.26
10.88
11.23
11.35
11.29
11.11
10.86
10.57
10.25
9.93
9.67
9.51
9.46
9.44
9.29
8.86
8.07
6.95
5.65
4.38
3.32
2.54
1.92
1.25
0.30
-1.05
-2.76
-4.61
-6.31
-7.62
-8.41
-8.76
-8.90
-9.17
-9.91
-11.35
-13.52
-16.20
-18.91
-20.97
-21.76
-20.86
-18.23
-14.19
-9.37
-4.45
-0.00
3.64
6.39
8.31
9.53
10.18
10.32
10.01
9.29
8.31
7.27
6.39
5.85
5.73
5.96
6.35
6.69
6.80
6.56
6.00
5.22
4.33
3.47
2.69
1.94
1.17
0.26
-0.84
-2.10
-3.38
-4.53
-5.39
-5.94
-6.28
-6.54
-6.93
-7.67
-8.96
-10.97
-13.78
-17.20
-20.75
-23.71
-25.29
-24.95
-22.53
-18.38
-13.17
-7.61
-2.29
2.45
6.43
9.53
11.65
12.73
12.82
12.21
11.29
10.47
10.07
10.20
10.78
11.59
12.41
13.07
13.49
13.66
13.67
13.56
13.34
12.93
12.22
11.15
9.77
8.31
7.04
6.14
5.60
5.19
4.56
3.46
1.83
-0.16
-2.21
-4.03
-5.47
-6.57
-7.54
-8.61
-10.04
-12.03
-14.66
-17.85
-21.26
-24.34
-26.40
-26.79
-25.11
-21.41
-16.18
-10.12
-3.95
1.78
6.79
10.96
14.17
16.28
17.20
17.01
16.00
14.72
13.70
13.30
13.59
14.35
15.24
15.98
16.42
16.53
16.37
15.92
15.10
13.80
12.03
9.93
7.82
6.04
4.79
4.07
3.68
3.33
2.77
1.87
0.63
-0.85
-2.44
-3.95
-5.22
-6.16
-6.75
-7.13
-7.51
-8.15
-9.29
-11.07
-13.50
-16.43
-19.51
-22.23
-23.95
-24.05
-22.20
-18.43
-13.16
-7.09
-0.98
4.56
9.15
12.66
15.17
16.86
17.92
18.45
18.54
18.20
17.50
16.57
15.60
14.77
14.21
13.88
13.64
13.30
12.72
11.87
10.88
9.90
9.01
8.23
7.45
6.50
5.27
3.73
1.97
0.18
-1.48
-2.91
-4.17
-5.42
-6.90
-8.78
-11.14
-13.87
-16.77
-19.61
-22.22
-24.62
-26.93
-29.24
-31.45
-33.17
-33.80
-32.71
-29.60
-24.63
-18.44
-11.83
-5.55
-0.05
4.56
8.39
11.57
14.10
15.92
16.96
17.28
17.05
16.52
15.96
15.51
15.20
15.00
14.83
14.62
14.39
14.15
13.95
13.78
13.59
13.27
12.70
11.77
10.45
8.80
6.95
5.05
3.27
1.69
0.34
-0.81
-1.78
-2.64
-3.38
-4.03
-4.58
-5.09
-5.70
-6.63
-8.09
-10.14
-12.55
-14.85
-16.46
-16.90
-15.98
-13.85
-10.94
-7.69
-4.43
-1.34
1.50
3.96
5.88
7.10
7.52
7.25
6.52
5.59
4.56
3.40
1.99
0.33
-1.45
-3.00
-4.03
-4.39
-4.20
-3.75
-3.38
-3.28
-3.42
-3.71
-4.02
-4.36
-4.79
-5.43
-6.30
-7.34
-8.40
-9.32
-9.98
-10.31
-10.32
-10.06
-9.63
-9.16
-8.78
-8.68
-9.07
-10.14
-11.90
-14.15
-16.36
-17.80
-17.81
-16.01
-12.45
-7.66
-2.36
2.73
7.09
10.52
13.01
14.60
15.39
15.46
14.91
13.97
12.87
11.86
11.10
10.63
10.43
10.44
10.57
10.69
10.64
10.28
9.52
8.40
7.12
5.91
4.96
4.33
3.93
3.58
3.10
2.35
1.29
-0.06
-1.66
-3.41
-5.21
-6.99
-8.66
-10.32
-12.10
-14.20
-16.71
-19.41
-21.80
-23.20
-22.97
-20.80
-16.82
-11.59
-5.87
-0.43
4.21
7.78
10.30
11.94
12.94
13.53
13.89
14.13
14.26
14.21
13.93
13.50
13.21
13.59
15.27
18.65
23.64
29.38
34.27
36.36
33.89
25.85
12.50
-4.53
-22.52
-38.26
-48.96
-52.98
-50.29
-42.37
-31.60
-20.50
-11.00
-4.15
-0.23
0.89
-0.48
-3.87
-8.59
-13.58
-17.63
-19.67
-19.24
-16.63
-12.74
-8.65
-5.23
-2.87
-1.41
-0.48
0.33
1.25
2.29
3.22
3.79
3.77
3.15
2.15
1.09
0.39
0.30
0.78
1.57
2.27
2.56
2.40
2.07
1.94
2.36
3.36
4.64
5.74
6.19
5.79
4.57
2.83
0.90
-0.91
-2.41
-3.58
-4.46
-5.19
-5.91
-6.82
-8.06
-9.75
-11.78
-13.90
-15.62
-16.35
-15.64
-13.22
-9.24
-4.17
1.29
6.47
10.89
14.26
16.55
17.82
18.18
17.80
16.93
15.86
14.92
14.32
14.12
14.26
14.59
14.96
15.22
15.25
14.88
13.96
12.46
10.48
8.33
6.30
4.55
2.99
1.38
-0.57
-2.95
-5.60
-8.24
-10.58
-12.57
-14.29
-15.97
-17.82
-19.98
-22.51
-25.41
-28.68
-32.16
-35.49
-38.06
-39.13
-38.05
-34.53
-28.78
-21.51
-13.70
-6.32
-0.05
4.74
8.06
10.14
11.31
11.94
12.35
12.70
13.06
13.43
13.73
14.00
14.27
14.62
15.05
15.48
15.73
15.62
15.04
13.99
12.57
10.92
9.12
7.25
5.30
3.34
1.39
-0.55
-2.56
-4.78
-7.28
-10.05
-12.94
-15.69
-18.14
-20.25
-22.22
-24.39
-27.10
-30.54
-34.61
-38.90
-42.68
-45.00
-44.91
-41.76
-35.46
-26.57
-16.21
-5.64
4.04
12.27
18.88
23.98
27.72
30.17
31.40
31.58
31.09
30.46
30.14
30.34
30.97
31.73
32.31
32.51
32.34
31.97
31.58
31.29
31.05
30.71
30.05
28.86
27.04
24.62
21.80
18.89
16.22
13.98
12.22
10.72
9.24
7.54
5.56
3.44
1.37
-0.55
-2.38
-4.27
-6.38
-8.76
-11.32
-14.04
-16.99
-20.33
-24.13
-28.07
-31.38
-33.02
-32.07
-28.10
-21.49
-13.27
-4.76
2.85
8.89
13.17
15.90
17.37
17.85
17.52
16.60
15.37
14.21
13.53
13.54
14.28
15.52
16.90
18.04
18.73
18.93
18.71
18.20
17.41
16.32
14.83
12.97
10.86
8.71
6.67
4.82
3.06
1.28
-0.59
-2.52
-4.42
-6.18
-7.75
-9.16
-10.48
-11.79
-13.20
-14.88
-17.08
-20.01
-23.65
-27.70
-31.55
-34.39
-35.47
-34.33
-30.95
-25.71
-19.32
-12.55
-6.09
-0.39
4.31
7.98
10.69
12.56
13.73
14.37
14.68
14.89
15.17
15.63
16.26
17.01
17.79
18.44
18.78
18.66
17.92
16.56
14.68
12.53
10.35
8.34
6.53
4.83
3.09
1.15
-1.06
-3.53
-6.11
-8.61
-10.84
-12.72
-14.29
-15.73
-17.28
-19.18
-21.57
-24.49
-27.83
-31.24
-34.14
-35.81
-35.54
-32.85
-27.70
-20.63
-12.61
-4.75
2.03
7.23
10.85
13.22
14.77
15.83
16.51
16.77
16.54
15.96
15.32
15.01
15.38
16.46
18.09
19.89
21.48
22.59
23.07
22.87
22.02
20.61
18.74
16.58
14.17
11.51
8.51
5.11
1.48
-2.09
-5.17
-7.48
-9.00
-10.00
-10.88
-11.95
-13.39
-15.21
-17.46
-20.13
-23.24
-26.52
-29.37
-30.97
-30.52
-27.64
-22.49
-15.76
-8.36
-1.16
5.26
10.55
14.54
17.19
18.49
18.66
18.03
17.07
16.19
15.66
15.52
15.70
16.10
16.62
17.22
17.74
17.99
17.72
16.74
15.05
12.81
10.27
7.67
5.08
2.44
-0.35
-3.35
-6.46
-9.45
-12.13
-14.42
-16.39
-18.22
-20.14
-22.30
-24.80
-27.70
-30.95
-34.35
-37.40
-39.30
-39.19
-36.37
-30.71
-22.71
-13.43
-4.10
4.29
11.20
16.57
20.60
23.54
25.49
26.44
26.35
25.40
24.00
22.68
21.95
22.01
22.74
23.69
24.35
24.34
23.54
22.10
20.21
18.08
15.79
13.33
10.64
7.72
4.64
1.50
-1.59
-4.52
-7.22
-9.68
-11.93
-14.06
-16.18
-18.42
-20.89
-23.69
-26.86
-30.40
-34.11
-37.57
-40.14
-41.06
-39.68
-35.69
-29.31
-21.19
-12.25
-3.42
4.61
11.43
16.96
21.25
24.41
26.54
27.73
28.14
27.99
27.59
27.24
27.18
27.56
28.38
29.52
30.73
31.74
32.27
32.15
31.43
30.31
29.07
27.97
27.10
26.34
25.43
24.19
22.56
20.68
18.72
16.83
15.00
13.17
11.33
9.60
8.18
7.17
6.41
5.38
3.35
-0.30
-5.78
-12.64
-19.92
-26.42
-31.07
-33.24
-32.76
-29.86
-24.97
-18.65
-11.53
-4.29
2.28
7.50
10.90
12.34
12.08
10.67
8.73
6.90
5.61
5.09
5.37
6.29
7.58
8.94
10.13
10.98
11.49
11.71
11.76
11.74
11.71
11.70
11.69
11.58
11.22
10.49
9.20
7.22
4.55
1.20
-2.67
-6.82
-10.98
-14.85
-18.32
-21.47
-24.68
-28.37
-32.81
-37.76
-42.40
-45.55
-46.10
-43.53
-38.17
-31.10
-23.68
-17.12
-12.07
-8.64
-6.56
-5.49
-5.16
-5.36
-5.87
-6.38
-6.57
-6.19
-5.15
-3.57
-1.69
0.27
2.24
4.24
6.39
8.75
11.31
13.89
16.28
18.28
19.79
20.86
21.60
22.10
22.39
22.39
22.01
21.21
20.08
18.82
17.72
17.02
16.85
17.06
17.23
16.72
14.79
10.96
5.14
-2.17
-10.04
-17.26
-22.85
-26.22
-27.32
-26.50
-24.34
-21.42
-18.24
-15.15
-12.41
-10.19
-8.54
-7.39
-6.64
-6.16
-5.86
-5.65
-5.51
-5.33
-4.95
-4.21
-2.88
-0.84
2.03
5.72
10.18
15.18
20.37
25.27
29.33
32.06
33.22
32.88
31.42
29.39
27.36
25.77
24.84
24.57
24.82
25.35
25.91
26.27
26.22
25.67
24.59
22.98
20.85
18.18
14.95
11.24
7.31
3.57
0.49
-1.60
-2.54
-2.39
-1.35
0.35
2.43
4.57
6.34
7.23
6.78
4.68
0.89
-4.35
-10.55
-17.13
-23.57
-29.51
-34.79
-39.45
-43.56
-47.17
-50.20
-52.48
-53.87
-54.29
-53.86
-52.83
-51.52
-50.14
-48.82
-47.56
-46.31
-45.04
-43.72
-42.32
-40.77
-38.96
-36.82
-34.31
-31.53
-28.70
-26.13
-24.10
-22.78
-22.17
-22.10
-22.32
-22.61
-22.81
-22.80
-22.49
-21.77
-20.55
-18.76
-16.53
-14.12
-11.87
-10.06
-8.83
-8.12
-7.80
-7.67
-7.66
-7.72
-7.84
-7.96
-7.93
-7.56
-6.75
-5.52
-4.04
-2.60
-1.44
-0.71
-0.33
-0.10
0.26
0.91
1.85
2.91
3.83
4.37
4.37
3.79
2.74
1.45
0.25
-0.56
-0.79
-0.46
0.21
0.90
1.35
1.48
1.35
1.00
0.42
-0.51
-1.84
-3.45
-5.03
-6.17
-6.64
-6.42
-5.68
-4.64
-3.32
-1.62
0.55
3.13
5.86
8.39
10.44
11.92
13.00
13.93
14.93
16.12
17.49
18.90
20.12
20.85
20.84
19.93
18.12
15.58
12.63
9.57
6.68
4.11
1.97
0.25
-1.12
-2.25
-3.33
-4.50
-5.88
-7.53
-9.41
-11.45
-13.56
-15.59
-17.32
-18.63
-19.45
-19.94
-20.42
-21.14
-22.23
-23.46
-24.37
-24.39
-23.15
-20.60
-17.02
-12.91
-8.74
-4.79
-1.13
2.26
5.44
8.34
10.81
12.62
13.66
13.97
13.74
13.29
12.98
13.01
13.44
14.16
14.92
15.50
15.77
15.75
15.63
15.68
16.15
17.22
19.00
21.51
24.68
28.25
31.56
33.58
33.01
28.73
20.34
8.62
-4.49
-16.36
-24.63
-28.00
-26.71
-22.33
-16.96
-12.42
-9.64
-8.64
-8.85
-9.68
-10.72
-11.83
-12.95
-13.85
-14.27
-13.99
-13.04
-11.72
-10.54
-9.91
-10.02
-10.71
-11.56
-12.05
-11.74
-10.46
-8.29
-5.48
-2.32
1.06
4.75
8.88
13.53
18.50
23.33
27.48
30.48
32.18
32.72
32.44
31.69
30.69
29.52
28.13
26.45
24.54
22.51
20.62
19.12
18.18
17.76
17.58
17.24
16.31
14.56
11.95
8.62
4.73
0.42
-4.11
-8.61
-12.60
-15.56
-17.05
-16.90
-15.30
-12.78
-9.95
-7.37
-5.38
-4.03
-3.17
-2.54
-1.90
-1.16
-0.33
0.48
1.18
1.80
2.46
3.29
4.35
5.55
6.66
7.45
7.75
7.49
6.70
5.49
3.95
2.22
0.43
-1.36
-3.05
-4.57
-5.82
-6.68
-7.07
-6.98
-6.55
-6.07
-5.82
-6.01
-6.63
-7.50
-8.33
-8.96
-9.42
-9.88
-10.64
-11.85
-13.48
-15.15
-16.35
-16.53
-15.38
-12.87
-9.33
-5.26
-1.15
2.62
5.86
8.48
10.39
11.53
11.91
11.69
11.20
10.80
10.79
11.23
11.93
12.64
13.15
13.42
13.58
13.73
13.90
13.99
13.78
13.12
11.98
10.58
9.23
8.23
7.71
7.56
7.51
7.22
6.45
5.24
3.84
2.66
2.05
2.14
2.69
3.19
3.02
1.79
-0.43
-3.04
-5.03
-5.25
-2.76
2.95
11.68
22.49
33.63
42.73
47.25
45.16
35.70
19.89
0.40
-19.09
-34.96
-44.61
-47.06
-42.96
-34.08
-22.69
-10.97
-0.64
7.17
11.95
13.72
12.97
10.48
7.14
3.77
0.94
-1.12
-2.50
-3.56
-4.75
-6.42
-8.65
-11.25
-13.75
-15.65
-16.59
-16.54
-15.85
-15.12
-15.02
-15.92
-17.76
-20.06
-22.08
-23.12
-22.76
-20.88
-17.69
-13.54
-8.81
-3.87
0.95
5.36
9.15
12.17
14.34
15.70
16.34
16.40
16.07
15.55
15.13
15.01
15.35
16.09
17.09
18.04
18.65
18.71
18.16
17.08
15.61
13.98
12.30
10.66
9.11
7.67
6.33
5.07
3.87
2.67
1.50
0.39
-0.57
-1.38
-2.07
-2.73
-3.39
-4.08
-4.77
-5.57
-6.72
-8.49
-10.99
-13.93
-16.61
-18.10
-17.68
-15.16
-10.98
-6.04
-1.27
2.71
5.75
8.03
9.79
11.14
11.96
12.07
11.37
10.05
8.51
7.25
6.61
6.64
7.08
7.56
7.76
7.63
7.29
6.98
6.87
6.95
7.10
7.07
6.62
5.58
3.87
1.54
-1.16
-3.83
-6.04
-7.45
-8.00
-7.96
-7.79
-7.97
-8.81
-10.38
-12.58
-15.22
-18.08
-20.85
-23.20
-24.75
-25.19
-24.38
-22.42
-19.66
-16.56
-13.52
-10.79
-8.42
-6.30
-4.35
-2.54
-1.01
0.05
0.56
0.55
0.33
0.29
0.80
1.99
3.70
5.57
7.13
8.11
8.40
8.12
7.53
6.87
6.30
5.86
5.56
5.28
4.94
4.42
3.62
2.51
1.09
-0.58
-2.40
-4.32
-6.26
-8.15
-9.95
-11.67
-13.40
-15.32
-17.57
-20.10
-22.49
-24.10
-24.24
-22.47
-18.81
-13.70
-7.82
-1.85
3.71
8.57
12.54
15.45
17.23
17.92
17.77
17.15
16.39
15.72
15.14
14.53
13.82
13.03
12.37
12.06
12.20
12.72
13.35
13.79
13.82
13.40
12.59
11.52
10.26
8.79
7.04
5.00
2.76
0.52
-1.46
-2.99
-4.04
-4.69
-5.13
-5.60
-6.32
-7.46
-9.19
-11.71
-15.14
-19.40
-24.12
-28.55
-31.66
-32.54
-30.65
-26.09
-19.57
-12.12
-4.82
1.59
6.74
10.57
13.19
14.72
15.27
14.94
13.89
12.35
10.60
8.86
7.35
6.15
5.34
4.94
4.89
5.15
5.57
6.02
6.28
6.17
5.61
4.67
3.55
2.51
1.77
1.34
1.02
0.44
-0.74
-2.69
-5.27
-8.09
-10.73
-12.84
-14.35
-15.39
-16.28
-17.34
-18.87
-21.01
-23.71
-26.74
-29.63
-31.77
-32.49
-31.25
-27.90
-22.61
-15.99
-8.76
-1.70
4.63
9.84
13.71
16.19
17.28
17.16
16.04
14.32
12.41
10.77
9.76
9.62
10.38
11.86
13.69
15.43
16.72
17.36
17.33
16.72
15.66
14.26
12.63
11.00
9.59
8.62
8.13
7.92
7.62
6.94
5.73
4.18
2.70
1.77
1.69
2.45
3.74
4.99
5.56
4.91
2.76
-0.76
-5.19
-9.84
-14.15
-17.72
-20.41
-22.10
-22.50
-21.09
-17.32
-10.89
-2.01
8.47
19.30
28.98
36.03
39.06
36.92
29.11
16.23
0.36
-15.21
-26.81
-31.72
-29.14
-20.51
-8.77
2.84
11.96
17.61
19.98
19.85
18.01
15.03
11.40
7.65
4.45
2.37
1.62
1.93
2.65
3.04
2.57
1.10
-1.12
-3.64
-5.97
-7.85
-9.17
-10.03
-10.62
-11.12
-11.77
-12.78
-14.34
-16.47
-18.98
-21.41
-23.20
-23.84
-23.05
-20.84
-17.40
-12.94
-7.58
-1.38
5.60
12.99
20.10
25.98
29.75
30.89
29.55
26.55
23.04
20.13
18.49
18.25
19.08
20.48
21.98
23.24
24.09
24.37
23.99
22.95
21.41
19.71
18.13
16.83
15.79
14.79
13.64
12.32
10.90
9.52
8.17
6.65
4.72
2.20
-0.80
-3.91
-6.62
-8.58
-9.77
-10.48
-11.14
-12.09
-13.40
-14.87
-16.32
-17.64
-18.98
-20.51
-22.28
-23.98
-25.03
-24.73
-22.69
-18.94
-14.04
-8.75
-3.79
0.44
3.86
6.53
8.58
9.98
10.62
10.45
9.54
8.21
6.88
5.97
5.78
6.31
7.36
8.56
9.60
10.26
10.51
10.46
10.22
9.81
9.12
7.96
6.20
3.90
1.40
-0.86
-2.49
-3.33
-3.57
-3.65
-4.06
-5.09
-6.71
-8.59
-10.28
-11.45
-12.05
-12.32
-12.65
-13.41
-14.75
-16.65
-18.97
-21.58
-24.32
-26.99
-29.27
-30.73
-30.88
-29.48
-26.60
-22.63
-18.12
-13.47
-8.87
-4.25
0.42
4.96
8.93
11.82
13.26
13.32
12.49
11.50
10.98
11.19
11.94
12.79
13.29
13.24
12.76
12.19
11.85
11.92
12.29
12.66
12.72
12.24
11.18
9.70
8.09
6.62
5.42
4.44
3.49
2.33
0.84
-0.89
-2.61
-4.07
-5.14
-5.88
-6.50
-7.14
-7.90
-8.80
-9.89
-11.31
-13.25
-15.77
-18.59
-21.11
-22.52
-22.11
-19.59
-15.17
-9.52
-3.53
2.02
6.59
9.98
12.23
13.47
13.80
13.31
12.09
10.34
8.38
6.59
5.25
4.48
4.22
4.30
4.63
5.14
5.83
6.62
7.29
7.54
7.12
6.00
4.43
2.80
1.49
0.59
-0.02
-0.65
-1.52
-2.69
-3.96
-5.09
-5.87
-6.30
-6.52
-6.73
-7.09
-7.65
-8.45
-9.60
-11.31
-13.79
-17.11
-20.97
-24.63
-27.15
-27.64
-25.62
-21.15
-14.85
-7.70
-0.69
5.36
9.99
13.00
14.43
14.49
13.53
11.99
10.29
8.86
7.95
7.66
7.91
8.52
9.26
9.94
10.46
10.80
11.04
11.18
11.20
10.96
10.32
9.20
7.68
6.01
4.41
3.05
1.82
0.51
-1.15
-3.23
-5.57
-7.80
-9.64
-10.97
-11.90
-12.70
-13.64
-14.88
-16.48
-18.48
-20.88
-23.57
-26.18
-28.05
-28.31
-26.26
-21.65
-14.83
-6.72
1.55
9.03
15.17
19.81
23.04
25.01
25.82
25.52
24.27
22.35
20.20
18.32
17.13
16.78
17.19
18.08
19.04
19.72
19.90
19.57
18.85
17.90
16.83
15.63
14.20
12.44
10.35
8.08
5.82
3.74
1.88
0.15
-1.58
-3.38
-5.20
-6.86
-8.19
-9.16
-9.92
-10.74
-11.96
-13.83
-16.50
-19.91
-23.79
-27.55
-30.39
-31.41
-29.96
-25.88
-19.64
-12.19
-4.59
2.27
7.96
12.37
15.58
17.61
18.40
17.89
16.19
13.64
10.82
8.29
6.41
5.26
4.68
4.46
4.47
4.67
5.09
5.61
5.96
5.79
4.85
3.16
0.99
-1.20
-3.04
-4.32
-5.12
-5.65
-6.13
-6.67
-7.22
-7.59
-7.53
-6.86
-5.48
-3.42
-0.87
1.84
4.17
5.48
5.21
3.14
-0.41
-4.45
-7.56
-8.32
-5.93
-0.50
6.90
14.69
21.42
26.26
29.10
30.37
30.50
29.67
27.79
24.78
20.82
16.49
12.57
9.70
8.04
7.25
6.77
6.09
4.98
3.59
2.22
1.10
0.32
-0.25
-0.88
-1.78
-3.14
-4.93
-7.05
-9.25
-11.36
-13.25
-14.91
-16.37
-17.65
-18.72
-19.50
-19.99
-20.22
-20.26
-20.16
-19.87
-19.37
-18.73
-18.20
-18.05
-18.38
-18.93
-19.04
-17.94
-15.10
-10.46
-4.49
2.11
8.78
15.20
21.37
27.27
32.74
37.40
40.81
42.80
43.46
43.17
42.30
41.02
39.19
36.53
32.87
28.36
23.44
18.73
14.71
11.50
8.87
6.39
3.64
0.39
-3.36
-7.49
-11.78
-16.09
-20.26
-24.06
-27.25
-29.57
-30.95
-31.57
-31.84
-32.26
-33.09
-34.24
-35.36
-35.91
-35.53
-34.22
-32.23
-29.88
-27.27
-24.19
-20.22
-15.10
-8.86
-1.96
5.00
11.61
17.69
23.36
28.67
33.38
36.95
38.78
38.61
36.73
33.94
31.23
29.33
28.42
28.23
28.18
27.82
26.92
25.54
23.91
22.19
20.43
18.56
16.48
14.15
11.63
9.05
6.52
4.11
1.80
-0.53
-3.00
-5.66
-8.52
-11.44
-14.19
-16.55
-18.39
-19.75
-20.83
-21.97
-23.51
-25.63
-28.23
-30.93
-33.12
-34.20
-33.68
-31.45
-27.77
-23.12
-18.12
-13.26
-8.86
-5.05
-1.88
0.58
2.26
3.11
3.23
2.83
2.22
1.69
1.44
1.50
1.78
2.19
2.63
3.09
3.56
4.02
4.38
4.47
4.16
3.40
2.25
0.93
-0.33
-1.33
-1.95
-2.23
-2.29
-2.31
-2.44
-2.80
-3.42
-4.27
-5.27
-6.30
-7.27
-8.17
-9.15
-10.44
-12.29
-14.79
-17.67
-20.30
-21.86
-21.55
-19.03
-14.52
-8.84
-3.14
1.54
4.57
5.95
6.13
5.72
5.16
4.61
3.97
3.08
1.89
0.56
-0.66
-1.54
-2.00
-2.10
-1.98
-1.74
-1.43
-1.09
-0.79
-0.69
-1.02
-1.92
-3.37
-5.14
-6.93
-8.38
-9.35
-9.91
-10.33
-10.91
-11.87
-13.26
-15.03
-17.12
-19.56
-22.38
-25.57
-28.97
-32.18
-34.69
-35.96
-35.53
-33.22
-29.11
-23.57
-17.15
-10.51
-4.20
1.41
6.17
10.15
13.47
16.21
18.33
19.67
20.13
19.69
18.58
17.21
16.15
15.88
16.63
18.31
20.52
22.71
24.37
25.18
25.03
23.98
22.21
20.03
17.87
16.29
15.76
16.48
18.13
19.89
20.60
19.27
15.51
9.71
2.99
-3.27
-7.94
-10.53
-11.17
-10.31
-8.38
-5.51
-1.68
3.04
8.22
12.98
16.37
17.78
17.29
15.66
13.94
12.99
13.08
13.78
14.32
14.02
12.62
10.38
7.95
6.00
4.98
4.93
5.61
6.60
7.55
8.30
8.83
9.25
9.63
9.93
10.01
9.70
8.89
7.56
5.85
3.93
1.98
0.07
-1.76
-3.52
-5.20
-6.79
-8.30
-9.74
-11.09
-12.31
-13.40
-14.43
-15.58
-17.08
-19.07
-21.41
-23.62
-24.97
-24.74
-22.52
-18.38
-12.85
-6.72
-0.77
4.49
8.82
12.26
14.94
16.97
18.41
19.22
19.38
18.88
17.85
16.47
14.96
13.48
12.07
10.71
9.32
7.89
6.48
5.15
3.91
2.66
1.23
-0.51
-2.58
-4.84
-7.14
-9.35
-11.45
-13.48
-15.50
-17.45
-19.26
-20.86
-22.22
-23.37
-24.29
-24.99
-25.52
-26.02
-26.76
-28.03
-29.89
-32.08
-33.97
-34.76
-33.86
-31.10
-26.84
-21.71
-16.36
-11.27
-6.65
-2.56
0.99
3.90
6.05
7.35
7.79
7.55
6.91
6.25
5.87
5.97
6.56
7.52
8.62
9.68
10.58
11.33
11.96
12.45
12.70
12.54
11.95
11.01
9.97
9.05
8.33
7.67
6.80
5.54
3.82
1.77
-0.40
-2.50
-4.40
-6.04
-7.41
-8.57
-9.67
-11.01
-12.93
-15.60
-18.84
-22.10
-24.54
-25.41
-24.33
-21.37
-17.05
-12.10
-7.21
-2.81
0.88
3.85
6.17
7.87
8.94
9.35
9.07
8.25
7.11
6.01
5.25
4.98
5.16
5.65
6.42
7.59
9.37
11.89
14.93
18.00
20.57
22.36
23.56
24.66
26.15
28.12
30.01
30.93
30.02
26.89
21.83
15.72
9.60
4.29
0.12
-3.12
-5.99
-8.99
-12.31
-15.68
-18.42
-19.77
-19.21
-16.70
-12.76
-8.24
-4.09
-1.06
0.50
0.64
-0.32
-1.88
-3.56
-4.95
-5.75
-5.72
-4.69
-2.67
0.06
2.97
5.39
6.79
7.05
6.57
6.09
6.33
7.68
9.96
12.56
14.72
15.86
15.72
14.40
12.20
9.45
6.46
3.43
0.49
-2.25
-4.76
-6.99
-8.95
-10.62
-12.00
-13.16
-14.15
-15.10
-16.21
-17.72
-19.87
-22.78
-26.34
-30.11
-33.40
-35.34
-35.18
-32.56
-27.63
-21.07
-13.90
-7.13
-1.45
2.92
6.19
8.71
10.71
12.13
12.77
12.50
11.46
10.16
9.22
9.06
9.70
10.76
11.76
12.34
12.48
12.45
12.51
12.71
12.87
12.63
11.77
10.27
8.42
6.57
4.97
3.59
2.17
0.34
-2.16
-5.33
-8.88
-12.37
-15.35
-17.49
-18.67
-18.99
-18.81
-18.66
-19.04
-20.34
-22.53
-25.12
-27.20
-27.73
-25.89
-21.47
-14.95
-7.33
0.22
6.77
11.88
15.60
18.24
20.10
21.31
21.83
21.57
20.63
19.32
18.14
17.52
17.62
18.27
19.00
19.36
19.04
18.08
16.79
15.52
14.55
13.84
13.12
12.05
10.38
8.19
5.78
3.54
1.75
0.41
-0.70
-1.88
-3.31
-4.99
-6.72
-8.27
-9.49
-10.35
-10.94
-11.37
-11.82
-12.51
-13.76
-15.86
-18.89
-22.53
-26.12
-28.70
-29.38
-27.64
-23.46
-17.35
-10.12
-2.71
4.08
9.69
13.83
16.47
17.78
18.10
17.81
17.35
17.01
17.00
17.32
17.90
18.57
19.21
19.79
20.41
21.11
21.88
22.58
22.97
22.76
21.83
20.15
17.78
14.85
11.47
7.79
3.99
0.24
-3.27
-6.41
-9.15
-11.52
-13.52
-15.05
-15.99
-16.24
-15.90
-15.25
-14.77
-14.92
-16.03
-18.19
-21.20
-24.62
-27.80
-30.04
-30.69
-29.31
-25.77
-20.34
-13.59
-6.34
0.66
6.77
11.61
15.06
17.19
18.16
18.19
17.52
16.40
15.09
13.86
12.95
12.56
12.74
13.46
14.52
15.65
16.57
17.07
17.06
16.55
15.71
14.70
13.65
12.61
11.51
10.24
8.63
6.60
4.12
1.25
-1.88
-5.16
-8.46
-11.68
-14.69
-17.38
-19.66
-21.58
-23.41
-25.51
-28.27
-31.78
-35.68
-39.12
-41.02
-40.40
-36.77
-30.32
-21.80
-12.36
-3.15
4.90
11.23
15.62
18.11
18.90
18.27
16.61
14.36
12.06
10.26
9.42
9.77
11.28
13.63
16.32
18.84
20.71
21.70
21.75
20.98
19.65
17.98
16.15
14.19
11.97
9.33
6.17
2.58
-1.20
-4.85
-8.15
-11.02
-13.57
-15.91
-18.14
-20.30
-22.43
-24.64
-27.16
-30.23
-33.93
-38.04
-41.88
-44.51
-44.90
-42.35
-36.77
-28.67
-19.10
-9.29
-0.29
7.25
13.06
17.17
19.73
20.93
21.04
20.43
19.62
19.12
19.33
20.42
22.24
24.47
26.71
28.60
29.94
30.65
30.73
30.19
29.02
27.17
24.65
21.59
18.27
14.96
11.89
9.04
6.20
3.12
-0.31
-3.92
-7.40
-10.49
-13.13
-15.50
-17.88
-20.52
-23.54
-26.97
-30.83
-34.98
-39.06
-42.27
-43.57
-41.93
-36.88
-28.78
-18.71
-8.12
1.64
9.74
15.87
20.08
22.57
23.50
23.05
21.45
19.02
16.23
13.52
11.36
10.08
9.91
10.85
12.62
14.71
16.56
17.64
17.71
16.84
15.26
13.36
11.39
9.54
7.80
6.13
4.42
2.58
0.60
-1.55
-3.83
-6.21
-8.63
-11.08
-13.49
-15.86
-18.29
-20.93
-24.05
-27.83
-32.19
-36.63
-40.22
-41.83
-40.51
-35.90
-28.41
-19.16
-9.54
-0.79
6.40
11.89
15.89
18.62
20.23
20.72
20.20
19.00
17.72
17.03
17.39
18.92
21.36
24.18
26.84
28.93
30.29
30.94
31.01
30.67
30.00
28.97
27.44
25.32
22.56
19.28
15.71
12.08
8.60
5.35
2.31
-0.55
-3.26
-5.87
-8.52
-11.49
-15.11
-19.59
-24.80
-30.19
-34.88
-37.93
-38.58
-36.54
-32.00
-25.59
-18.13
-10.46
-3.30
2.78
7.42
10.44
11.84
11.82
10.71
8.98
7.18
5.85
5.37
5.88
7.18
8.80
10.22
11.05
11.22
10.95
10.65
10.69
11.26
12.37
13.84
15.49
17.14
18.61
19.73
20.28
20.05
18.91
16.90
14.19
11.06
7.81
4.69
1.86
-0.63
-2.89
-5.12
-7.61
-10.67
-14.44
-18.75
-23.08
-26.58
-28.38
-27.84
-24.86
-19.85
-13.68
-7.30
-1.53
3.15
6.56
8.74
9.81
9.90
9.15
7.80
6.21
4.76
3.78
3.40
3.52
3.95
4.50
5.14
5.93
6.90
7.97
8.86
9.20
8.70
7.30
5.19
2.79
0.44
-1.61
-3.38
-5.03
-6.78
-8.78
-11.02
-13.37
-15.57
-17.42
-18.73
-19.49
-19.83
-20.03
-20.49
-21.66
-23.86
-27.04
-30.65
-33.64
-34.65
-32.54
-26.77
-17.64
-6.27
5.78
17.04
26.45
33.54
38.27
40.86
41.57
40.69
38.52
35.39
31.75
27.97
24.41
21.29
18.73
16.76
15.29
14.21
13.30
12.36
11.29
10.07
8.76
7.41
5.98
4.34
2.36
-0.02
-2.69
-5.45
-8.03
-10.25
-12.01
-13.30
-14.18
-14.80
-15.32
-15.95
-16.86
-18.10
-19.66
-21.41
-23.15
-24.60
-25.42
-25.09
-23.11
-19.08
-12.94
-5.05
3.84
12.82
21.13
28.16
33.47
36.55
36.79
33.54
26.53
16.32
4.48
-6.69
-14.81
-18.24
-16.68
-11.16
-3.50
4.37
11.06
15.85
18.56
19.19
17.74
14.33
9.34
3.55
-2.02
-6.50
-9.52
-11.35
-12.65
-14.15
-16.21
-18.78
-21.42
-23.62
-25.02
-25.52
-25.28
-24.65
-24.16
-24.37
-25.78
-28.58
-32.43
-36.41
-39.31
-39.98
-37.85
-33.09
-26.53
-19.30
-12.38
-6.32
-1.25
2.90
6.20
8.63
10.12
10.76
10.79
10.57
10.50
10.87
11.77
13.13
14.79
16.47
17.96
19.10
19.81
20.14
20.18
19.95
19.39
18.37
16.75
14.62
12.24
10.00
8.18
6.79
5.55
4.07
2.11
-0.25
-2.64
-4.64
-5.98
-6.68
-7.04
-7.55
-8.65
-10.71
-13.93
-18.23
-23.21
-28.10
-31.84
-33.44
-32.26
-28.25
-22.02
-14.56
-6.89
0.21
6.31
11.29
15.17
17.96
19.65
20.30
20.03
19.16
18.07
17.15
16.63
16.61
17.02
17.64
18.27
18.68
18.75
18.41
17.65
16.50
14.99
13.17
11.14
9.00
6.94
5.16
3.71
2.53
1.34
-0.19
-2.28
-4.93
-7.88
-10.69
-12.97
-14.49
-15.33
-15.80
-16.43
-17.73
-20.10
-23.61
-27.94
-32.32
-35.69
-37.05
-35.77
-31.82
-25.78
-18.60
-11.25
-4.49
1.28
5.92
9.39
11.65
12.70
12.63
11.73
10.50
9.48
9.06
9.34
10.11
11.03
11.82
12.42
12.96
13.64
14.48
15.23
15.53
15.03
13.70
11.76
9.60
7.52
5.60
3.74
1.77
-0.34
-2.46
-4.38
-6.00
-7.33
-8.49
-9.66
-11.00
-12.60
-14.60
-17.10
-20.11
-23.43
-26.50
-28.49
-28.50
-25.91
-20.65
-13.30
-4.93
3.26
10.28
15.63
19.30
21.57
22.80
23.24
22.99
22.11
20.74
19.15
17.72
16.82
16.58
16.95
17.68
18.48
19.19
19.79
20.35
20.86
21.15
20.92
19.91
18.10
15.70
13.17
10.90
9.04
7.43
5.72
3.57
0.89
-2.14
-5.19
-7.95
-10.24
-12.05
-13.50
-14.82
-16.34
-18.42
-21.40
-25.37
-30.00
-34.50
-37.82
-38.99
-37.45
-33.29
-27.17
-20.03
-12.86
-6.43
-1.26
2.43
4.59
5.36
5.05
4.13
3.08
2.33
2.15
2.63
3.66
4.96
6.22
7.19
7.71
7.76
7.48
7.05
6.59
6.15
5.62
4.91
3.94
2.71
1.30
-0.20
-1.77
-3.49
-5.47
-7.75
-10.23
-12.67
-14.72
-16.10
-16.70
-16.65
-16.43
-16.67
-17.97
-20.66
-24.50
-28.74
-32.17
-33.61
-32.25
-28.02
-21.55
-13.94
-6.33
0.51
6.29
11.10
15.11
18.29
20.44
21.33
20.92
19.53
17.77
16.34
15.80
16.29
17.62
19.34
20.99
22.21
22.85
22.85
22.23
21.01
19.22
16.90
14.14
11.07
7.80
4.43
1.07
-2.16
-5.10
-7.59
-9.50
-10.88
-11.94
-13.00
-14.40
-16.38
-19.05
-22.30
-25.89
-29.39
-32.22
-33.65
-33.02
-29.89
-24.33
-16.95
-8.79
-1.00
5.53
10.36
13.58
15.62
16.92
17.77
18.24
18.30
17.94
17.39
16.91
16.77
17.00
17.42
17.73
17.68
17.22
16.43
15.48
14.44
13.28
11.93
10.32
8.52
6.65
4.86
3.13
1.38
-0.56
-2.85
-5.47
-8.33
-11.18
-13.78
-16.03
-17.97
-19.89
-22.19
-25.25
-29.19
-33.80
-38.39
-42.04
-43.73
-42.68
-38.62
-31.80
-23.05
-13.37
-3.81
4.85
12.11
17.71
21.64
23.97
24.95
24.97
24.50
23.99
23.76
23.96
24.56
25.44
26.49
27.60
28.64
29.42
29.70
29.30
28.14
26.27
23.84
21.06
18.10
15.12
12.23
9.47
6.79
4.11
1.33
-1.58
-4.57
-7.48
-10.17
-12.60
-14.84
-17.09
-19.65
-22.80
-26.71
-31.37
-36.43
-41.23
-44.82
-46.23
-44.76
-40.24
-33.15
-24.42
-15.14
-6.22
1.70
8.31
13.50
17.18
19.34
20.06
19.65
18.63
17.63
17.18
17.55
18.68
20.29
22.02
23.59
24.86
25.72
26.10
25.86
24.87
23.08
20.62
17.79
14.95
12.42
10.30
8.49
6.75
4.84
2.63
0.13
-2.48
-4.98
-7.19
-9.05
-10.70
-12.47
-14.81
-18.07
-22.37
-27.36
-32.26
-36.00
-37.56
-36.26
-32.02
-25.33
-17.08
-8.27
0.28
8.05
14.79
20.42
24.90
28.15
30.13
30.89
30.68
29.99
29.49
29.80
31.33
34.04
37.42
40.60
42.54
42.35
39.42
33.62
25.32
15.34
4.91
-4.59
-11.84
-15.96
-16.68
-14.51
-10.57
-6.29
-3.01
-1.62
-2.39
-5.01
-8.81
-12.98
-16.93
-20.36
-23.36
-26.28
-29.58
-33.53
-38.07
-42.69
-46.57
-48.77
-48.57
-45.67
-40.31
-33.15
-25.05
-16.87
-9.32
-2.88
2.21
5.86
8.19
9.46
10.02
10.31
10.69
11.44
12.69
14.37
16.29
18.10
19.54
20.44
20.82
20.83
20.64
20.31
19.71
18.66
17.00
14.73
12.03
9.23
6.58
4.25
2.21
0.31
-1.64
-3.71
-5.84
-7.87
-9.61
-10.99
-12.12
-13.22
-14.55
-16.21
-18.25
-20.62
-23.35
-26.51
-30.08
-33.77
-36.96
-38.76
-38.34
-35.23
-29.57
-22.05
-13.67
-5.44
1.87
7.84
12.33
15.41
17.23
18.03
18.09
17.70
17.20
16.84
16.81
17.15
17.78
18.55
19.26
19.74
19.92
19.83
19.56
19.22
18.83
18.27
17.37
15.95
13.96
11.48
8.76
6.02
3.40
0.96
-1.35
-3.52
-5.50
-7.18
-8.54
-9.66
-10.77
-12.23
-14.40
-17.51
-21.51
-25.96
-30.03
-32.73
-33.16
-30.85
-26.01
-19.38
-12.02
-4.88
1.46
6.80
11.19
14.63
16.99
18.06
17.74
16.24
14.08
11.91
10.32
9.60
9.75
10.51
11.61
12.81
13.95
14.86
15.39
15.36
14.70
13.41
11.61
9.48
7.15
4.70
2.17
-0.37
-2.92
-5.40
-7.72
-9.84
-11.67
-13.22
-14.59
-16.09
-18.12
-21.12
-25.21
-30.02
-34.65
-37.87
-38.48
-35.78
-29.81
-21.35
-11.62
-1.89
6.88
14.23
20.07
24.52
27.68
29.55
30.14
29.57
28.17
26.46
24.93
23.91
23.44
23.32
23.30
23.20
22.95
22.57
22.03
21.22
19.98
18.19
15.90
13.31
10.72
8.33
6.19
4.13
1.97
-0.46
-3.10
-5.76
-8.23
-10.38
-12.25
-14.00
-15.91
-18.29
-21.50
-25.79
-31.24
-37.51
-43.79
-48.79
-51.13
-49.79
-44.51
-35.96
-25.53
-14.79
-5.03
3.07
9.41
14.19
17.61
19.70
20.36
19.62
17.78
15.46
13.36
12.05
11.71
12.14
12.90
13.57
13.84
13.58
12.80
11.49
9.70
7.47
4.90
2.05
-1.05
-4.45
-8.21
-12.30
-16.52
-20.55
-24.10
-27.01
-29.33
-31.28
-33.07
-34.85
-36.78
-39.02
-41.81
-45.31
-49.30
-53.07
-55.46
-55.24
-51.63
-44.69
-35.38
-25.12
-15.30
-6.84
-0.01
5.32
9.33
12.06
13.41
13.26
11.75
9.33
6.71
4.68
3.88
4.63
6.88
10.18
13.82
17.03
19.19
20.01
19.57
18.18
16.14
13.66
10.74
7.30
3.34
-1.03
-5.54
-9.91
-13.92
-17.53
-20.91
-24.32
-28.03
-32.29
-37.18
-42.66
-48.36
-53.61
-57.39
-58.57
-56.20
-49.82
-39.69
-26.67
-11.92
3.40
18.36
32.29
44.66
54.98
62.81
67.92
70.42
70.77
69.61
67.56
65.05
62.23
59.17
55.87
52.39
48.82
45.29
41.97
38.96
36.39
34.28
32.50
30.73
28.51
25.43
21.24
16.03
10.14
4.02
-1.96
-7.67
-13.19
-18.67
-24.22
-29.88
-35.67
-41.63
-47.78
-53.92
-59.41
-63.18
-63.88
-60.41
-52.41
-40.42
-25.76
-10.07
5.14
18.85
30.53
39.90
46.77
50.98
52.46
51.46
48.68
45.12
41.86
39.69
38.92
39.31
40.29
41.21
41.61
41.32
40.47
39.30
38.02
36.65
34.99
32.76
29.73
25.88
21.47
16.94
12.79
9.35
6.60
4.22
1.68
-1.56
-5.88
-11.41
-17.87
-24.61
-30.54
-34.41
-35.00
-31.59
-24.25
-13.86
-1.88
10.11
20.87
29.70
36.39
41.03
43.67
44.37
43.16
40.28
36.26
31.83
27.83
24.79
22.87
21.75
20.93
19.90
18.42
16.58
14.60
12.69
10.85
8.92
6.60
3.62
-0.13
-4.58
-9.43
-14.26
-18.60
-22.09
-24.56
-26.11
-27.07
-27.90
-29.08
-31.07
-34.17
-38.49
-43.75
-49.23
-53.77
-56.14
-55.37
-51.21
-44.24
-35.67
-26.86
-18.86
-12.19
-6.82
-2.47
1.07
3.81
5.57
6.26
6.01
5.33
4.94
5.52
7.42
10.58
14.63
19.04
23.41
27.49
31.17
34.31
36.64
37.78
37.36
35.14
31.14
25.61
19.00
11.96
5.18
-0.65
-5.06
-7.87
-9.26
-9.71
-9.92
-10.60
-12.39
-15.65
-20.28
-25.61
-30.50
-33.60
-33.79
-30.68
-24.75
-17.17
-9.41
-2.70
2.25
5.31
6.72
6.85
6.01
4.34
1.93
-1.20
-5.04
-9.58
-14.76
-20.44
-26.31
-32.00
-37.11
-41.44
-45.02
-48.12
-51.22
-54.79
-59.19
-64.52
-70.55
-76.83
-82.83
-88.11
-92.43
-95.72
-98.03
-99.40
-99.88
-99.63
-99.05
-98.75
-99.30
-100.91
-103.19
-105.25
-106.13
-105.38
-103.29
-100.70
-98.37
-96.24
-93.13
-87.01
-75.66
-57.50
-32.11
-0.37
35.61
72.58
106.50
133.00
148.61
152.01
145.02
132.51
121.09
117.03
124.25
143.15
170.64
201.14
227.74
243.39
242.04
219.99
177.18
117.91
50.19
-16.46
-73.78
-117.15
-146.07
-162.89
-170.45
-170.30
-162.31
-145.84
-121.26
-90.82
-58.11
-26.68
1.48
26.32
49.03
70.79
91.66
110.40
125.14
134.45
138.13
137.31
133.73
128.90
123.29
116.02
105.27
88.98
65.79
35.67
0.12
-38.16
-75.90
-110.04
-138.47
-160.48
-176.76
-188.91
-198.65
-207.06
-214.32
-220.07
-224.19
-227.41
-231.35
-237.72
-247.18
-258.61
-269.25
-275.86
-276.22
-270.10
-259.24
-246.21
-233.01
-220.08
-206.34
-190.18
-170.64
-148.31
-125.14
-103.47
-84.80
-68.83
-53.48
-35.66
-12.59
16.99
52.42
91.28
130.22
165.80
195.24
216.76
229.81
235.07
234.30
229.92
224.31
219.08
214.50
209.64
202.98
193.67
182.38
171.64
164.82
164.40
170.19
178.68
184.09
180.72
165.56
139.70
107.75
75.61
47.81
25.87
8.59
-6.31
-20.25
-32.80
-42.40
-47.79
-49.29
-48.72
-48.14
-48.13
-46.85
-40.61
-25.64
-0.33
33.54
71.11
106.14
133.41
150.40
157.90
159.14
158.28
158.88
163.03
171.10
181.92
192.79
199.51
196.83
179.57
144.44
91.99
27.46
-39.98
-99.91
-143.76
-167.31
-171.25
-159.71
-137.76
-109.11
-75.33
-36.73
5.76
49.14
88.30
117.61
133.30
135.27
127.30
115.53
105.88
101.87
103.81
109.47
115.68
119.86
120.68
117.77
110.84
99.15
81.50
57.08
26.39
-8.23
-42.83
-73.05
-95.63
-109.58
-116.37
-119.28
-121.77
-125.96
-131.62
-136.30
-136.42
-128.93
-112.81
-89.91
-64.60
-42.39
-27.96
-23.30
-26.98
-34.76
-41.36
-42.64
-37.03
-25.85
-12.39
-0.32
7.67
10.52
8.65
3.26
-4.53
-14.06
-25.14
-37.65
-51.12
-64.43
-76.07
-84.67
-89.65
-91.54
-91.76
-91.87
-92.61
-93.37
-92.28
-86.98
-75.79
-58.56
-36.87
-13.34
9.27
29.02
45.18
57.92
67.82
75.24
80.10
82.07
80.98
77.13
71.43
65.12
59.40
55.06
52.31
50.88
50.32
50.18
50.14
49.97
49.36
47.95
45.33
41.20
35.44
28.14
19.54
9.95
-0.26
-10.65
-20.77
-30.23
-38.89
-46.86
-54.46
-61.95
-69.14
-75.18
-78.54
-77.38
-70.05
-55.75
-34.77
-8.59
20.53
49.97
77.13
99.63
115.45
123.27
122.86
115.37
103.19
89.26
76.03
64.61
54.57
44.59
33.50
21.18
8.79
-1.86
-9.21
-12.55
-12.04
-8.12
-1.15
8.76
21.36
35.90
51.06
65.21
76.97
85.63
91.34
94.74
96.58
97.11
96.04
92.58
85.91
75.73
62.59
48.00
33.95
22.41
14.82
12.02
14.31
21.43
32.34
44.98
56.58
64.71
68.54
69.48
70.63
74.99
83.84
95.94
108.39
118.40
124.72
128.06
130.03
131.74
132.96
132.42
128.85
121.85
112.06
100.50
87.70
73.32
56.41
36.01
11.63
-16.59
-48.18
-82.71
-119.86
-159.21
-199.66
-239.12
-274.68
-303.28
-322.65
-332.11
-332.74
-326.92
-317.54
-307.05
-296.91
-287.29
-277.26
-265.29
-249.76
-229.56
-204.41
-174.94
-142.48
-108.87
-76.09
-45.99
-19.83
2.02
20.20
36.08
51.09
66.24
81.87
97.99
114.60
131.71
148.95
165.23
178.71
187.47
190.51
188.27
182.19
173.53
162.18
146.56
124.64
95.68
61.25
24.98
-9.06
-38.28
-62.69
-84.48
-106.64
-131.17
-157.91
-184.32
-206.26
-219.26
-219.84
-206.42
-179.79
-142.90
-100.17
-56.36
-15.43
20.23
49.85
73.81
92.77
107.03
116.37
120.44
119.41
114.38
107.26
100.09
94.10
89.15
83.64
75.41
62.75
45.40
24.82
3.74
-14.82
-28.50
-36.28
-38.28
-35.26
-27.97
-16.71
-1.49
17.52
39.39
62.40
84.34
103.20
117.79
127.70
132.98
133.54
129.00
118.93
103.41
83.24
59.67
33.79
6.02
-23.69
-54.94
-85.90
-112.96
-131.68
-138.61
-133.00
-117.54
-97.51
-78.83
-66.13
-61.54
-64.66
-73.48
-85.50
-98.64
-111.41
-122.76
-131.61
-136.74
-136.79
-130.73
-118.30
-100.30
-78.47
-55.04
-32.03
-10.62
8.93
26.92
43.53
58.25
69.84
76.77
78.06
73.85
65.50
55.12
44.85
36.21
29.80
25.42
22.45
20.22
18.23
16.21
14.03
11.62
8.95
6.02
2.84
-0.49
-3.91
-7.39
-11.00
-14.88
-19.26
-24.38
-30.36
-37.07
-43.98
-50.13
-54.25
-55.12
-51.96
-44.70
-34.17
-21.78
-9.15
2.36
11.87
19.04
23.88
26.52
27.12
25.92
23.33
19.95
16.56
13.83
12.23
11.89
12.62
14.02
15.61
16.87
17.44
17.05
15.65
13.33
10.35
6.97
3.42
-0.12
-3.59
-6.95
-10.30
-13.77
-17.65
-22.23
-27.62
-33.64
-39.57
-44.35
-46.73
-45.72
-40.89
-32.57
-21.77
-9.92
1.53
11.44
19.13
24.38
27.25
27.92
26.63
23.72
19.66
15.10
10.82
7.43
5.31
4.50
4.74
5.65
6.80
7.82
8.39
8.23
7.07
4.76
1.33
-3.03
-7.96
-13.04
-17.90
-22.39
-26.56
-30.71
-35.24
-40.52
-46.65
-53.24
-59.46
-64.06
-65.83
-63.91
-58.14
-49.10
-38.06
-26.57
-16.09
-7.64
-1.72
1.66
2.76
1.96
-0.30
-3.49
-6.91
-9.80
-11.46
-11.49
-10.01
-7.63
-5.22
-3.62
-3.28
-4.23
-6.14
-8.53
-10.97
-13.21
-15.10
-16.54
-17.44
-17.76
-17.58
-17.21
-17.08
-17.74
-19.66
-23.11
-28.13
-34.46
-41.52
-48.37
-53.77
-56.41
-55.23
-49.79
-40.57
-28.94
-16.75
-5.78
2.71
8.28
11.11
11.78
11.07
9.87
9.22
10.35
14.45
22.34
34.06
48.80
65.00
80.81
94.56
105.11
112.08
115.66
116.47
115.30
112.89
109.79
106.27
102.45
98.32
93.80
88.74
82.90
75.92
67.46
57.39
45.85
33.29
20.28
7.37
-5.02
-16.46
-26.36
-33.89
-38.09
-38.22
-34.13
-26.50
-16.67
-6.26
3.30
11.10
16.81
20.48
22.28
22.39
20.97
18.26
14.70
10.91
7.56
5.23
4.22
4.45
5.56
7.00
8.24
8.86
8.70
7.78
6.32
4.51
2.52
0.43
-1.80
-4.29
-7.10
-10.29
-13.79
-17.46
-21.12
-24.55
-27.64
-30.31
-32.62
-34.70
-36.86
-39.48
-42.93
-47.40
-52.62
-57.76
-61.52
-62.46
-59.48
-52.25
-41.32
-28.00
-13.90
-0.54
10.97
20.08
26.56
30.48
31.99
31.38
29.12
25.90
22.60
20.07
18.85
19.06
20.30
21.91
23.20
23.73
23.44
22.56
21.36
19.96
18.23
15.93
12.85
9.04
4.87
0.84
-2.61
-5.36
-7.64
-9.91
-12.59
-15.82
-19.34
-22.67
-25.27
-26.88
-27.52
-27.57
-27.57
-28.12
-29.71
-32.69
-37.06
-42.41
-47.83
-52.04
-53.67
-51.70
-45.77
-36.38
-24.70
-12.27
-0.59
9.23
16.54
21.21
23.44
23.67
22.45
20.37
17.95
15.69
13.93
12.90
12.68
13.16
14.09
15.08
15.78
15.94
15.44
14.31
12.61
10.38
7.55
4.08
-0.03
-4.63
-9.41
-13.98
-17.93
-20.97
-23.01
-24.12
-24.53
-24.46
-24.08
-23.33
-21.96
-19.60
-15.89
-10.70
-4.30
2.69
9.35
14.73
18.00
18.63
16.61
12.42
7.12
2.19
-0.82
-0.65
3.26
10.60
20.30
30.88
40.95
49.56
56.22
60.85
63.48
64.18
63.04
60.29
56.44
52.13
48.09
44.90
42.82
41.76
41.33
40.98
40.15
38.39
35.50
31.50
26.64
21.31
15.94
10.92
6.51
2.85
-0.01
-2.02
-3.07
-3.05
-1.88
0.29
3.09
5.86
7.85
8.44
7.35
4.69
0.86
-3.64
-8.40
-13.23
-18.09
-23.03
-28.15
-33.58
-39.44
-45.82
-52.57
-59.22
-64.93
-68.62
-69.40
-66.85
-61.34
-53.96
-46.20
-39.50
-34.84
-32.54
-32.22
-33.19
-34.70
-36.22
-37.47
-38.25
-38.27
-37.03
-33.93
-28.49
-20.68
-11.07
-0.64
9.48
18.46
26.03
32.45
38.15
43.45
48.28
52.24
54.88
55.93
55.55
54.29
52.79
51.58
50.87
50.49
50.08
49.23
47.64
45.17
41.80
37.60
32.63
27.05
21.04
14.85
8.71
2.77
-2.93
-8.47
-13.84
-18.83
-22.93
-25.40
-25.46
-22.67
-17.10
-9.46
-0.95
7.05
13.30
17.02
17.99
16.55
13.43
9.48
5.45
1.77
-1.39
-4.11
-6.45
-8.35
-9.64
-10.12
-9.77
-8.80
-7.59
-6.48
-5.60
-4.83
-3.94
-2.74
-1.25
0.36
1.83
3.01
3.94
4.76
5.64
6.70
8.00
9.47
10.94
12.14
12.70
12.33
10.94
8.74
6.17
3.80
2.03
0.95
0.33
-0.27
-1.20
-2.62
-4.38
-6.06
-7.11
-6.95
-5.14
-1.51
3.79
10.26
17.09
23.39
28.34
31.35
32.18
30.86
27.64
22.89
17.03
10.58
4.10
-1.77
-6.48
-9.68
-11.31
-11.63
-11.13
-10.34
-9.70
-9.46
-9.73
-10.49
-11.71
-13.28
-15.08
-16.96
-18.73
-20.21
-21.21
-21.59
-21.23
-20.13
-18.50
-16.72
-15.21
-14.28
-13.93
-13.85
-13.56
-12.72
-11.29
-9.61
-8.21
-7.58
-8.01
-9.54
-12.02
-15.22
-18.70
-21.83
-23.79
-23.71
-21.02
-15.64
-8.06
0.84
10.05
18.78
26.54
33.01
37.95
41.09
42.20
41.21
38.43
34.44
30.01
25.81
22.23
19.35
16.95
14.73
12.44
9.96
7.31
4.63
2.08
-0.22
-2.20
-3.88
-5.32
-6.64
-7.97
-9.47
-11.31
-13.62
-16.52
-20.01
-23.95
-28.07
-31.94
-35.09
-37.05
-37.56
-36.55
-34.32
-31.40
-28.49
-26.29
-25.33
-25.84
-27.64
-30.13
-32.39
-33.37
-32.09
-27.98
-21.05
-11.98
-1.92
7.82
16.18
22.63
27.19
30.20
32.08
33.07
33.22
32.52
31.09
29.26
27.49
26.17
25.53
25.58
26.17
27.10
28.19
29.21
29.93
30.01
29.14
27.15
24.09
20.28
16.27
12.69
10.09
8.82
8.95
10.32
12.62
15.57
18.91
22.45
26.07
29.61
32.89
35.81
38.34
40.54
42.51
44.22
45.55
46.32
46.46
46.25
46.36
47.65
50.89
56.49
64.25
73.42
82.92
91.55
98.18
101.79
101.58
96.97
87.71
74.05
56.70
36.84
15.86
-4.88
-24.17
-41.13
-55.17
-66.02
-73.74
-78.65
-81.32
-82.48
-82.84
-83.01
-83.34
-83.91
-84.57
-85.03
-84.94
-84.03
-82.19
-79.53
-76.32
-72.95
-69.74
-66.93
-64.65
-63.00
-62.19
-62.46
-64.01
-66.83
-70.56
-74.49
-77.63
-78.97
-77.67
-73.27
-65.75
-55.59
-43.62
-30.90
-18.58
-7.58
1.54
8.72
14.35
19.01
23.22
27.24
31.04
34.37
36.98
38.59
38.80
36.86
31.53
21.22
4.41
-19.62
-50.32
-85.54
-121.77
-154.68
-179.95
-194.28
-196.16
-186.33
-167.57
-143.85
-119.06
-95.90
-75.27
-56.43
-37.77
-17.61
5.16
30.98
59.63
90.33
121.73
151.96
178.93
200.85
216.81
226.88
231.56
231.09
224.97
212.21
192.23
165.78
135.17
103.57
73.68
46.76
22.55
0.03
-21.37
-41.18
-58.02
-70.51
-77.97
-80.72
-79.72
-76.06
-70.63
-64.27
-57.91
-52.51
-48.85
-47.08
-46.70
-46.79
-46.50
-45.33
-43.18
-40.10
-36.24
-31.81
-27.20
-22.91
-19.23
-15.93
-12.34
-7.78
-2.29
2.95
6.00
5.11
-0.18
-8.51
-17.11
-22.95
-24.01
-19.87
-11.48
-0.36
12.31
25.99
40.66
56.37
72.93
90.02
107.47
125.45
144.43
164.73
186.09
207.50
227.67
245.76
262.18
278.62
297.13
318.62
341.54
361.83
374.16
374.21
360.64
335.78
304.51
272.14
242.19
215.37
190.05
163.82
135.10
104.00
72.09
41.43
13.50
-11.48
-34.65
-57.96
-83.69
-113.72
-149.11
-189.53
-232.67
-274.01
-307.22
-325.62
-324.27
-302.02
-262.43
-212.91
-162.40
-118.37
-84.75
-61.28
-44.77
-31.16
-17.48
-2.83
11.71
24.06
32.43
36.40
37.54
39.04
44.37
55.57
71.85
89.47
102.97
107.42
100.27
81.97
55.21
23.32
-10.94
-45.69
-79.49
-110.62
-136.93
-156.59
-168.84
-174.62
-176.22
-176.40
-177.30
-179.80
-183.42
-186.69
-187.88
-185.72
-179.94
-171.34
-161.55
-152.25
-144.59
-138.71
-133.91
-129.03
-122.97
-115.08
-105.25
-93.95
-82.01
-70.56
-60.69
-53.19
-48.20
-45.02
-42.40
-39.00
-33.98
-27.37
-19.98
-12.85
-6.76
-1.82
2.49
7.04
12.75
20.27
29.97
41.85
55.43
69.67
82.94
93.31
98.98
98.86
92.88
82.07
68.16
53.08
38.52
25.54
14.59
5.58
-1.87
-8.19
-13.70
-18.56
-22.89
-26.79
-30.46
-34.09
-37.77
-41.42
-44.80
-47.66
-49.81
-51.28
-52.12
-52.40
-52.10
-51.07
-49.11
-46.09
-42.03
-37.15
-31.93
-27.06
-23.31
-21.26
-21.06
-22.34
-24.32
-26.13
-27.25
-27.66
-27.76
-28.12
-29.05
-30.54
-32.28
-33.92
-35.32
-36.63
-38.26
-40.68
-44.21
-48.80
-53.93
-58.76
-62.44
-64.53
-65.31
-65.76
-67.07
-70.09
-74.81
-80.37
-85.46
-88.94
-90.41
-90.27
-89.40
-88.70
-88.68
-89.31
-90.03
-89.90
-87.69
-82.00
-71.54
-55.55
-34.36
-9.79
14.95
36.09
50.47
56.65
55.26
48.45
38.77
28.00
16.64
4.23
-9.87
-25.83
-43.11
-61.06
-79.47
-98.86
-120.12
-143.66
-168.72
-192.98
-212.84
-224.16
-223.38
-208.60
-180.52
-142.65
-100.70
-60.99
-28.39
-4.94
10.52
20.97
29.24
36.08
39.84
37.48
26.66
7.41
-17.39
-42.84
-63.37
-74.13
-71.70
-54.53
-23.09
19.88
69.70
120.44
166.50
204.11
232.24
252.51
268.25
283.15
300.21
321.09
345.74
372.32
397.44
416.92
427.00
425.32
411.47
386.46
351.85
309.05
259.61
205.94
151.84
102.05
60.81
30.11
8.91
-6.16
-19.03
-32.18
-45.84
-58.49
-68.26
-74.29
-77.25
-78.72
-80.05
-81.35
-81.23
-77.44
-67.92
-51.87
-30.19
-5.13
20.62
44.68
65.26
80.85
89.84
90.68
82.61
66.56
45.54
23.83
5.37
-7.95
-17.08
-25.32
-36.70
-54.16
-78.51
-108.48
-141.77
-176.00
-209.02
-238.26
-260.21
-270.43
-264.73
-240.99
-200.72
-149.34
-94.82
-45.33
-6.77
18.56
31.75
36.02
35.03
31.67
27.75
24.18
21.31
19.27
18.02
17.46
17.43
17.67
17.89
17.78
17.25
16.40
15.57
15.22
15.70
16.99
18.68
20.05
20.39
19.27
16.77
13.43
10.07
7.49
6.17
6.11
6.76
7.12
5.92
1.96
-5.53
-16.56
-30.44
-45.96
-61.80
-76.81
-90.01
-100.37
-106.57
-107.15
-100.94
-87.95
-69.76
-49.52
-30.94
-17.14
-9.48
-7.31
-8.50
-10.53
-11.51
-10.63
-8.06
-4.42
-0.23
4.27
9.15
14.56
20.55
26.93
33.25
38.86
42.91
44.57
43.10
38.16
29.93
19.24
7.42
-3.82
-12.80
-18.22
-19.50
-16.93
-11.64
-5.28
0.44
4.17
5.26
3.81
0.61
-3.21
-6.52
-8.52
-8.87
-7.75
-5.61
-3.05
-0.60
1.27
2.20
1.98
0.59
-1.68
-4.25
-6.41
-7.49
-7.11
-5.30
-2.45
0.86
4.08
6.85
9.07
10.77
12.05
12.96
13.45
13.47
13.01
12.18
11.17
10.19
9.39
8.83
8.57
8.68
9.33
10.67
12.67
15.10
17.52
19.56
21.08
22.28
23.53
25.17
27.24
29.48
31.39
32.54
32.70
31.84
30.03
27.36
23.90
19.81
15.41
11.05
7.06
3.59
0.55
-2.27
-5.09
-8.01
-10.99
-13.90
-16.59
-18.87
-20.55
-21.42
-21.32
-20.25
-18.37
-16.05
-13.70
-11.70
-10.31
-9.59
-9.51
-9.97
-10.86
-12.14
-13.74
-15.62
-17.74
-20.07
-22.62
-25.45
-28.60
-32.12
-36.01
-40.22
-44.61
-48.98
-53.02
-56.27
-58.27
-58.60
-57.07
-53.74
-48.94
-43.04
-36.38
-29.24
-21.90
-14.83
-8.62
-3.82
-0.64
1.20
2.41
3.84
6.07
9.17
12.79
16.44
19.80
22.91
25.97
29.16
32.35
35.02
36.52
36.24
33.97
29.96
24.80
19.20
13.76
8.84
4.58
1.04
-1.73
-3.69
-4.95
-5.78
-6.62
-7.91
-9.82
-12.10
-14.09
-14.96
-14.04
-11.14
-6.60
-1.17
4.26
8.99
12.66
15.25
16.93
17.92
18.35
18.24
17.71
16.95
16.34
16.27
17.01
18.60
20.91
23.68
26.76
30.16
34.05
38.50
43.35
48.08
51.81
53.72
53.28
50.55
46.19
41.19
36.50
32.70
29.93
27.97
26.38
24.66
22.24
18.61
13.35
6.44
-1.69
-10.10
-17.71
-23.64
-27.56
-29.72
-30.69
-31.01
-30.98
-30.61
-29.79
-28.51
-26.93
-25.30
-23.82
-22.56
-21.44
-20.40
-19.52
-19.05
-19.40
-20.94
-23.81
-27.82
-32.46
-37.05
-40.93
-43.63
-44.92
-44.83
-43.55
-41.37
-38.56
-35.39
-32.02
-28.50
-24.80
-20.97
-17.19
-13.80
-11.21
-9.69
-9.22
-9.46
-9.94
-10.26
-10.23
-9.87
-9.29
-8.48
-7.34
-5.69
-3.44
-0.66
2.52
5.95
9.58
13.40
17.35
21.18
24.48
26.82
27.95
27.91
26.99
25.61
24.13
22.75
21.56
20.60
19.92
19.62
19.72
20.15
20.71
21.08
21.05
20.51
19.51
18.18
16.64
14.98
13.19
11.31
9.34
7.34
5.35
3.40
1.48
-0.47
-2.53
-4.81
-7.48
-10.83
-15.11
-20.47
-26.72
-33.26
-39.09
-42.96
-43.71
-40.54
-33.14
-21.77
-7.15
9.65
27.33
44.50
59.77
71.98
80.39
84.78
85.48
83.19
78.77
73.04
66.62
59.83
52.73
45.22
37.21
28.80
20.29
12.16
4.94
-0.91
-5.14
-7.66
-8.50
-7.80
-5.82
-3.01
-0.05
2.28
3.25
2.45
-0.05
-3.74
-7.86
-11.60
-14.41
-16.10
-16.89
-17.23
-17.71
-18.78
-20.59
-22.97
-25.39
-27.14
-27.57
-26.35
-23.61
-19.89
-15.97
-12.50
-9.87
-8.07
-6.81
-5.68
-4.32
-2.43
0.09
3.20
6.60
9.81
12.35
13.78
13.94
13.01
11.39
9.54
7.83
6.43
5.32
4.38
3.51
2.66
1.87
1.22
0.77
0.61
0.72
1.05
1.47
1.86
2.11
2.26
2.40
2.64
3.06
3.60
4.12
4.40
4.30
3.77
2.91
1.94
1.18
0.99
1.67
3.35
5.82
8.49
10.48
10.88
9.14
5.34
0.18
-5.30
-10.08
-13.55
-15.65
-16.74
-17.33
-17.74
-17.99
-17.88
-17.18
-15.90
-14.34
-12.92
-11.98
-11.56
-11.36
-10.96
-10.09
-8.85
-7.62
-6.90
-6.94
-7.63
-8.52
-9.07
-8.94
-8.15
-7.07
-6.16
-5.79
-6.03
-6.71
-7.57
-8.42
-9.33
-10.52
-12.26
-14.66
-17.57
-20.53
-22.99
-24.41
-24.47
-23.18
-20.77
-17.63
-14.18
-10.82
-7.78
-5.20
-3.16
-1.70
-0.89
-0.75
-1.18
-1.94
-2.58
-2.61
-1.68
0.25
2.91
5.81
8.51
10.77
12.66
14.43
16.31
18.30
20.26
21.94
23.15
23.90
24.29
24.45
24.45
24.29
23.96
23.49
22.96
22.39
21.78
20.99
19.82
18.07
15.59
12.46
8.96
5.61
3.02
1.74
2.08
4.00
7.14
10.96
14.87
18.43
21.41
23.73
25.44
26.62
27.31
27.51
27.15
26.13
24.35
21.85
18.78
15.38
11.93
8.60
5.54
2.88
0.76
-0.63
-1.16
-0.83
0.13
1.32
2.27
2.63
2.22
1.11
-0.46
-2.13
-3.52
-4.37
-4.51
-4.03
-3.24
-2.67
-2.95
-4.72
-8.35
-13.85
-20.78
-28.25
-35.19
-40.64
-44.07
-45.56
-45.69
-45.23
-44.74
-44.34
-43.66
-42.11
-39.16
-34.62
-28.74
-22.14
-15.66
-10.05
-5.83
-3.10
-1.56
-0.67
0.11
1.17
2.59
4.25
5.95
7.50
8.77
9.58
9.75
9.06
7.47
5.16
2.57
0.21
-1.60
-2.76
-3.47
-3.99
-4.51
-5.07
-5.57
-5.89
-5.95
-5.75
-5.36
-4.91
-4.57
-4.56
-5.01
-5.92
-7.04
-7.93
-8.13
-7.28
-5.35
-2.59
0.56
3.70
6.50
8.79
10.47
11.46
11.71
11.30
10.48
9.64
9.15
9.24
9.86
10.79
11.71
12.37
12.69
12.74
12.70
12.78
13.13
13.77
14.66
15.62
16.44
16.98
17.16
17.12
17.07
17.28
17.86
18.77
19.74
20.36
20.26
19.25
17.32
14.60
11.31
7.56
3.42
-1.03
-5.59
-9.88
-13.48
-16.06
-17.54
-18.06
-17.91
-17.30
-16.48
-15.63
-14.96
-14.65
-14.62
-14.54
-13.87
-12.10
-8.99
-4.74
0.13
4.99
9.27
12.63
14.95
16.25
16.68
16.53
16.15
15.91
16.04
16.54
17.18
17.68
17.78
17.35
16.41
15.06
13.43
11.71
10.12
8.92
8.34
8.51
9.33
10.48
11.43
11.45
9.87
6.18
0.32
-7.27
-15.65
-23.65
-30.14
-34.31
-35.89
-35.11
-32.53
-28.86
-24.72
-20.53
-16.55
-12.97
-9.93
-7.56
-5.96
-5.10
-4.77
-4.62
-4.27
-3.39
-1.82
0.34
2.81
5.26
7.38
9.00
10.13
10.83
11.19
11.29
11.19
10.95
10.64
10.25
9.70
8.86
7.62
5.98
4.09
2.18
0.46
-1.00
-2.28
-3.57
-4.98
-6.56
-8.30
-10.17
-12.18
-14.31
-16.41
-18.14
-19.02
-18.60
-16.66
-13.28
-8.82
-3.73
1.54
6.68
11.48
15.78
19.47
22.46
24.76
26.45
27.73
28.88
30.15
31.74
33.70
35.89
37.98
39.53
40.17
39.74
38.43
36.63
34.81
33.31
32.22
31.42
30.71
29.95
29.20
28.61
28.30
28.27
28.34
28.21
27.61
26.42
24.62
22.25
19.23
15.38
10.55
4.78
-1.49
-7.50
-12.42
-15.71
-17.29
-17.56
-17.11
-16.37
-15.42
-14.08
-12.19
-9.88
-7.68
-6.28
-6.16
-7.32
-9.18
-10.80
-11.34
-10.34
-7.86
-4.37
-0.40
3.64
7.52
11.08
14.10
16.34
17.62
18.06
18.13
18.54
19.91
22.52
26.19
30.30
34.09
36.90
38.30
38.09
36.37
33.38
29.56
25.46
21.60
18.40
16.03
14.27
12.65
10.59
7.63
3.68
-0.83
-5.10
-8.19
-9.39
-8.51
-5.94
-2.51
0.82
3.24
4.32
3.92
2.16
-0.75
-4.58
-9.03
-13.71
-18.11
-21.68
-23.92
-24.57
-23.66
-21.54
-18.82
-16.10
-13.89
-12.43
-11.69
-11.48
-11.55
-11.66
-11.64
-11.43
-11.01
-10.44
-9.85
-9.39
-9.26
-9.61
-10.49
-11.83
-13.49
-15.25
-16.95
-18.50
-19.88
-21.11
-22.21
-23.23
-24.19
-25.13
-26.11
-27.12
-28.09
-28.83
-29.15
-28.90
-28.10
-26.97
-25.82
-24.93
-24.40
-24.15
-24.00
-23.78
-23.47
-23.13
-22.81
-22.47
-22.02
-21.43
-20.82
-20.46
-20.62
-21.30
-22.15
-22.65
-22.27
-20.81
-18.53
-15.92
-13.52
-11.61
-10.20
-9.14
-8.26
-7.51
-6.91
-6.52
-6.35
-6.39
-6.65
-7.17
-8.02
-9.19
-10.62
-12.22
-13.94
-15.84
-17.99
-20.38
-22.81
-24.86
-26.03
-25.94
-24.53
-22.05
-18.98
-15.81
-12.90
-10.31
-7.94
-5.54
-3.03
-0.47
1.86
3.63
4.62
4.85
4.66
4.46
4.63
5.20
5.96
6.56
6.76
6.59
6.33
6.30
6.65
7.27
7.81
7.93
7.47
6.56
5.49
4.59
4.00
3.63
3.27
2.65
1.66
0.28
-1.35
-3.13
-4.98
-6.80
-8.37
-9.34
-9.22
-7.53
-4.04
1.19
7.82
15.30
23.08
30.61
37.38
42.79
46.18
46.86
44.28
38.25
29.26
18.51
7.82
-0.70
-5.31
-5.18
-0.69
6.66
14.85
22.02
27.02
29.58
30.08
29.17
27.41
25.19
22.82
20.64
19.02
18.20
18.13
18.39
18.31
17.24
14.86
11.26
6.94
2.54
-1.42
-4.70
-7.35
-9.50
-11.14
-11.97
-11.49
-9.27
-5.29
-0.05
5.50
10.35
13.84
15.80
16.60
16.71
16.51
16.07
15.25
13.87
12.04
10.08
8.43
7.40
7.01
6.98
6.91
6.47
5.54
4.23
2.80
1.43
0.20
-1.04
-2.58
-4.68
-7.56
-11.30
-15.78
-20.77
-25.99
-31.13
-35.95
-40.21
-43.77
-46.47
-48.26
-49.16
-49.27
-48.78
-47.90
-46.80
-45.46
-43.76
-41.42
-38.22
-34.01
-28.91
-23.19
-17.18
-11.19
-5.43
-0.06
4.75
8.82
11.91
13.87
14.72
14.64
13.91
12.83
11.68
10.68
10.03
9.88
10.28
11.08
12.01
12.69
12.84
12.33
11.26
9.83
8.26
6.70
5.17
3.67
2.17
0.70
-0.73
-2.07
-3.32
-4.50
-5.65
-6.84
-8.11
-9.53
-11.12
-12.87
-14.65
-16.19
-17.14
-17.11
-15.83
-13.19
-9.33
-4.58
0.60
5.75
10.51
14.63
18.00
20.54
22.25
23.12
23.24
22.73
21.81
20.72
19.67
18.79
18.10
17.57
17.14
16.75
16.41
16.08
15.69
15.10
14.14
12.74
10.92
8.88
6.89
5.19
3.92
3.06
2.39
1.65
0.51
-1.14
-3.30
-5.72
-8.13
-10.32
-12.28
-14.22
-16.37
-18.92
-21.79
-24.57
-26.66
-27.39
-26.33
-23.39
-18.86
-13.27
-7.26
-1.36
4.08
8.85
12.82
15.84
17.77
18.50
18.16
17.08
15.83
14.95
14.79
15.35
16.31
17.19
17.57
17.25
16.32
15.08
13.89
12.99
12.44
12.08
11.67
10.97
9.87
8.43
6.87
5.42
4.21
3.23
2.29
1.19
-0.21
-1.89
-3.73
-5.51
-7.07
-8.30
-9.18
-9.80
-10.37
-11.17
-12.51
-14.54
-17.15
-19.89
-22.15
-23.26
-22.74
-20.44
-16.55
-11.49
-5.86
-0.29
4.61
8.35
10.68
11.58
11.34
10.46
9.44
8.69
8.36
8.46
8.87
9.44
10.11
10.83
11.55
12.22
12.77
13.15
13.32
13.26
12.93
12.31
11.38
10.17
8.72
7.09
5.32
3.41
1.32
-0.93
-3.31
-5.68
-7.87
-9.75
-11.18
-12.20
-12.91
-13.57
-14.48
-15.92
-18.03
-20.64
-23.28
-25.23
-25.73
-24.23
-20.65
-15.39
-9.21
-2.95
2.74
7.50
11.20
13.83
15.35
15.72
14.97
13.33
11.25
9.25
7.79
7.07
7.01
7.35
7.78
8.06
8.12
8.01
7.79
7.47
6.98
6.21
5.09
3.67
2.05
0.33
-1.47
-3.44
-5.73
-8.33
-11.09
-13.69
-15.81
-17.24
-18.06
-18.51
-18.93
-19.56
-20.52
-21.83
-23.39
-25.03
-26.40
-27.04
-26.34
-23.81
-19.25
-12.94
-5.58
1.87
8.51
13.77
17.47
19.78
20.96
21.30
20.95
20.08
18.88
17.65
16.67
16.16
16.14
16.50
17.04
17.63
18.16
18.58
18.80
18.64
17.92
16.50
14.42
11.94
9.41
7.17
5.42
4.16
3.25
2.47
1.59
0.48
-0.84
-2.26
-3.65
-4.90
-5.97
-6.90
-7.79
-8.73
-9.84
-11.23
-12.96
-14.96
-16.97
-18.53
-19.05
-18.05
-15.38
-11.25
-6.19
-0.88
4.05
8.17
11.22
13.16
14.09
14.22
13.85
13.24
12.60
12.04
11.55
11.19
11.03
11.22
11.87
12.96
14.33
15.73
16.93
17.76
18.17
18.15
17.72
16.91
15.83
14.67
13.63
12.91
12.60
12.66
12.95
13.32
13.57
13.58
13.27
12.59
11.49
9.87
7.65
4.77
1.31
-2.46
-6.00
-8.65
-9.80
-9.15
-6.86
-3.52
0.10
3.28
5.61
7.03
7.68
7.73
7.32
6.45
5.12
3.37
1.33
-0.85
-2.98
-4.94
-6.63
-8.01
-9.11
-10.00
-10.78
-11.52
-12.21
-12.84
-13.36
-13.81
-14.33
-15.13
-16.35
-18.00
-19.91
-21.86
-23.61
-25.06
-26.22
-27.19
-28.13
-29.18
-30.51
-32.23
-34.34
-36.71
-38.97
-40.63
-41.17
-40.21
-37.60
-33.39
-27.82
-21.21
-13.97
-6.60
0.28
6.05
10.23
12.59
13.29
12.78
11.69
10.64
10.10
10.28
11.20
12.68
14.46
16.21
17.57
18.31
18.28
17.54
16.32
14.90
13.58
12.55
11.86
11.40
11.04
10.60
9.90
8.79
7.16
5.02
2.44
-0.33
-3.01
-5.39
-7.46
-9.40
-11.48
-13.91
-16.64
-19.34
-21.46
-22.45
-21.92
-19.82
-16.33
-11.88
-6.94
-1.87
2.99
7.41
11.15
13.99
15.77
16.45
16.16
15.19
13.98
12.94
12.42
12.56
13.32
14.49
15.76
16.88
17.69
18.17
18.36
18.28
17.87
17.12
16.04
14.85
13.84
13.32
13.34
13.70
14.03
13.98
13.41
12.48
11.54
10.97
10.93
11.35
11.93
12.27
12.00
10.97
9.27
7.31
5.75
5.27
6.36
9.05
12.85
16.82
19.96
21.53
21.39
19.99
18.14
16.67
16.01
16.14
16.67
17.11
17.09
16.53
15.56
14.33
12.90
11.27
9.41
7.33
5.19
3.14
1.30
-0.36
-1.97
-3.67
-5.52
-7.52
-9.61
-11.80
-14.15
-16.67
-19.34
-21.96
-24.32
-26.25
-27.76
-29.01
-30.25
-31.69
-33.46
-35.59
-37.99
-40.52
-43.00
-45.11
-46.45
-46.60
-45.33
-42.76
-39.35
-35.82
-32.79
-30.48
-28.58
-26.36
-22.90
-17.58
-10.31
-1.53
7.93
17.27
25.93
33.69
40.52
46.34
50.88
53.67
54.28
52.50
48.48
42.65
35.50
27.36
18.38
8.68
-1.31
-10.69
-18.20
-22.63
-23.25
-20.14
-14.02
-5.96
2.95
11.87
20.01
26.54
30.57
31.30
28.39
22.30
14.33
6.51
1.08
-0.12
3.77
12.20
23.18
33.74
40.96
42.96
39.64
32.71
24.90
18.88
16.34
17.64
22.08
28.44
35.37
41.58
45.82
46.97
44.31
37.87
28.64
18.39
9.12
2.39
-1.14
-1.80
-0.73
0.63
0.90
-0.86
-4.99
-11.10
-18.23
-25.04
-30.27
-33.11
-33.37
-31.45
-28.07
-23.95
-19.73
-15.85
-12.60
-10.01
-7.75
-5.05
-0.94
5.20
13.14
21.50
28.07
30.52
27.32
18.41
5.18
-10.07
-25.04
-38.10
-48.60
-56.74
-63.04
-68.00
-71.79
-74.30
-75.29
-74.61
-72.33
-68.76
-64.33
-59.44
-54.43
-49.52
-44.90
-40.75
-37.32
-34.80
-33.32
-32.80
-32.97
-33.40
-33.67
-33.46
-32.75
-31.78
-30.87
-30.23
-29.65
-28.59
-26.35
-22.47
-16.99
-10.68
-4.69
-0.11
2.48
3.28
3.10
3.00
3.74
5.61
8.36
11.52
14.65
17.55
20.23
22.77
25.17
27.28
28.90
29.83
30.03
29.68
29.08
28.60
28.46
28.68
28.97
28.84
27.76
25.38
21.72
17.19
12.51
8.39
5.32
3.40
2.42
1.97
1.65
1.19
0.41
-0.82
-2.54
-4.70
-7.06
-9.21
-10.69
-11.18
-10.69
-9.57
-8.40
-7.79
-8.16
-9.59
-11.81
-14.26
-16.20
-16.99
-16.18
-13.74
-10.10
-5.98
-2.18
0.71
2.51
3.44
3.93
4.38
5.01
5.79
6.58
7.22
7.65
7.90
8.04
8.07
7.95
7.65
7.18
6.69
6.40
6.44
6.80
7.29
7.62
7.51
6.84
5.62
4.02
2.20
0.28
-1.70
-3.74
-5.84
-7.92
-9.79
-11.24
-12.07
-12.20
-11.76
-11.06
-10.53
-10.62
-11.61
-13.45
-15.74
-17.76
-18.67
-17.79
-14.83
-10.06
-4.20
1.89
7.44
12.08
15.83
18.92
21.50
23.57
24.97
25.54
25.28
24.42
23.30
22.22
21.38
20.80
20.43
20.23
20.18
20.26
20.44
20.65
20.80
20.79
20.49
19.78
18.58
16.95
15.02
13.09
11.42
10.13
9.10
8.10
6.90
5.38
3.65
1.96
0.55
-0.45
-1.11
-1.65
-2.35
-3.42
-5.01
-7.19
-10.01
-13.42
-17.20
-20.93
-23.98
-25.65
-25.47
-23.32
-19.59
-14.94
-10.13
-5.73
-1.99
1.03
3.36
4.97
5.78
5.76
5.02
3.83
2.57
1.59
1.06
0.97
1.19
1.51
1.83
2.13
2.45
2.91
3.47
4.08
4.56
4.74
4.55
4.04
3.40
2.88
2.65
2.72
2.87
2.86
2.43
1.51
0.23
-1.14
-2.33
-3.14
-3.55
-3.68
-3.74
-4.03
-4.75
-5.92
-7.32
-8.49
-8.91
-8.19
-6.26
-3.38
-0.03
3.36
6.54
9.48
12.28
14.89
17.09
18.54
18.91
18.06
16.18
13.67
11.00
8.63
6.84
5.70
5.08
4.77
4.50
4.11
3.57
3.00
2.62
2.59
3.01
3.79
4.72
5.57
6.14
6.34
6.25
6.10
6.21
6.94
8.51
10.85
13.41
15.17
14.85
11.26
3.80
-7.11
-19.93
-32.21
-41.23
-44.80
-41.90
-32.98
-19.83
-5.04
8.66
18.95
24.44
24.85
21.02
14.61
7.62
1.86
-1.58
-2.49
-1.49
0.42
2.29
3.56
4.08
4.00
3.58
3.03
2.59
2.43
2.77
3.73
5.24
7.06
8.73
9.78
9.88
9.04
7.55
5.84
4.36
3.24
2.35
1.41
0.15
-1.53
-3.44
-5.34
-6.96
-8.20
-9.11
-9.79
-10.51
-11.53
-13.14
-15.50
-18.49
-21.60
-24.06
-25.08
-24.09
-21.10
-16.55
-11.17
-5.72
-0.68
3.72
7.46
10.58
13.12
15.08
16.47
17.36
17.84
18.11
18.33
18.68
19.29
20.16
21.21
22.24
23.08
23.53
23.51
22.91
21.79
20.24
18.46
16.69
15.18
14.07
13.30
12.67
11.83
10.52
8.57
6.00
2.98
-0.23
-3.39
-6.28
-8.83
-11.12
-13.42
-16.04
-19.16
-22.66
-26.05
-28.62
-29.75
-29.15
-27.08
-24.15
-21.11
-18.54
-16.65
-15.43
-14.75
-14.50
-14.61
-14.99
-15.38
-15.50
-15.09
-14.04
-12.49
-10.67
-8.78
-6.95
-5.23
-3.62
-2.19
-0.95
0.13
1.18
2.34
3.65
4.91
5.77
5.83
4.96
3.33
1.43
-0.19
-1.19
-1.56
-1.63
-1.85
-2.58
-3.95
-5.81
-7.79
-9.51
-10.57
-10.73
-9.89
-8.07
-5.44
-2.27
1.14
4.51
7.59
10.28
12.50
14.22
15.47
16.30
16.75
16.94
16.98
16.92
16.86
16.87
17.06
17.46
18.04
18.64
19.04
19.04
18.58
17.75
16.70
15.50
14.18
12.62
10.83
8.90
7.04
5.48
4.36
3.57
2.89
2.06
0.85
-0.83
-2.98
-5.52
-8.33
-11.22
-13.99
-16.42
-18.26
-19.41
-19.81
-19.52
-18.65
-17.30
-15.52
-13.32
-10.79
-8.12
-5.64
-3.72
-2.66
-2.48
-2.87
-3.33
-3.29
-2.37
-0.54
1.93
4.59
6.94
8.64
9.57
9.80
9.57
9.08
8.48
7.75
6.80
5.49
3.83
1.97
0.17
-1.38
-2.60
-3.58
-4.49
-5.50
-6.76
-8.35
-10.34
-12.71
-15.28
-17.69
-19.44
-20.02
-19.13
-16.81
-13.47
-9.63
-5.85
-2.45
0.41
2.76
4.64
6.11
7.18
7.78
7.96
7.79
7.47
7.24
7.29
7.65
8.18
8.63
8.74
8.40
7.63
6.61
5.54
4.60
3.82
3.14
2.40
1.40
0.09
-1.52
-3.28
-5.02
-6.59
-7.92
-9.07
-10.15
-11.27
-12.56
-14.13
-16.07
-18.38
-20.92
-23.30
-25.01
-25.47
-24.32
-21.62
-17.79
-13.52
-9.50
-6.16
-3.65
-1.86
-0.63
0.08
0.20
-0.35
-1.50
-2.96
-4.32
-5.19
-5.43
-5.23
-4.98
-5.12
-5.91
-7.37
-9.32
-11.47
-13.53
-15.32
-16.74
-17.81
-18.60
-19.22
-19.77
-20.33
-20.94
-21.63
-22.32
-22.90
-23.17
-22.96
-22.22
-21.15
-20.18
-19.81
-20.32
-21.52
-22.68
-22.79
-20.95
-16.79
-10.60
-3.19
4.50
11.76
18.24
23.94
28.85
32.84
35.63
37.00
37.03
36.15
35.04
34.25
34.04
34.24
34.44
34.24
33.48
32.21
30.62
28.87
26.94
24.76
22.27
19.49
16.57
13.71
11.09
8.79
6.82
5.07
3.34
1.43
-0.81
-3.33
-5.92
-8.22
-9.95
-10.99
-11.45
-11.62
-11.81
-12.34
-13.44
-15.30
-17.96
-21.29
-24.87
-28.02
-29.93
-30.01
-28.07
-24.43
-19.80
-14.99
-10.68
-7.23
-4.70
-3.01
-2.03
-1.69
-1.88
-2.50
-3.31
-4.03
-4.36
-4.08
-3.15
-1.64
0.20
2.11
3.84
5.25
6.26
6.93
7.42
7.91
8.63
9.66
10.95
12.25
13.31
13.89
13.94
13.58
12.96
12.08
10.80
8.84
6.06
2.56
-1.28
-4.99
-8.23
-10.99
-13.46
-15.82
-18.03
-19.78
-20.62
-20.22
-18.45
-15.45
-11.55
-7.08
-2.39
2.17
6.22
9.37
11.38
12.17
11.94
11.10
10.25
10.07
11.27
14.41
19.70
26.84
34.98
42.83
49.13
52.89
53.69
51.71
47.50
41.74
35.10
28.12
21.29
15.06
9.78
5.67
2.74
0.77
-0.60
-1.76
-3.03
-4.55
-6.26
-7.98
-9.58
-11.12
-12.95
-15.63
-19.65
-25.10
-31.45
-37.62
-42.26
-44.23
-43.05
-38.94
-32.73
-25.51
-18.27
-11.71
-6.21
-1.87
1.36
3.64
5.17
6.21
7.05
8.01
9.37
11.37
14.05
17.25
20.61
23.72
26.25
28.09
29.40
30.44
31.43
32.37
33.04
33.09
32.25
30.39
27.61
24.18
20.44
16.71
13.23
10.17
7.53
5.21
2.98
0.57
-2.34
-5.94
-10.22
-14.89
-19.41
-23.05
-25.17
-25.40
-23.70
-20.50
-16.49
-12.47
-9.12
-6.80
-5.58
-5.20
-5.30
-5.55
-5.72
-5.77
-5.75
-5.72
-5.66
-5.48
-5.05
-4.29
-3.25
-2.11
-1.14
-0.52
-0.35
-0.56
-1.05
-1.73
-2.62
-3.77
-5.19
-6.82
-8.48
-9.96
-11.06
-11.79
-12.28
-12.75
-13.36
-14.17
-15.08
-16.05
-17.13
-18.53
-20.50
-23.01
-25.70
-27.77
-28.34
-26.76
-22.98
-17.54
-11.44
-5.63
-0.76
2.99
5.81
7.92
9.46
10.33
10.34
9.41
7.62
5.39
3.21
1.58
0.79
0.80
1.29
1.85
2.12
1.98
1.54
1.06
0.77
0.74
0.82
0.73
0.16
-0.99
-2.62
-4.41
-5.95
-6.89
-7.13
-6.81
-6.36
-6.30
-7.17
-9.31
-12.76
-17.19
-21.83
-25.58
-27.29
-26.05
-21.54
-14.16
-4.97
4.71
13.67
21.13
26.89
31.11
34.10
36.18
37.51
38.14
38.08
