1707122920.00
64.000000
-0.00
-0.00
-0.00
-0.00
-0.00
-0.00
-0.00
-0.00
-0.00
-0.00
0.00
0.01
0.01
-0.00
-0.03
-0.05
-0.05
0.00
0.13
0.36
0.66
1.01
1.37
1.72
2.06
2.40
2.79
3.24
3.80
4.42
5.06
5.66
6.20
6.68
7.15
7.68
8.31
9.14
10.09
11.04
11.88
12.56
13.14
13.76
14.65
15.96
17.91
20.32
22.90
25.38
27.58
29.57
31.68
34.32
37.81
42.54
48.15
54.10
59.83
64.97
69.58
74.14
79.34
85.71
93.76
103.00
112.62
121.73
129.77
136.75
143.30
150.75
157.77
166.64
177.95
191.79
206.97
220.57
228.25
225.36
208.53
176.87
132.76
80.05
23.07
-34.94
-92.44
-149.16
-205.23
-260.37
-313.74
-363.87
-409.83
-450.90
-486.48
-515.71
-537.18
-549.14
-549.86
-538.22
-514.02
-478.44
-433.59
-382.11
-326.62
-269.38
-212.10
-156.06
-102.28
-51.63
-5.09
36.47
72.40
102.42
126.66
145.65
160.08
170.66
178.02
182.56
184.56
184.25
181.90
177.88
172.57
166.40
159.70
152.73
145.63
138.48
131.30
124.16
117.10
110.21
103.55
97.17
91.12
85.40
80.02
75.00
70.35
66.07
62.18
58.66
55.53
52.78
50.40
48.42
46.80
45.55
44.63
44.00
43.59
43.27
42.91
42.35
41.39
39.87
37.65
34.62
30.76
26.10
20.70
14.75
8.47
2.12
-4.04
-9.73
-14.75
-18.92
-22.13
-24.35
-25.60
-25.94
-25.51
-24.44
-22.89
-20.98
-18.84
-16.55
-14.19
-11.77
-9.34
-6.92
-4.51
-2.12
0.28
2.69
5.15
7.67
10.31
13.05
15.86
18.77
21.79
24.93
28.22
31.68
35.37
39.32
43.43
47.66
51.95
56.30
60.71
65.20
69.83
74.65
79.80
85.13
90.59
96.13
101.74
107.41
113.14
118.91
124.76
130.72
136.50
141.85
146.57
150.39
153.06
154.19
153.30
149.68
144.69
138.81
132.36
125.55
118.54
111.46
104.39
97.47
90.79
84.54
78.56
72.78
67.19
61.78
56.60
51.68
47.09
42.88
39.15
35.76
32.60
29.60
26.73
23.94
21.22
18.60
16.11
13.82
11.65
9.58
7.60
5.73
4.00
2.43
1.05
-0.12
-1.02
-1.71
-2.21
-2.56
-2.77
-2.89
-2.92
-2.92
-2.88
-2.82
-2.78
-2.80
-2.90
-3.12
-3.48
-3.96
-4.56
-5.24
-5.94
-6.62
-7.27
-7.90
-8.53
-9.21
-9.95
-10.76
-11.58
-12.37
-13.08
-13.69
-14.22
-14.76
-15.38
-16.14
-17.02
-17.95
-18.82
-19.55
-20.12
-20.68
-21.43
-22.62
-24.40
-26.77
-29.57
-32.54
-35.45
-38.29
-41.25
-44.71
-49.11
-54.68
-61.34
-68.69
-76.12
-83.18
-89.69
-95.98
-102.72
-110.64
-120.24
-131.49
-143.91
-156.70
-169.20
-181.11
-192.64
-204.43
-217.44
-232.75
-251.39
-273.86
-299.61
-326.61
-351.30
-369.41
-377.31
-373.33
-358.41
-335.73
-309.36
-282.81
-258.08
-235.65
-215.15
-196.20
-178.81
-163.37
-150.14
-139.00
-129.38
-120.48
-111.57
-102.23
-92.33
-81.99
-71.38
-60.60
-49.68
-38.55
-27.19
-15.78
-4.75
5.28
13.72
20.26
24.95
28.24
30.73
33.05
35.57
38.39
41.36
44.17
46.49
48.08
48.86
48.93
48.55
48.00
47.50
47.13
46.83
46.47
45.94
45.20
44.21
42.89
41.13
38.80
35.91
32.61
29.17
25.89
22.98
20.45
18.10
15.62
12.68
9.03
4.61
-0.36
-5.37
-9.66
-12.37
-12.82
-10.73
-6.37
-0.51
5.84
11.75
16.64
20.36
23.13
25.27
26.98
28.28
29.08
29.35
29.28
29.19
29.47
30.28
31.48
32.69
33.49
33.64
33.20
32.49
31.88
31.60
31.64
31.75
31.62
30.98
29.70
27.79
25.35
22.56
19.65
16.89
14.49
12.55
11.00
9.56
7.81
5.30
1.81
-2.65
-7.71
-12.78
-17.15
-20.14
-21.26
-20.27
-17.29
-12.79
-7.45
-2.00
2.97
7.17
10.62
13.50
16.04
18.34
20.40
22.21
23.78
25.21
26.56
27.78
28.66
28.95
28.51
27.45
26.14
24.99
24.28
23.97
23.65
22.76
20.86
17.82
13.94
9.85
6.18
3.43
1.72
0.84
0.31
-0.43
-1.84
-4.10
-7.04
-10.12
-12.58
-13.62
-12.64
-9.47
-4.39
1.94
8.60
14.79
19.94
23.81
26.43
27.96
28.61
28.52
27.83
26.74
25.53
24.54
24.04
24.15
24.77
25.61
26.33
26.64
26.42
25.75
24.84
23.95
23.20
22.49
21.56
20.08
17.90
15.08
11.91
8.64
5.45
2.30
-0.91
-4.23
-7.57
-10.77
-13.75
-16.52
-19.19
-21.69
-23.70
-24.65
-23.98
-21.46
-17.30
-12.25
-7.15
-2.71
0.82
3.62
6.10
8.63
11.25
13.77
15.78
17.00
17.43
17.33
17.15
17.30
17.95
18.94
19.92
20.54
20.62
20.27
19.79
19.53
19.62
19.93
20.02
19.39
17.67
14.86
11.39
7.85
4.82
2.53
0.83
-0.74
-2.74
-5.55
-9.29
-13.80
-18.69
-23.43
-27.38
-29.84
-30.22
-28.25
-24.16
-18.61
-12.53
-6.81
-1.92
1.99
5.09
7.53
9.34
10.41
10.65
10.18
9.31
8.53
8.17
8.33
8.85
9.46
9.97
10.38
10.89
11.70
12.88
14.30
15.67
16.57
16.74
16.07
14.63
12.62
10.33
8.02
5.83
3.81
1.83
-0.27
-2.56
-5.04
-7.63
-10.27
-12.93
-15.64
-18.27
-20.49
-21.76
-21.55
-19.61
-16.11
-11.67
-7.05
-2.91
0.40
2.86
4.64
5.94
6.90
7.73
8.68
10.05
12.09
14.80
17.90
20.87
23.16
24.35
24.38
23.50
22.12
20.65
19.27
17.95
16.51
14.72
12.49
9.89
7.13
4.43
1.95
-0.30
-2.45
-4.63
-6.96
-9.47
-12.15
-14.96
-17.78
-20.44
-22.64
-24.02
-24.16
-22.80
-19.88
-15.70
-10.82
-5.88
-1.45
2.14
4.80
6.64
7.82
8.47
8.77
8.90
9.11
9.69
10.77
12.31
14.01
15.48
16.32
16.38
15.67
14.40
12.89
11.38
10.06
8.95
7.94
6.85
5.50
3.79
1.78
-0.36
-2.41
-4.20
-5.72
-7.02
-8.26
-9.59
-11.08
-12.81
-14.70
-16.60
-18.24
-19.20
-19.09
-17.68
-14.93
-11.14
-6.77
-2.31
1.89
5.64
8.87
11.57
13.66
15.11
15.89
16.18
16.24
16.33
16.67
17.23
17.82
18.12
17.84
16.81
15.16
13.16
11.25
9.80
9.00
8.77
8.85
8.81
8.29
7.13
5.39
3.34
1.32
-0.40
-1.68
-2.57
-3.26
-4.10
-5.38
-7.36
-10.14
-13.59
-17.38
-20.98
-23.77
-25.14
-24.71
-22.48
-18.89
-14.70
-10.74
-7.65
-5.59
-4.37
-3.58
-2.81
-1.85
-0.71
0.47
1.62
2.78
4.06
5.57
7.34
9.25
11.09
12.66
13.84
14.59
14.98
15.17
15.25
15.25
15.10
14.64
13.72
12.29
10.44
8.37
6.33
4.50
2.96
1.61
0.32
-1.13
-2.95
-5.35
-8.47
-12.25
-16.36
-20.19
-22.98
-24.04
-23.00
-19.96
-15.44
-10.20
-5.03
-0.51
3.06
5.60
7.21
8.10
8.53
8.75
8.99
9.41
10.03
10.81
11.70
12.64
13.53
14.27
14.68
14.65
14.13
13.18
12.02
10.84
9.74
8.65
7.33
5.51
3.07
0.10
-3.13
-6.18
-8.69
-10.42
-11.36
-11.77
-12.04
-12.67
-14.09
-16.53
-19.92
-23.81
-27.53
-30.25
-31.35
-30.49
-27.76
-23.53
-18.37
-12.89
-7.59
-2.85
1.14
4.31
6.73
8.49
9.75
10.63
11.23
11.66
12.04
12.53
13.20
14.08
15.04
15.88
16.44
16.67
16.69
16.65
16.66
16.62
16.27
15.28
13.46
10.84
7.74
4.59
1.80
-0.37
-1.87
-2.83
-3.47
-4.04
-4.83
-6.16
-8.31
-11.44
-15.41
-19.77
-23.78
-26.70
-27.92
-27.30
-24.99
-21.41
-17.05
-12.34
-7.59
-3.02
1.13
4.72
7.66
9.91
11.54
12.66
13.35
13.75
14.02
14.28
14.63
14.99
15.12
14.74
13.63
11.91
9.92
8.15
6.96
6.39
6.20
6.02
5.56
4.70
3.57
2.36
1.19
0.06
-1.10
-2.31
-3.55
-4.77
-6.07
-7.64
-9.81
-12.87
-16.81
-21.26
-25.48
-28.60
-29.87
-28.98
-26.06
-21.69
-16.60
-11.50
-6.85
-2.81
0.59
3.42
5.67
7.30
8.29
8.72
8.76
8.66
8.64
8.77
9.01
9.21
9.30
9.28
9.31
9.56
10.12
10.85
11.47
11.62
11.06
9.71
7.74
5.48
3.27
1.39
-0.04
-1.05
-1.80
-2.66
-3.95
-5.96
-8.65
-11.71
-14.55
-16.53
-17.25
-16.57
-14.69
-11.91
-8.51
-4.62
-0.35
4.08
8.28
11.68
13.81
14.52
14.10
13.16
12.38
12.25
12.83
13.80
14.63
14.85
14.24
12.88
11.12
9.40
8.13
7.51
7.50
7.76
7.82
7.21
5.72
3.43
0.67
-2.13
-4.68
-6.92
-9.03
-11.29
-13.97
-17.18
-20.82
-24.58
-27.98
-30.44
-31.48
-30.83
-28.54
-25.01
-20.83
-16.57
-12.63
-9.12
-6.00
-3.18
-0.69
1.39
2.91
3.89
4.48
5.00
5.72
6.76
8.00
9.16
9.95
10.24
10.08
9.65
9.16
8.75
8.43
8.17
7.90
7.55
7.13
6.64
6.14
5.58
4.84
3.61
1.59
-1.40
-5.19
-9.21
-12.54
-14.28
-13.86
-11.27
-7.07
-2.10
2.80
7.07
10.47
13.00
14.64
15.41
15.33
14.55
13.43
12.44
11.95
12.13
12.85
13.79
14.66
15.30
15.70
15.94
16.05
15.91
15.37
14.27
12.56
10.26
7.51
4.47
1.38
-1.58
-4.28
-6.74
-9.15
-11.84
-15.17
-19.26
-23.88
-28.41
-31.94
-33.63
-32.93
-29.89
-25.03
-19.22
-13.31
-7.88
-3.19
0.83
4.29
7.28
9.77
11.77
13.30
14.51
15.60
16.71
17.87
18.99
19.90
20.46
20.67
20.57
20.31
19.94
19.37
18.41
16.84
14.59
11.77
8.71
5.74
3.12
0.90
-1.03
-2.82
-4.62
-6.51
-8.64
-11.21
-14.43
-18.34
-22.65
-26.64
-29.36
-29.99
-28.22
-24.46
-19.60
-14.72
-10.62
-7.58
-5.46
-3.95
-2.93
-2.49
-2.87
-4.13
-5.98
-7.88
-9.26
-9.83
-9.81
-9.80
-10.46
-12.17
-14.82
-17.84
-20.54
-22.36
-23.33
-23.95
-25.13
-27.69
-32.14
-38.26
-45.03
-50.54
-52.33
-47.77
-34.85
-12.88
17.08
52.24
88.78
122.79
151.28
172.70
186.96
194.93
197.87
197.10
193.89
189.62
185.60
182.75
181.16
179.85
176.89
170.03
157.37
138.00
112.24
81.49
47.88
13.78
-18.66
-47.83
-72.77
-93.10
-108.79
-119.93
-126.43
-128.13
-125.05
-117.76
-107.48
-95.97
-84.94
-75.56
-68.05
-61.71
-55.42
-48.13
-39.41
-29.65
-19.88
-11.34
-4.97
-0.99
1.15
2.65
4.91
9.24
16.49
26.81
39.67
54.02
68.68
82.65
95.39
106.72
116.47
124.07
128.47
128.37
122.85
112.04
97.33
81.06
65.66
52.81
42.82
34.87
27.68
20.31
12.59
5.05
-1.55
-6.77
-10.79
-14.26
-17.92
-22.21
-27.15
-32.40
-37.53
-42.17
-46.06
-49.02
-50.84
-51.50
-51.15
-50.21
-49.23
-48.54
-48.25
-48.19
-48.17
-48.20
-48.59
-49.78
-52.05
-55.28
-58.82
-61.80
-63.35
-63.02
-60.85
-57.39
-53.34
-49.41
-46.02
-43.30
-41.06
-38.98
-36.79
-34.35
-31.79
-29.40
-27.44
-25.96
-24.67
-23.01
-20.35
-16.25
-10.76
-4.37
2.13
7.89
12.28
14.92
15.71
14.75
12.31
8.68
4.27
-0.47
-5.09
-9.16
-12.35
-14.45
-15.41
-15.33
-14.54
-13.48
-12.64
-12.35
-12.77
-13.76
-14.99
-16.18
-17.12
-17.75
-18.07
-18.06
-17.57
-16.42
-14.46
-11.74
-8.45
-4.90
-1.35
1.99
4.98
7.59
9.80
11.64
13.17
14.40
15.26
15.69
15.58
14.88
13.73
12.43
11.32
10.74
10.84
11.58
12.76
13.93
14.61
14.24
12.44
9.13
4.57
-0.67
-5.97
-10.80
-14.90
-18.36
-21.39
-24.35
-27.45
-30.82
-34.41
-37.98
-41.24
-43.75
-45.16
-45.22
-43.88
-41.41
-38.26
-35.03
-32.22
-30.08
-28.44
-26.86
-24.75
-21.64
-17.44
-12.37
-6.94
-1.71
2.86
6.54
9.27
11.14
12.29
12.94
13.31
13.62
14.01
14.49
14.90
14.98
14.47
13.29
11.52
9.44
7.37
5.62
4.41
3.78
3.70
3.96
4.25
4.15
3.29
1.47
-1.18
-4.20
-6.99
-8.97
-9.89
-9.80
-9.03
-7.94
-6.67
-5.19
-3.37
-1.13
1.33
3.58
5.15
5.66
5.06
3.65
1.97
0.50
-0.43
-0.79
-0.71
-0.38
0.04
0.54
1.11
1.76
2.38
2.77
2.66
1.83
0.27
-1.81
-3.94
-5.58
-6.38
-6.32
-5.78
-5.40
-5.76
-7.14
-9.37
-11.93
-14.12
-15.34
-15.27
-13.92
-11.57
-8.66
-5.67
-2.90
-0.57
1.26
2.57
3.32
3.40
2.77
1.62
0.40
-0.32
-0.09
1.20
3.24
5.39
7.00
7.61
7.10
5.62
3.52
1.15
-1.17
-3.24
-4.93
-6.21
-7.12
-7.77
-8.29
-8.81
-9.37
-10.05
-10.80
-11.59
-12.36
-13.13
-13.85
-14.46
-14.80
-14.68
-13.90
-12.34
-10.14
-7.55
-5.02
-2.85
-1.24
-0.20
0.38
0.57
0.41
-0.14
-1.04
-2.17
-3.34
-4.26
-4.75
-4.65
-4.01
-3.03
-2.04
-1.42
-1.42
-2.15
-3.43
-4.95
-6.33
-7.35
-7.98
-8.38
-8.77
-9.41
-10.38
-11.69
-13.19
-14.63
-15.72
-16.13
-15.69
-14.44
-12.61
-10.55
-8.56
-6.81
-5.33
-4.13
-3.24
-2.72
-2.69
-3.17
-4.06
-5.10
-6.06
-6.74
-7.06
-7.02
-6.72
-6.17
-5.48
-4.74
-4.15
-3.98
-4.40
-5.50
-7.10
-8.82
-10.17
-10.73
-10.43
-9.49
-8.48
-7.97
-8.29
-9.29
-10.33
-10.50
-8.97
-5.28
0.37
7.27
14.36
20.59
25.21
27.94
28.88
28.41
26.89
24.66
21.90
18.77
15.56
12.64
10.41
9.13
8.75
8.82
8.63
7.44
4.86
1.01
-3.42
-7.43
-10.08
-10.81
-9.73
-7.54
-5.24
-3.78
-3.67
-4.85
-6.84
-8.95
-10.50
-11.15
-10.79
-9.51
-7.53
-5.11
-2.57
-0.32
1.26
1.94
1.69
0.75
-0.52
-1.86
-3.22
-4.73
-6.59
-8.73
-10.76
-12.04
-11.90
-10.10
-6.89
-2.99
0.80
3.89
6.22
8.08
9.79
11.50
12.88
13.39
12.53
10.14
6.58
2.57
-1.16
-4.06
-5.95
-6.87
-6.96
-6.28
-4.83
-2.68
-0.06
2.60
4.73
5.82
5.56
4.01
1.51
-1.31
-3.83
-5.47
-5.88
-4.94
-2.77
0.32
3.91
7.57
10.81
13.28
14.65
14.85
13.95
12.29
10.27
8.33
6.76
5.60
4.74
3.93
2.90
1.45
-0.45
-2.74
-5.21
-7.52
-9.28
-10.11
-9.74
-8.12
-5.49
-2.37
0.63
2.96
4.28
4.53
3.84
2.49
0.83
-0.82
-2.21
-3.11
-3.43
-3.16
-2.45
-1.48
-0.52
0.26
0.75
0.99
1.06
0.97
0.70
0.10
-0.92
-2.41
-4.21
-6.10
-7.78
-9.13
-10.23
-11.32
-12.71
-14.65
-17.15
-19.99
-22.79
-25.07
-26.38
-26.41
-25.06
-22.45
-18.88
-14.86
-10.81
-7.17
-4.21
-2.07
-0.79
-0.34
-0.60
-1.45
-2.73
-4.27
-5.88
-7.36
-8.55
-9.37
-9.87
-10.36
-11.19
-12.80
-15.43
-18.95
-22.91
-26.69
-29.79
-32.02
-33.71
-35.49
-38.16
-42.29
-48.01
-54.95
-62.30
-68.97
-73.80
-75.62
-73.18
-65.23
-50.83
-29.67
-2.70
27.85
58.70
86.43
108.52
123.96
133.25
137.72
138.71
136.84
132.23
124.81
115.00
103.86
92.96
83.73
77.01
72.94
71.12
70.97
71.82
72.73
72.14
67.90
57.89
41.18
19.04
-4.85
-25.39
-37.99
-40.43
-33.76
-21.72
-8.97
0.73
5.78
6.65
4.98
2.31
-0.70
-4.16
-8.46
-13.57
-18.83
-23.15
-25.60
-25.89
-24.66
-23.12
-22.37
-22.79
-23.65
-23.51
-20.90
-15.20
-7.12
1.46
8.32
11.84
11.61
8.54
4.24
0.34
-2.16
-3.01
-2.52
-1.27
0.18
1.30
1.62
0.77
-1.26
-4.12
-7.08
-9.37
-10.63
-11.03
-11.17
-11.62
-12.54
-13.59
-14.18
-13.94
-12.99
-11.91
-11.45
-12.03
-13.51
-15.47
-17.43
-19.27
-21.16
-23.28
-25.50
-27.15
-27.29
-25.22
-20.89
-15.06
-8.93
-3.67
0.14
2.58
4.20
5.60
7.02
8.36
9.34
9.86
10.09
10.42
11.27
12.73
14.52
16.16
17.16
17.30
16.69
15.68
14.68
13.89
13.30
12.60
11.42
9.47
6.71
3.45
0.29
-2.21
-3.68
-4.25
-4.49
-5.16
-6.81
-9.62
-13.19
-16.89
-20.09
-22.50
-24.15
-25.28
-26.12
-26.86
-27.77
-29.28
-31.77
-35.14
-38.40
-39.65
-36.77
-28.39
-14.83
1.79
18.27
31.64
40.29
44.36
45.23
44.59
43.57
42.53
41.34
39.84
38.21
36.76
35.75
35.00
33.89
31.65
27.93
23.26
18.93
16.63
17.57
21.80
27.96
33.74
36.87
36.12
31.77
25.29
18.50
12.60
7.62
2.66
-3.41
-11.15
-20.11
-28.92
-35.89
-39.63
-39.55
-36.05
-30.26
-23.66
-17.57
-12.82
-9.56
-7.38
-5.55
-3.42
-0.70
2.49
5.67
8.36
10.33
11.72
13.02
14.69
17.06
20.07
23.41
26.66
29.36
31.24
32.02
31.47
29.44
25.88
20.98
15.16
9.04
3.23
-1.76
-5.63
-8.35
-10.07
-11.17
-12.04
-13.08
-14.53
-16.44
-18.65
-20.92
-23.10
-25.29
-27.79
-30.94
-34.71
-38.59
-41.48
-42.12
-39.60
-33.87
-25.90
-17.43
-10.23
-5.52
-3.61
-4.01
-5.78
-7.97
-9.80
-10.60
-9.75
-6.88
-2.36
2.33
4.82
2.64
-5.53
-18.88
-34.57
-48.83
-58.52
-62.17
-60.32
-54.57
-46.51
-37.01
-26.26
-14.46
-2.50
7.98
15.18
17.94
16.44
12.17
7.32
3.97
3.14
4.69
7.50
10.26
12.19
13.35
14.52
16.50
19.45
22.49
23.97
22.09
15.84
5.51
-7.14
-19.43
-28.76
-33.71
-34.86
-34.86
-37.52
-46.26
-62.44
-84.43
-107.99
-127.95
-140.17
-143.17
-138.67
-130.84
-125.04
-126.50
-139.63
-167.49
-211.05
-268.15
-332.81
-395.65
-445.88
-474.57
-477.69
-457.25
-420.30
-375.89
-331.92
-293.00
-260.38
-233.17
-209.99
-189.96
-172.67
-157.61
-143.81
-129.98
-115.12
-99.13
-82.80
-67.54
-54.62
-44.54
-36.80
-30.16
-23.17
-14.86
-5.09
5.42
15.50
24.09
30.71
35.64
39.68
43.80
48.59
54.09
59.76
64.86
68.82
71.60
73.71
76.03
79.35
84.09
90.08
96.74
103.37
109.55
115.39
121.45
128.52
137.23
147.68
159.49
171.90
184.20
195.99
207.38
218.93
231.47
246.04
263.62
284.79
309.17
334.99
359.05
377.36
386.43
384.49
372.25
352.47
328.85
304.64
281.84
261.06
242.09
224.56
208.32
193.40
179.75
167.09
154.95
142.86
130.63
118.28
106.14
94.64
84.20
75.02
67.00
59.69
52.46
44.83
36.65
28.24
20.26
13.49
8.50
5.45
4.09
3.82
4.01
4.20
4.28
4.43
5.02
6.32
8.28
10.52
12.42
13.46
13.39
12.35
10.76
9.07
7.59
6.35
5.20
3.91
2.37
0.70
-0.67
-1.23
-0.58
1.37
4.20
7.16
9.36
10.09
9.01
6.19
1.97
-3.16
-8.61
-13.81
-18.15
-21.19
-22.77
-23.26
-23.42
-24.16
-26.17
-29.63
-34.10
-38.81
-42.97
-46.12
-48.22
-49.54
-50.37
-50.84
-50.74
-49.83
-47.99
-45.49
-43.10
-41.80
-42.30
-44.84
-49.07
-54.26
-59.43
-63.38
-64.72
-62.01
-54.22
-41.43
-25.36
-9.23
3.45
10.38
11.83
10.46
10.00
13.40
21.46
32.87
45.30
56.73
66.30
73.97
79.65
82.50
80.92
73.24
58.93
39.18
16.92
-4.08
-20.37
-29.84
-32.27
-29.12
-22.84
-15.75
-9.23
-3.32
2.73
9.60
17.12
24.29
29.88
33.37
35.39
37.44
40.99
46.68
53.91
61.26
67.26
71.00
72.31
71.75
70.33
69.41
70.53
75.17
84.12
96.91
111.61
125.37
135.56
140.87
141.92
140.92
140.52
142.69
147.67
153.91
158.54
158.23
149.95
131.53
102.09
62.77
17.17
-28.69
-67.47
-92.85
-102.26
-98.57
-89.57
-85.02
-92.45
-113.74
-144.47
-176.15
-200.32
-212.17
-211.88
-203.25
-190.84
-177.28
-162.42
-144.40
-121.79
-95.24
-67.84
-43.72
-26.07
-15.76
-11.19
-9.47
-8.04
-5.83
-3.37
-2.01
-2.69
-5.46
-9.64
-14.44
-19.52
-24.86
-30.42
-35.79
-40.23
-43.06
-44.13
-43.99
-43.34
-42.59
-41.43
-39.06
-34.67
-28.06
-19.77
-10.85
-2.38
5.06
11.41
16.98
22.10
26.88
31.09
34.33
36.18
36.50
35.40
33.19
30.11
26.18
21.26
15.34
8.84
2.80
-1.38
-2.53
-0.38
4.05
8.54
10.46
7.65
-0.56
-13.00
-26.88
-38.59
-44.89
-43.92
-35.70
-21.96
-5.38
11.31
26.09
37.79
45.97
50.48
51.21
48.12
41.50
32.14
21.31
10.54
1.16
-5.93
-10.37
-12.20
-11.56
-8.48
-2.92
5.09
15.08
26.07
36.63
45.34
51.33
54.62
56.09
57.03
58.43
60.55
62.72
63.71
62.20
57.40
49.33
38.84
27.24
15.66
4.52
-6.79
-19.66
-35.76
-56.30
-81.61
-110.75
-141.47
-170.45
-193.58
-206.54
-205.64
-188.98
-157.40
-115.09
-68.89
-26.48
5.82
24.94
31.31
27.92
18.56
6.39
-6.64
-19.32
-30.61
-39.24
-44.03
-44.67
-42.11
-38.46
-35.92
-35.80
-37.88
-40.78
-42.83
-42.91
-41.11
-38.30
-35.61
-33.55
-31.80
-29.32
-25.07
-18.68
-10.64
-2.04
6.01
12.89
18.57
23.33
27.37
30.67
33.01
34.29
34.61
34.27
33.62
32.86
32.00
30.99
29.77
28.33
26.64
24.53
21.76
18.21
13.97
9.43
5.18
1.74
-0.67
-2.19
-3.31
-4.54
-6.27
-8.72
-11.90
-15.66
-19.72
-23.56
-26.38
-27.25
-25.41
-20.56
-13.14
-4.24
4.73
12.53
18.43
22.38
24.75
26.05
26.64
26.65
26.11
25.12
23.97
23.06
22.75
23.19
24.27
25.73
27.19
28.32
28.83
28.52
27.33
25.37
22.96
20.57
18.51
16.83
15.23
13.30
10.79
7.80
4.65
1.54
-1.72
-5.61
-10.47
-16.05
-21.27
-24.61
-24.81
-21.53
-15.54
-8.28
-1.19
4.88
9.81
13.87
17.25
19.85
21.38
21.65
20.83
19.46
18.24
17.68
17.92
18.72
19.65
20.31
20.42
19.89
18.71
16.95
14.70
12.09
9.30
6.49
3.82
1.31
-1.17
-3.87
-7.11
-11.12
-15.92
-21.15
-26.14
-29.91
-31.49
-30.28
-26.28
-20.17
-13.03
-5.96
0.34
5.64
10.10
13.93
17.15
19.55
20.90
21.16
20.55
19.62
18.93
18.90
19.65
21.02
22.69
24.23
25.23
25.39
24.57
22.75
20.15
17.07
13.76
10.35
6.80
3.00
-1.14
-5.55
-10.12
-14.74
-19.33
-23.88
-28.20
-31.93
-34.47
-35.22
-33.86
-30.54
-25.81
-20.33
-14.55
-8.51
-2.08
4.75
11.45
17.00
20.30
20.70
18.46
14.66
10.85
8.29
7.57
8.46
10.20
12.01
13.46
14.52
15.41
16.27
17.04
17.39
17.02
15.76
13.71
11.19
8.53
5.93
3.38
0.70
-2.38
-6.09
-10.45
-15.24
-19.88
-23.53
-25.33
-24.67
-21.42
-16.08
-9.52
-2.79
3.33
8.43
12.44
15.45
17.48
18.50
18.65
18.32
18.28
19.34
21.92
25.77
29.99
33.34
34.84
34.09
31.36
27.35
22.86
18.51
14.68
11.59
9.33
7.80
6.78
5.88
4.81
3.45
1.83
-0.05
-2.42
-5.56
-9.61
-14.24
-18.73
-22.12
-23.73
-23.31
-20.89
-16.59
-10.34
-1.98
8.38
19.96
31.30
40.65
46.79
49.49
49.73
49.18
49.47
51.49
55.16
59.56
63.41
65.62
65.55
63.01
58.11
51.04
41.99
31.24
19.31
6.94
-4.97
-15.54
-24.16
-30.54
-34.79
-37.30
-38.68
-39.57
-40.51
-41.83
-43.50
-45.24
-46.59
-47.16
-46.67
-45.12
-42.74
-39.99
-37.42
-35.54
-34.58
-34.33
-34.16
-33.17
-30.53
-25.82
-19.22
-11.55
-3.97
2.37
6.86
9.56
11.22
12.85
15.20
18.25
20.97
21.58
18.00
8.57
-7.21
-28.26
-51.68
-73.21
-88.26
-93.29
-87.06
-71.25
-49.89
-27.89
-9.32
3.75
11.42
15.14
16.55
16.73
16.06
14.59
12.50
10.26
8.40
7.12
6.16
4.85
2.61
-0.70
-4.60
-8.14
-10.32
-10.55
-8.95
-6.21
-3.40
-1.42
-0.68
-0.97
-1.52
-1.54
-0.46
1.74
4.59
7.30
9.16
9.74
9.12
7.74
6.19
4.96
4.20
3.78
3.37
2.61
1.32
-0.52
-2.78
-5.30
-7.90
-10.42
-12.71
-14.69
-16.32
-17.67
-18.87
-20.03
-21.07
-21.75
-21.72
-20.72
-18.67
-15.74
-12.24
-8.43
-4.50
-0.63
2.89
5.59
7.02
6.96
5.63
3.69
1.92
0.91
0.78
1.26
1.93
2.54
3.18
4.11
5.63
7.68
9.91
11.78
12.74
12.50
10.93
8.04
3.85
-1.57
-8.01
-15.03
-21.98
-28.23
-33.39
-37.52
-40.94
-43.99
-46.63
-48.50
-49.05
-47.96
-45.40
-41.98
-38.41
-35.21
-32.41
-29.72
-26.76
-23.35
-19.60
-15.83
-12.38
-9.38
-6.72
-4.11
-1.28
1.89
5.25
8.50
11.29
13.43
14.97
16.17
17.31
18.47
19.44
19.85
19.34
17.79
15.43
12.76
10.27
8.30
6.84
5.60
4.12
2.01
-0.91
-4.56
-8.60
-12.54
-15.87
-18.11
-18.92
-18.13
-15.78
-12.17
-7.77
-3.17
1.11
4.69
7.37
9.12
10.03
10.25
9.96
9.42
8.88
8.49
8.33
8.34
8.35
8.21
7.82
7.17
6.31
5.29
4.06
2.57
0.73
-1.48
-3.95
-6.49
-8.83
-10.74
-12.17
-13.30
-14.42
-15.85
-17.80
-20.27
-23.02
-25.73
-28.02
-29.63
-30.38
-30.14
-28.87
-26.57
-23.29
-19.22
-14.59
-9.74
-4.99
-0.61
3.26
6.54
9.25
11.43
13.08
14.27
15.05
15.54
15.87
16.15
16.41
16.60
16.69
16.59
16.31
15.82
15.09
14.09
12.80
11.20
9.33
7.28
5.18
3.14
1.22
-0.61
-2.53
-4.81
-7.73
-11.35
-15.48
-19.66
-23.30
-25.94
-27.34
-27.48
-26.47
-24.43
-21.47
-17.71
-13.36
-8.78
-4.34
-0.36
2.99
5.68
7.74
9.29
10.50
11.57
12.79
14.36
16.31
18.43
20.31
21.50
21.73
20.99
19.47
17.52
15.38
13.20
10.95
8.59
6.12
3.67
1.45
-0.33
-1.56
-2.39
-3.10
-4.08
-5.55
-7.53
-9.71
-11.67
-12.93
-13.15
-12.17
-10.01
-6.89
-3.07
1.05
5.07
8.63
11.56
13.82
15.62
17.19
18.72
20.29
21.88
23.43
24.94
26.54
28.36
30.60
33.45
37.08
41.71
47.39
53.94
60.77
66.95
71.45
73.51
72.83
69.68
64.58
57.98
50.05
40.69
29.82
17.62
4.71
-8.01
-19.60
-29.39
-37.13
-43.00
-47.50
-51.13
-54.15
-56.47
-57.63
-57.06
-54.34
-49.44
-42.80
-35.15
-27.25
-19.63
-12.39
-5.38
1.66
8.77
15.55
21.11
24.13
23.08
16.55
3.81
-14.62
-36.63
-58.60
-76.26
-85.95
-85.78
-76.41
-60.71
-42.71
-26.18
-13.62
-5.91
-2.62
-2.76
-5.38
-9.82
-15.53
-21.89
-27.99
-32.75
-35.23
-34.88
-31.80
-26.65
-20.44
-14.13
-8.37
-3.44
0.65
3.81
5.74
5.93
4.00
-0.01
-5.41
-10.97
-15.35
-17.55
-17.28
-15.00
-11.68
-8.42
-5.95
-4.53
-4.00
-3.99
-4.17
-4.39
-4.66
-5.05
-5.66
-6.51
-7.65
-9.14
-11.03
-13.33
-16.02
-18.97
-22.05
-25.09
-27.81
-29.88
-30.86
-30.37
-28.21
-24.47
-19.55
-13.94
-8.14
-2.48
2.81
7.58
11.64
14.78
16.90
18.05
18.55
18.82
19.32
20.30
21.74
23.41
24.93
26.01
26.46
26.30
25.62
24.54
23.04
21.06
18.54
15.49
12.06
8.46
4.96
1.70
-1.27
-4.06
-6.81
-9.68
-12.81
-16.29
-20.14
-24.18
-28.01
-31.01
-32.46
-31.78
-28.83
-23.97
-17.97
-11.68
-5.72
-0.38
4.36
8.59
12.32
15.40
17.64
19.01
19.77
20.35
21.13
22.31
23.73
25.01
25.78
25.89
25.41
24.56
23.59
22.52
21.20
19.42
17.04
14.20
11.18
8.30
5.72
3.30
0.73
-2.40
-6.36
-11.18
-16.56
-21.88
-26.39
-29.34
-30.18
-28.71
-25.12
-19.92
-13.77
-7.29
-0.96
4.90
10.08
14.42
17.75
20.02
21.28
21.80
21.98
22.21
22.74
23.56
24.39
24.84
24.62
23.65
22.10
20.31
18.54
16.90
15.25
13.32
10.87
7.81
4.27
0.48
-3.27
-6.83
-10.19
-13.49
-16.99
-20.87
-25.11
-29.44
-33.29
-35.96
-36.85
-35.59
-32.20
-27.04
-20.65
-13.60
-6.42
0.46
6.70
11.96
16.03
18.71
20.06
20.35
20.07
19.81
20.01
20.85
22.07
23.16
23.60
23.08
21.71
19.90
18.07
16.51
15.24
14.05
12.74
11.23
9.58
7.85
5.95
3.62
0.52
-3.65
-9.01
-15.44
-22.42
-29.17
-34.63
-37.81
-38.02
-35.17
-29.79
-22.82
-15.28
-7.91
-1.05
5.23
10.92
15.90
19.86
22.49
23.67
23.56
22.62
21.37
20.30
19.68
19.50
19.61
19.77
19.78
19.52
18.99
18.23
17.22
15.93
14.26
12.19
9.75
7.11
4.41
1.69
-1.26
-4.83
-9.41
-15.08
-21.45
-27.66
-32.60
-35.30
-35.20
-32.38
-27.39
-21.04
-14.16
-7.44
-1.41
3.58
7.32
9.80
11.18
11.82
12.20
12.76
13.81
15.41
17.42
19.57
21.47
22.75
23.20
22.74
21.47
19.56
17.26
14.78
12.28
9.88
7.62
5.52
3.48
1.31
-1.23
-4.38
-8.23
-12.65
-17.19
-21.19
-23.91
-24.78
-23.52
-20.21
-15.23
-9.10
-2.47
3.99
9.66
14.04
16.86
18.22
18.57
18.55
18.76
19.50
20.67
21.88
22.67
22.75
22.11
20.94
19.52
18.05
16.60
15.12
13.57
11.92
10.17
8.34
6.35
4.05
1.29
-2.06
-6.07
-10.76
-16.13
-22.09
-28.31
-34.17
-38.80
-41.23
-40.81
-37.46
-31.78
-24.79
-17.57
-10.93
-5.19
-0.39
3.61
6.86
9.29
10.85
11.63
11.94
12.27
13.04
14.47
16.49
18.76
20.88
22.55
23.67
24.25
24.34
23.89
22.74
20.73
17.86
14.34
10.60
7.04
3.84
0.89
-2.18
-5.73
-9.96
-14.73
-19.62
-24.05
-27.41
-29.23
-29.24
-27.38
-23.84
-18.99
-13.34
-7.42
-1.69
3.46
7.77
11.10
13.41
14.80
15.50
15.93
16.47
17.34
18.54
19.76
20.65
20.89
20.35
19.13
17.39
15.31
12.97
10.38
7.54
4.46
1.19
-2.14
-5.36
-8.27
-10.68
-12.57
-14.18
-16.02
-18.72
-22.63
-27.55
-32.52
-36.17
-37.08
-34.44
-28.39
-19.93
-10.49
-1.50
6.05
11.71
15.46
17.50
18.27
18.34
18.41
19.16
20.81
22.93
24.56
24.70
23.00
20.26
18.15
18.55
22.52
29.85
39.06
48.18
55.48
59.97
61.39
59.82
55.41
48.32
38.92
27.93
16.36
5.21
-4.75
-13.05
-19.46
-23.78
-25.90
-25.88
-24.01
-20.78
-16.70
-12.14
-7.23
-2.14
2.81
7.02
9.88
11.05
10.72
9.47
8.08
7.03
6.50
6.28
6.12
5.87
5.58
5.38
5.32
5.32
5.14
4.51
3.24
1.27
-1.32
-4.36
-7.65
-11.04
-14.44
-17.82
-21.24
-24.82
-28.75
-33.17
-38.04
-43.00
-47.36
-50.25
-50.91
-48.95
-44.56
-38.46
-31.58
-24.81
-18.75
-13.68
-9.71
-6.91
-5.36
-5.07
-5.90
-7.47
-9.28
-10.93
-12.29
-13.50
-14.80
-16.35
-17.98
-19.30
-19.88
-19.50
-18.29
-16.66
-15.17
-14.26
-14.09
-14.54
-15.32
-16.01
-16.29
-15.95
-15.07
-13.92
-12.96
-12.61
-13.07
-14.17
-15.38
-16.00
-15.33
-12.96
-8.85
-3.34
3.00
9.53
15.72
21.19
25.78
29.49
32.41
34.63
36.28
37.48
38.37
39.05
39.62
40.02
40.18
40.04
39.62
39.04
38.47
38.08
37.87
37.63
36.94
35.24
31.99
26.95
20.34
12.82
5.28
-1.51
-7.33
-12.59
-18.26
-25.39
-34.60
-45.77
-58.04
-70.04
-80.33
-87.78
-91.82
-92.47
-90.20
-85.71
-79.72
-72.80
-65.36
-57.73
-50.21
-43.06
-36.46
-30.31
-24.25
-17.81
-10.64
-2.75
5.27
12.53
18.11
21.49
22.72
22.29
20.75
18.45
15.32
11.08
5.61
-0.84
-7.72
-14.31
-20.14
-25.13
-29.49
-33.48
-37.20
-40.50
-43.15
-45.05
-46.23
-46.83
-46.81
-45.87
-43.44
-39.04
-32.46
-23.99
-14.32
-4.26
5.51
14.58
22.69
29.73
35.60
40.27
43.88
46.76
49.25
51.49
53.36
54.42
54.21
52.49
49.44
45.64
41.81
38.49
35.89
33.83
31.83
29.47
26.59
23.41
20.48
18.36
17.42
17.45
17.78
17.43
15.67
12.41
8.42
5.21
4.41
7.15
13.58
22.83
33.32
43.38
51.76
57.92
62.17
65.54
69.56
75.79
85.08
96.99
109.43
119.24
123.35
120.15
110.28
96.40
81.92
69.49
60.00
52.67
45.89
38.42
29.97
21.13
12.66
4.94
-2.27
-9.57
-17.36
-25.59
-33.66
-40.78
-46.40
-50.56
-53.71
-56.50
-59.25
-61.75
-63.18
-62.58
-59.30
-53.35
-45.49
-36.95
-29.01
-22.56
-17.93
-14.93
-13.05
-11.73
-10.58
-9.36
-8.07
-6.79
-5.63
-4.65
-3.83
-3.20
-2.78
-2.61
-2.76
-3.24
-4.03
-5.07
-6.29
-7.64
-9.12
-10.69
-12.31
-13.93
-15.56
-17.26
-19.21
-21.61
-24.55
-27.93
-31.35
-34.20
-35.75
-35.41
-32.88
-28.35
-22.35
-15.65
-9.01
-2.97
2.24
6.53
9.96
12.51
14.13
14.86
14.85
14.44
14.02
13.89
14.18
14.78
15.51
16.19
16.70
16.94
16.77
15.98
14.41
12.07
9.14
6.00
2.99
0.28
-2.17
-4.57
-7.07
-9.73
-12.44
-15.11
-17.71
-20.28
-22.83
-25.14
-26.77
-27.15
-25.84
-22.79
-18.34
-13.18
-8.05
-3.53
0.12
2.89
4.93
6.37
7.35
7.95
8.30
8.55
8.84
9.27
9.80
10.36
10.78
10.94
10.73
10.07
8.95
7.38
5.48
3.37
1.23
-0.81
-2.65
-4.30
-5.85
-7.39
-9.10
-11.11
-13.58
-16.60
-20.09
-23.82
-27.29
-29.94
-31.24
-30.95
-29.13
-26.15
-22.53
-18.78
-15.30
-12.39
-10.28
-9.15
-9.14
-10.23
-12.26
-14.86
-17.63
-20.23
-22.46
-24.27
-25.73
-26.99
-28.27
-29.88
-32.13
-35.31
-39.53
-44.67
-50.46
-56.63
-63.09
-69.90
-77.26
-85.19
-93.48
-101.69
-109.26
-115.63
-120.26
-122.50
-121.49
-116.18
-105.62
-89.29
-67.41
-41.03
-11.92
17.73
45.70
70.21
90.26
105.82
117.73
127.22
135.43
142.92
149.64
155.35
160.18
164.88
170.69
178.63
188.78
200.06
210.51
218.18
221.93
221.78
218.53
213.03
205.29
194.16
177.63
153.79
121.88
83.02
40.11
-2.89
-42.24
-75.34
-101.24
-120.36
-133.69
-142.06
-145.86
-145.22
-140.50
-132.63
-123.07
-113.32
-104.48
-96.85
-90.10
-83.64
-77.12
-70.60
-64.55
-59.50
-55.67
-52.84
-50.35
-47.39
-43.34
-38.04
-31.78
-25.21
-19.12
-14.09
-10.46
-8.22
-7.14
-6.87
-7.12
-7.65
-8.36
-9.23
-10.27
-11.53
-13.12
-15.13
-17.55
-20.22
-22.76
-24.60
-25.14
-23.95
-20.98
-16.59
-11.47
-6.40
-1.98
1.58
4.35
6.56
8.43
9.97
11.11
11.79
12.08
12.17
12.32
12.72
13.45
14.39
15.34
16.08
16.39
16.11
15.17
13.61
11.56
9.19
6.71
4.27
1.98
-0.15
-2.08
-3.86
-5.57
-7.40
-9.64
-12.51
-16.09
-20.10
-23.95
-26.82
-27.93
-26.83
-23.56
-18.68
-13.07
-7.63
-2.99
0.66
3.46
5.69
7.53
8.97
9.86
10.09
9.81
9.37
9.27
9.80
10.90
12.10
12.80
12.57
11.33
9.41
7.30
5.38
3.75
2.20
0.54
-1.34
-3.31
-5.12
-6.60
-7.83
-9.09
-10.72
-12.99
-15.81
-18.83
-21.39
-22.79
-22.48
-20.20
-16.11
-10.75
-4.92
0.59
5.22
8.75
11.28
13.09
14.42
15.39
15.96
16.05
15.64
14.84
13.83
12.83
11.96
11.26
10.68
10.19
9.72
9.23
8.57
7.54
5.93
3.60
0.60
-2.80
-6.14
-8.96
-10.97
-12.19
-12.99
-13.90
-15.42
-17.76
-20.73
-23.81
-26.32
-27.58
-27.19
-25.05
-21.34
-16.42
-10.74
-4.79
0.98
6.13
10.29
13.20
14.77
15.16
14.71
13.91
13.15
12.73
12.70
12.99
13.49
14.11
14.81
15.55
16.20
16.55
16.37
15.44
13.71
11.32
8.52
5.69
3.11
0.95
-0.80
-2.34
-3.90
-5.64
-7.61
-9.82
-12.24
-14.95
-17.99
-21.21
-24.18
-26.16
-26.40
-24.46
-20.46
-15.07
-9.20
-3.69
1.03
4.86
7.98
10.49
12.39
13.55
13.95
13.71
13.14
12.59
12.29
12.30
12.48
12.63
12.61
12.35
11.88
11.21
10.37
9.34
8.19
7.01
5.98
5.16
4.53
3.87
2.93
1.53
-0.28
-2.33
-4.44
-6.55
-8.78
-11.40
-14.63
-18.53
-22.84
-26.98
-30.24
-31.88
-31.40
-28.60
-23.81
-17.68
-11.06
-4.74
0.80
5.42
9.18
12.17
14.33
15.48
15.52
14.56
12.97
11.32
10.09
9.50
9.40
9.41
9.11
8.22
6.75
4.94
3.07
1.35
-0.18
-1.66
-3.22
-5.00
-7.02
-9.32
-11.95
-15.02
-18.63
-22.71
-27.05
-31.30
-35.23
-38.83
-42.33
-46.19
-50.83
-56.44
-62.84
-69.50
-75.67
-80.57
-83.64
-84.72
-84.06
-82.30
-80.20
-78.55
-78.01
-79.09
-82.14
-87.14
-93.39
-99.46
-103.40
-103.29
-98.04
-87.57
-72.59
-53.85
-31.66
-5.80
23.94
57.10
92.16
126.80
158.59
185.59
206.56
220.81
227.88
227.47
219.74
205.57
186.53
164.41
140.55
115.43
88.85
60.42
30.38
-0.21
-29.58
-55.86
-77.76
-94.89
-107.71
-117.00
-123.40
-127.13
-128.18
-126.58
-122.72
-117.35
-111.31
-105.16
-98.92
-92.25
-84.85
-76.82
-68.84
-61.86
-56.51
-52.51
-48.56
-42.71
-33.10
-18.76
-0.00
21.74
44.51
66.48
86.42
103.80
118.56
130.93
141.38
150.55
159.11
167.27
174.25
178.10
176.26
166.63
148.73
124.23
96.30
68.34
42.66
19.88
-0.60
-19.52
-36.86
-51.68
-62.66
-68.86
-70.22
-67.47
-61.72
-53.94
-44.85
-34.93
-24.71
-14.80
-5.92
1.23
6.13
8.54
8.56
6.63
3.52
0.18
-2.46
-3.75
-3.38
-1.38
2.01
6.58
12.15
18.60
25.79
33.39
40.87
47.55
52.79
56.11
57.40
56.94
55.27
53.01
50.52
47.81
44.51
40.13
34.30
26.98
18.53
9.49
0.45
-8.10
-15.69
-21.80
-25.73
-26.84
-24.78
-19.74
-12.63
-4.72
2.63
8.54
12.72
15.41
17.11
18.20
18.81
18.83
18.02
16.24
13.57
10.31
6.89
3.83
1.55
0.33
0.25
1.10
2.46
3.79
4.52
4.31
2.97
0.55
-2.86
-7.12
-12.16
-17.83
-23.89
-29.98
-35.64
-40.50
-44.32
-47.17
-49.37
-51.42
-53.78
-56.76
-60.30
-64.00
-67.21
-69.23
-69.55
-68.07
-65.20
-61.68
-58.38
-56.03
-55.00
-55.30
-56.63
-58.54
-60.64
-62.80
-65.11
-68.00
-72.00
-77.42
-84.03
-90.74
-95.59
-96.19
-90.36
-76.91
-56.05
-29.45
0.13
29.44
55.33
75.24
87.62
92.11
89.54
81.62
70.37
57.63
44.68
32.25
20.77
10.58
2.09
-4.47
-9.26
-12.94
-16.43
-20.52
-25.33
-30.10
-33.58
-34.55
-32.61
-28.55
-24.11
-21.11
-20.52
-21.81
-23.15
-22.33
-17.85
-9.35
2.68
17.53
34.34
51.46
65.99
74.15
72.93
62.19
45.64
29.68
20.47
20.84
28.91
39.44
46.72
47.53
42.23
33.60
24.74
17.30
11.16
5.36
-0.69
-6.75
-11.99
-15.57
-17.24
-17.41
-16.93
-16.58
-16.70
-17.00
-16.69
-14.82
-10.76
-4.59
2.81
10.03
15.71
19.00
19.89
19.04
17.42
15.84
14.62
13.56
12.25
10.40
8.06
5.62
3.51
1.97
0.87
-0.25
-1.91
-4.51
-8.06
-12.26
-16.63
-20.70
-24.30
-27.60
-31.09
-35.35
-40.84
-47.65
-55.37
-63.20
-70.17
-75.37
-78.30
-78.84
-77.25
-73.88
-69.01
-62.52
-53.76
-41.47
-24.15
-0.89
27.76
59.19
88.82
111.30
122.18
119.49
104.44
80.90
54.03
28.50
7.38
-8.30
-19.08
-26.40
-31.91
-36.97
-42.49
-48.84
-56.00
-63.60
-71.24
-78.58
-85.45
-91.79
-97.64
-103.11
-108.34
-113.31
-117.60
-119.96
-118.44
-110.81
-95.53
-72.64
-44.13
-13.56
15.19
39.10
56.96
69.34
78.03
85.17
92.61
101.69
113.25
127.83
145.65
166.16
187.73
207.55
222.09
228.22
224.29
210.80
190.06
165.26
139.22
113.64
89.14
65.86
44.08
24.51
7.87
-5.61
-16.66
-26.78
-37.69
-50.63
-65.94
-82.97
-100.35
-116.33
-129.39
-138.59
-143.92
-146.12
-146.25
-145.13
-142.99
-139.54
-134.54
-128.37
-122.17
-117.44
-115.34
-116.06
-118.86
-122.60
-126.50
-130.47
-134.80
-139.51
-143.83
-146.30
-145.59
-141.23
-133.95
-125.23
-116.52
-108.49
-101.06
-93.96
-87.34
-81.98
-78.95
-78.67
-80.46
-82.49
-82.44
-78.32
-68.93
-53.79
-32.77
-5.89
26.74
64.39
105.29
146.65
184.99
216.87
239.80
252.73
256.25
252.28
243.46
232.51
221.52
211.69
203.24
195.77
188.54
180.87
172.33
162.69
151.88
140.03
127.33
114.21
101.16
88.59
76.73
65.54
54.76
44.10
33.41
22.84
12.83
4.08
-2.75
-7.21
-9.16
-8.81
-6.60
-3.11
0.92
4.65
7.17
7.81
6.45
3.67
0.77
-0.67
0.79
5.94
14.70
26.26
39.28
52.20
63.48
71.83
76.48
77.50
75.85
73.22
71.40
71.64
74.02
77.44
80.00
79.72
75.17
65.88
52.36
35.86
17.93
0.15
-16.22
-30.28
-41.63
-50.18
-56.12
-59.69
-61.13
-60.70
-58.70
-55.50
-51.53
-47.13
-42.49
-37.61
-32.50
-27.35
-22.73
-19.48
-18.33
-19.51
-22.38
-25.61
-27.69
-27.59
-25.18
-21.19
-16.78
-12.86
-9.87
-7.71
-6.13
-4.99
-4.48
-4.91
-6.55
-9.36
-13.02
-16.99
-20.71
-23.74
-25.88
-27.14
-27.73
-27.96
-27.96
-27.65
-26.65
-24.47
-20.76
-15.55
-9.23
-2.52
3.91
9.57
14.22
17.85
20.47
22.04
22.47
21.84
20.44
18.82
17.58
17.19
17.68
18.65
19.41
19.19
17.45
13.93
8.78
2.41
-4.53
-11.25
-16.93
-20.89
-22.74
-22.53
-20.74
-18.11
-15.41
-13.20
-11.70
-10.86
-10.49
-10.35
-10.28
-10.26
-10.40
-10.92
-12.00
-13.55
-15.07
-15.62
-14.26
-10.40
-4.29
2.95
9.70
14.52
16.68
16.40
14.59
12.32
10.35
8.95
7.96
7.14
6.28
5.29
4.13
2.77
1.20
-0.38
-1.61
-1.97
-1.03
1.37
5.01
9.30
13.57
17.21
19.82
21.20
21.28
20.09
17.78
14.68
11.25
7.98
5.27
3.22
1.61
0.04
-1.99
-4.82
-8.58
-13.17
-18.26
-23.39
-28.14
-32.24
-35.74
-38.98
-42.46
-46.68
-51.85
-57.80
-63.94
-69.50
-73.69
-75.96
-76.09
-74.23
-70.83
-66.47
-61.70
-56.83
-51.87
-46.53
-40.35
-32.87
-23.86
-13.46
-2.28
8.75
18.52
26.07
30.89
33.19
33.91
34.53
36.54
40.96
47.96
56.72
65.68
72.90
76.67
75.87
70.33
60.76
48.62
35.71
23.78
14.09
7.13
2.59
-0.40
-2.86
-5.52
-8.60
-11.88
-14.89
-17.23
-18.74
-19.54
-19.97
-20.48
-21.57
-23.75
-27.40
-32.63
-39.11
-46.01
-52.18
-56.41
-57.76
-55.70
-50.21
-41.76
-31.24
-19.90
-9.21
-0.46
5.50
8.67
9.93
10.78
12.77
16.96
23.61
32.12
41.43
50.37
58.08
64.09
68.15
70.14
69.86
67.21
62.30
55.68
48.29
41.27
35.57
31.72
29.67
28.97
28.99
29.14
29.10
28.80
28.29
27.70
26.99
26.03
24.50
22.12
18.79
14.87
11.08
8.42
7.78
9.64
13.89
19.86
26.57
33.09
38.65
42.80
45.28
45.98
44.78
41.66
36.69
30.18
22.66
14.86
7.57
1.48
-2.96
-5.63
-6.68
-6.46
-5.33
-3.57
-1.41
1.03
3.59
6.12
8.49
10.63
12.54
14.28
15.90
17.36
18.63
19.59
20.04
19.62
17.86
14.21
8.32
0.29
-9.21
-19.09
-28.05
-35.09
-39.71
-42.00
-42.48
-41.83
-40.72
-39.61
-38.86
-38.70
-39.16
-40.11
-41.18
-41.88
-41.67
-40.20
-37.47
-33.87
-30.06
-26.82
-24.85
-24.52
-25.85
-28.42
-31.41
-33.72
-34.25
-32.19
-27.33
-20.23
-11.98
-3.84
3.15
8.53
12.40
15.22
17.53
19.67
21.69
23.55
25.08
26.24
27.00
27.37
27.35
26.90
25.96
24.51
22.62
20.40
18.00
15.55
13.08
10.61
8.12
5.72
3.60
2.03
1.28
1.48
2.63
4.46
6.63
8.73
10.51
11.89
12.99
13.99
15.07
16.33
17.62
18.75
19.50
19.78
19.65
19.28
18.83
18.25
17.27
15.34
11.92
6.62
-0.66
-9.62
-19.66
-30.04
-40.08
-49.17
-56.91
-63.00
-67.22
-69.44
-69.60
-67.84
-64.46
-59.94
-54.76
-49.33
-43.89
-38.49
-33.08
-27.56
-21.80
-15.72
-9.29
-2.57
4.19
10.58
16.11
20.31
22.94
24.05
23.82
22.50
20.28
17.25
13.52
9.25
4.71
0.20
-3.94
-7.43
-10.05
-11.65
-12.28
-12.21
-11.84
-11.65
-11.90
-12.58
-13.29
-13.40
-12.25
-9.41
-4.80
1.26
8.06
14.77
20.62
25.09
27.94
29.23
29.10
27.72
25.28
21.99
18.18
14.34
10.92
8.20
6.23
4.82
3.78
3.04
2.69
2.89
3.67
4.82
5.95
6.70
6.87
6.55
5.99
5.48
5.09
4.73
4.19
3.31
2.07
0.64
-0.69
-1.66
-2.09
-2.07
-1.81
-1.72
-2.17
-3.39
-5.39
-7.97
-10.79
-13.56
-16.13
-18.47
-20.63
-22.56
-24.14
-25.22
-25.75
-25.80
-25.62
-25.50
-25.68
-26.35
-27.64
-29.59
-32.21
-35.34
-38.60
-41.30
-42.61
-41.69
-38.06
-31.72
-23.14
-13.02
-1.92
9.90
22.46
35.69
49.15
61.86
72.67
80.71
85.87
88.83
90.75
92.69
95.23
98.52
102.51
107.17
112.44
117.82
121.86
122.28
116.50
102.88
81.61
55.05
27.05
1.69
-18.01
-30.73
-36.72
-37.10
-33.06
-25.52
-15.35
-3.75
7.49
16.18
20.36
19.09
12.71
2.79
-8.62
-19.73
-29.67
-38.59
-47.19
-55.99
-64.63
-71.74
-75.24
-73.13
-64.18
-48.27
-26.22
0.60
30.59
61.78
91.46
116.13
131.88
135.43
125.20
101.86
67.93
26.83
-18.12
-64.09
-108.38
-147.97
-179.50
-199.83
-207.23
-202.19
-187.40
-166.80
-144.28
-122.61
-103.10
-86.08
-71.49
-59.49
-50.46
-44.73
-42.09
-41.72
-42.27
-42.28
-40.59
-36.64
-30.43
-22.47
-13.58
-4.64
3.43
9.81
13.91
15.50
14.72
12.20
8.85
5.61
3.26
2.20
2.51
3.99
6.24
8.78
11.09
12.72
13.38
13.03
11.94
10.55
9.38
8.79
8.90
9.60
10.56
11.41
11.87
11.79
11.24
10.40
9.50
8.70
7.91
6.85
5.16
2.50
-1.18
-5.66
-10.44
-14.89
-18.39
-20.55
-21.27
-20.68
-19.14
-17.03
-14.65
-12.17
-9.71
-7.38
-5.41
-4.09
-3.69
-4.20
-5.38
-6.74
-7.81
-8.27
-8.03
-7.26
-6.22
-5.15
-4.25
-3.60
-3.16
-2.86
-2.52
-2.04
-1.38
-0.63
0.01
0.29
0.06
-0.76
-2.20
-4.17
-6.52
-8.94
-10.94
-12.01
-11.73
-9.98
-7.00
-3.26
0.66
4.33
7.46
9.92
11.52
12.06
11.40
9.46
6.44
2.70
-1.25
-4.98
-8.17
-10.65
-12.39
-13.42
-13.86
-13.84
-13.56
-13.26
-13.17
-13.38
-13.89
-14.53
-15.09
-15.43
-15.56
-15.67
-16.01
-16.75
-17.80
-18.87
-19.52
-19.32
-17.98
-15.46
-11.97
-7.95
-3.93
-0.39
2.37
4.24
5.31
5.72
5.60
5.08
4.32
3.56
3.14
3.39
4.43
6.11
7.98
9.49
10.17
9.85
8.67
6.97
5.12
3.39
1.84
0.38
-1.23
-3.24
-5.83
-9.03
-12.66
-16.33
-19.49
-21.59
-22.23
-21.23
-18.72
-15.08
-10.78
-6.29
-2.02
1.71
4.67
6.62
7.44
7.12
5.92
4.26
2.67
1.61
1.33
1.79
2.73
3.78
4.60
4.93
4.71
4.03
3.01
1.74
0.27
-1.48
-3.65
-6.39
-9.82
-13.92
-18.56
-23.45
-28.15
-32.11
-34.78
-35.63
-34.36
-30.92
-25.63
-19.08
-12.05
-5.35
0.40
4.81
7.80
9.52
10.27
10.39
10.13
9.69
9.25
8.89
8.69
8.67
8.78
8.84
8.71
8.21
7.24
5.76
3.76
1.28
-1.55
-4.57
-7.57
-10.37
-12.91
-15.24
-17.56
-20.05
-22.77
-25.61
-28.23
-30.13
-30.77
-29.76
-26.85
-22.15
-16.04
-9.10
-2.03
4.55
10.11
14.35
17.08
18.33
18.22
17.02
15.04
12.72
10.47
8.74
7.93
8.28
9.82
12.28
15.11
17.61
19.16
19.38
18.25
16.12
13.54
10.97
8.61
6.42
4.09
1.33
-2.07
-6.19
-10.91
-15.97
-20.93
-25.23
-28.11
-28.88
-27.03
-22.50
-15.71
-7.53
0.97
8.82
15.30
20.09
23.18
24.80
25.26
24.93
24.15
23.20
22.26
21.37
20.50
19.55
18.50
17.42
16.38
15.42
14.32
12.79
10.51
7.37
3.58
-0.37
-3.89
-6.59
-8.31
-9.27
-9.90
-10.73
-12.31
-15.06
-19.10
-24.22
-29.78
-34.76
-38.03
-38.63
-36.10
-30.53
-22.55
-13.10
-3.20
6.24
14.55
21.33
26.48
30.12
32.54
34.11
35.18
36.04
36.83
37.65
38.46
39.17
39.67
39.80
39.55
38.95
38.08
36.95
35.47
33.39
30.52
26.83
22.53
18.04
13.76
9.97
6.65
3.54
0.26
-3.62
-8.32
-13.81
-19.61
-24.83
-28.35
-29.13
-26.58
-20.84
-12.73
-3.45
5.76
13.98
20.67
25.61
28.82
30.33
30.32
29.02
26.79
24.02
21.21
18.77
17.02
16.10
15.89
16.04
16.11
15.75
14.82
13.40
11.62
9.59
7.29
4.66
1.75
-1.25
-3.98
-6.20
-7.88
-9.33
-11.09
-13.69
-17.39
-22.04
-26.95
-31.08
-33.32
-32.84
-29.32
-23.08
-14.96
-6.02
2.70
10.44
16.70
21.26
24.05
25.16
24.86
23.57
21.87
20.31
19.32
19.03
19.30
19.92
20.62
21.27
21.82
22.19
22.25
21.78
20.51
18.32
15.26
11.54
7.47
3.34
-0.64
-4.37
-7.77
-10.91
-13.98
-17.30
-21.29
-26.18
-31.78
-37.34
-41.63
-43.35
-41.60
-36.21
-27.87
-17.91
-7.78
1.34
8.80
14.46
18.48
21.12
22.63
23.25
23.22
22.83
22.44
22.39
22.88
23.95
25.43
26.97
28.19
28.81
28.68
27.85
26.43
24.52
22.11
19.19
15.75
11.93
8.02
4.34
1.16
-1.48
-3.76
-6.01
-8.66
-12.10
-16.53
-21.93
-27.88
-33.59
-38.03
-40.13
-39.19
-35.11
-28.46
-20.30
-11.83
-4.01
2.64
8.05
12.33
15.59
17.83
19.01
19.18
18.67
17.99
17.68
18.04
19.09
20.48
21.74
22.56
22.82
22.65
22.26
21.70
20.90
19.63
17.70
15.07
11.92
8.65
5.68
3.30
1.55
0.19
-1.21
-3.13
-5.95
-9.89
-14.85
-20.47
-25.99
-30.47
-32.92
-32.64
-29.50
-23.94
-16.89
-9.46
-2.52
3.41
8.25
12.10
15.08
17.23
18.57
19.18
19.34
19.46
19.87
20.79
22.10
23.55
24.77
25.54
25.75
25.50
24.95
24.18
23.09
21.44
19.01
15.71
11.74
7.54
3.60
0.25
-2.51
-5.02
-7.79
-11.28
-15.73
-20.99
-26.57
-31.72
-35.55
-37.25
-36.27
-32.53
-26.40
-18.73
-10.56
-2.90
3.52
8.34
11.54
13.35
14.06
14.02
13.59
13.05
12.68
12.60
12.86
13.32
13.85
14.29
14.56
14.62
14.47
14.07
13.38
12.30
10.79
8.82
6.42
3.66
0.62
-2.60
-5.94
-9.32
-12.69
-16.06
-19.42
-22.74
-25.82
-28.31
-29.69
-29.39
-27.08
-22.76
-16.87
-10.13
-3.38
2.68
7.62
11.28
13.65
14.79
14.82
13.98
12.65
11.30
10.35
10.04
10.27
10.73
11.06
11.00
10.51
9.73
8.82
7.88
6.88
5.63
3.96
1.76
-0.92
-3.86
-6.83
-9.68
-12.44
-15.28
-18.49
-22.16
-26.13
-29.91
-32.79
-34.07
-33.29
-30.29
-25.34
-19.04
-12.18
-5.60
-0.03
4.09
6.63
7.78
7.91
7.45
6.73
5.97
5.28
4.71
4.31
4.11
4.09
4.23
4.46
4.67
4.83
4.85
4.69
4.30
3.60
2.55
1.02
-1.01
-3.49
-6.18
-8.74
-10.82
-12.23
-13.09
-13.75
-14.67
-16.02
-17.56
-18.65
-18.54
-16.71
-13.10
-8.16
-2.64
2.72
7.39
11.15
13.93
15.76
16.70
16.84
16.31
15.33
14.17
13.10
12.32
11.98
12.12
12.72
13.63
14.59
15.31
15.53
15.06
13.86
11.98
9.56
6.74
3.67
0.43
-2.90
-6.27
-9.71
-13.34
-17.30
-21.61
-26.06
-30.10
-32.97
-33.90
-32.43
-28.58
-22.87
-16.10
-9.12
-2.60
3.05
7.69
11.20
13.52
14.56
14.37
13.22
11.63
10.22
9.57
9.97
11.34
13.28
15.18
16.53
17.05
16.68
15.56
13.90
11.87
9.60
7.20
4.74
2.22
-0.39
-3.22
-6.45
-10.19
-14.46
-19.08
-23.62
-27.48
-29.98
-30.55
-28.88
-25.06
-19.59
-13.25
-6.93
-1.38
2.88
5.66
7.04
7.31
6.88
6.19
5.64
5.46
5.71
6.32
7.14
8.06
8.97
9.75
10.23
10.22
9.56
8.24
6.39
4.23
1.93
-0.43
-2.88
-5.40
-7.94
-10.38
-12.70
-15.00
-17.53
-20.50
-23.79
-26.91
-29.06
-29.44
-27.57
-23.54
-17.92
-11.58
-5.41
-0.06
4.11
6.98
8.64
9.23
8.98
8.12
6.88
5.51
4.28
3.50
3.39
4.09
5.39
6.88
8.02
8.35
7.73
6.38
4.69
3.04
1.57
0.16
-1.42
-3.40
-5.81
-8.59
-11.68
-15.05
-18.75
-22.72
-26.72
-30.23
-32.52
-32.92
-30.97
-26.70
-20.63
-13.56
-6.45
-0.03
5.29
9.45
12.59
14.83
16.26
16.85
16.66
15.87
14.88
14.17
14.10
14.82
16.15
17.62
18.73
19.01
18.28
16.59
14.23
11.49
8.66
5.95
3.50
1.37
-0.45
-2.16
-4.14
-6.79
-10.37
-14.80
-19.54
-23.71
-26.40
-26.89
-24.88
-20.58
-14.60
-7.81
-1.15
4.61
8.95
11.73
13.06
13.30
12.86
12.16
11.55
11.27
11.41
11.89
12.55
13.18
13.64
13.86
13.84
13.52
12.81
11.58
9.79
7.51
4.91
2.22
-0.45
-2.99
-5.44
-7.87
-10.35
-13.05
-16.11
-19.60
-23.36
-27.02
-29.94
-31.42
-30.91
-28.18
-23.40
-17.10
-10.04
-3.03
3.22
8.26
11.90
14.16
15.27
15.50
15.13
14.42
13.61
12.88
12.42
12.34
12.71
13.46
14.42
15.24
15.55
15.02
13.52
11.15
8.18
4.99
1.92
-0.86
-3.30
-5.43
-7.30
-9.04
-10.79
-12.80
-15.25
-18.19
-21.35
-24.17
-25.88
-25.85
-23.73
-19.59
-13.98
-7.63
-1.29
4.45
9.23
12.90
15.41
16.77
17.09
16.53
15.44
14.24
13.38
13.15
13.59
14.53
15.60
16.46
16.88
16.78
16.22
15.24
13.82
11.88
9.34
6.17
2.56
-1.22
-4.79
-7.92
-10.58
-12.99
-15.53
-18.58
-22.41
-26.94
-31.73
-36.02
-38.87
-39.45
-37.31
-32.51
-25.66
-17.71
-9.68
-2.43
3.52
7.99
11.10
13.13
14.42
15.31
16.08
16.88
17.76
18.67
19.57
20.42
21.25
22.09
22.92
23.60
23.98
23.83
23.02
21.52
19.44
16.95
14.21
11.32
8.26
5.01
1.49
-2.28
-6.31
-10.63
-15.34
-20.56
-26.29
-32.27
-37.87
-42.24
-44.46
-43.89
-40.41
-34.34
-26.49
-17.79
-9.11
-1.09
5.85
11.54
15.89
18.89
20.65
21.33
21.23
20.70
20.11
19.68
19.48
19.43
19.31
18.94
18.17
17.02
15.56
13.94
12.29
10.75
9.36
8.18
7.26
6.70
6.58
6.93
7.67
8.66
9.66
10.41
10.67
10.17
8.68
6.10
2.50
-1.69
-5.81
-9.10
-10.98
-11.25
-10.13
-8.11
-5.72
-3.32
-1.03
1.19
3.28
5.12
6.39
6.88
6.59
5.84
5.14
5.01
5.65
6.91
8.41
9.71
10.52
10.82
10.76
10.46
9.99
9.29
8.23
6.75
4.92
2.85
0.70
-1.39
-3.39
-5.36
-7.42
-9.74
-12.46
-15.68
-19.42
-23.51
-27.60
-31.18
-33.67
-34.51
-33.31
-29.99
-24.84
-18.47
-11.70
-5.38
-0.13
3.79
6.46
8.19
9.32
10.00
10.25
9.96
9.06
7.68
6.08
4.55
3.36
2.64
2.45
2.84
3.84
5.31
7.00
8.42
9.05
8.53
6.80
4.21
1.28
-1.44
-3.63
-5.35
-6.92
-8.86
-11.54
-15.06
-19.16
-23.22
-26.49
-28.23
-27.95
-25.44
-20.87
-14.67
-7.50
-0.13
6.66
12.23
16.11
18.13
18.37
17.15
14.99
12.49
10.24
8.71
8.16
8.63
9.93
11.71
13.52
14.93
15.55
15.18
13.78
11.48
8.52
5.18
1.71
-1.71
-4.96
-7.95
-10.66
-13.07
-15.25
-17.35
-19.60
-22.25
-25.46
-29.17
-32.97
-36.20
-37.98
-37.58
-34.60
-29.19
-22.01
-14.02
-6.20
0.69
6.28
10.46
13.36
15.13
15.97
16.08
15.77
15.38
15.26
15.55
16.22
16.98
17.50
17.53
17.02
16.04
14.81
13.46
12.10
10.73
9.32
7.87
6.36
4.78
3.14
1.42
-0.31
-1.96
-3.52
-5.11
-7.11
-9.93
-13.83
-18.63
-23.66
-27.87
-30.20
-29.94
-26.97
-21.73
-15.08
-8.01
-1.38
4.18
8.34
11.04
12.50
13.05
13.12
13.04
12.99
13.03
13.15
13.36
13.71
14.22
14.83
15.37
15.60
15.37
14.65
13.59
12.37
11.07
9.66
7.97
5.86
3.32
0.56
-2.13
-4.44
-6.28
-7.79
-9.34
-11.33
-14.03
-17.36
-20.86
-23.76
-25.24
-24.67
-21.80
-16.96
-10.84
-4.30
1.83
6.98
10.91
13.70
15.54
16.70
17.36
17.64
17.64
17.44
17.13
16.81
16.59
16.51
16.57
16.75
16.93
16.92
16.51
15.45
13.62
11.10
8.17
5.27
2.76
0.83
-0.62
-1.85
-3.19
-4.86
-6.93
-9.35
-12.00
-14.73
-17.39
-19.72
-21.32
-21.74
-20.58
-17.71
-13.31
-7.96
-2.46
2.48
6.36
9.04
10.67
11.51
11.80
11.61
10.98
10.02
8.99
8.22
8.05
8.54
9.49
10.51
11.14
11.07
10.23
8.72
6.72
4.43
1.99
-0.46
-2.80
-4.93
-6.77
-8.33
-9.72
-11.08
-12.61
-14.47
-16.73
-19.28
-21.81
-23.81
-24.65
-23.80
-21.04
-16.58
-11.02
-5.13
0.41
5.12
8.79
11.34
12.73
12.92
12.00
10.26
8.24
6.58
5.76
5.98
7.04
8.51
9.91
10.91
11.33
11.14
10.40
9.12
7.34
5.10
2.48
-0.36
-3.24
-5.95
-8.40
-10.52
-12.43
-14.36
-16.68
-19.70
-23.57
-28.07
-32.60
-36.29
-38.20
-37.70
-34.62
-29.40
-22.88
-16.02
-9.61
-4.10
0.39
3.95
6.75
8.90
10.49
11.58
12.27
12.73
13.13
13.62
14.18
14.63
14.71
14.25
13.23
11.84
10.38
9.11
8.11
7.26
6.30
5.02
3.38
1.48
-0.47
-2.31
-3.93
-5.33
-6.71
-8.33
-10.53
-13.57
-17.46
-21.87
-26.10
-29.29
-30.64
-29.69
-26.44
-21.28
-14.89
-8.03
-1.39
4.46
9.07
12.20
13.83
14.11
13.42
12.26
11.14
10.53
10.67
11.60
13.10
14.83
16.45
17.69
18.46
18.75
18.63
18.13
17.31
16.21
14.89
13.44
11.89
10.25
8.49
6.61
4.66
2.70
0.74
-1.35
-3.81
-6.88
-10.63
-14.84
-18.93
-22.14
-23.77
-23.36
-20.87
-16.68
-11.41
-5.78
-0.44
4.07
7.42
9.49
10.37
10.32
9.65
8.68
7.65
6.71
5.93
5.41
5.17
5.20
5.39
5.54
5.46
5.10
4.50
3.81
3.10
2.25
1.04
-0.76
-3.19
-5.94
-8.46
-10.22
-10.98
-10.91
-10.55
-10.63
-11.69
-13.92
-17.05
-20.47
-23.41
-25.18
-25.30
-23.59
-20.12
-15.19
-9.24
-2.81
3.52
9.20
13.79
17.05
18.91
19.62
19.60
19.28
19.05
19.13
19.54
20.23
21.03
21.72
22.09
21.91
20.97
19.14
16.50
13.24
9.72
6.32
3.33
0.88
-1.01
-2.45
-3.63
-4.74
-5.98
-7.59
-9.80
-12.76
-16.49
-20.74
-24.92
-28.26
-30.01
-29.63
-27.01
-22.45
-16.49
-9.75
-2.83
3.74
9.46
13.81
16.36
16.91
15.66
13.25
10.59
8.60
7.90
8.55
10.10
11.70
12.57
12.23
10.72
8.53
6.22
4.18
2.47
0.81
-1.14
-3.47
-5.97
-8.22
-9.84
-10.69
-11.00
-11.21
-11.79
-13.04
-15.00
-17.49
-20.15
-22.54
-24.18
-24.65
-23.67
-21.14
-17.28
-12.54
-7.52
-2.79
1.23
4.39
6.72
8.41
9.68
10.70
11.52
12.07
12.28
12.13
11.73
11.27
10.94
10.82
10.80
10.68
10.26
9.46
8.36
7.08
5.74
4.33
2.73
0.87
-1.20
-3.30
-5.17
-6.62
-7.67
-8.50
-9.45
-10.89
-13.11
-16.15
-19.81
-23.55
-26.61
-28.25
-27.93
-25.58
-21.59
-16.70
-11.73
-7.30
-3.72
-0.93
1.33
3.30
5.07
6.59
7.69
8.27
8.32
8.08
7.91
8.15
9.01
10.45
12.20
13.92
15.35
16.34
16.89
16.98
16.51
15.37
13.48
10.94
8.04
5.24
2.90
1.16
-0.08
-1.15
-2.50
-4.48
-7.23
-10.63
-14.24
-17.40
-19.39
-19.63
-17.92
-14.48
-9.87
-4.81
0.03
4.24
7.60
10.11
11.84
12.86
13.31
13.38
13.31
13.29
13.45
13.75
14.07
14.24
14.10
13.67
13.02
12.28
11.59
10.98
10.40
9.72
8.79
7.54
5.93
4.03
1.93
-0.26
-2.43
-4.55
-6.63
-8.76
-11.11
-13.75
-16.68
-19.61
-22.04
-23.36
-23.08
-20.91
-16.94
-11.60
-5.54
0.53
5.94
10.31
13.47
15.54
16.73
17.20
17.05
16.22
14.72
12.66
10.40
8.38
7.02
6.50
6.67
7.19
7.61
7.59
6.98
5.76
3.93
1.54
-1.36
-4.59
-7.83
-10.63
-12.72
-14.01
-14.76
-15.47
-16.55
-18.23
-20.36
-22.57
-24.34
-25.17
-24.70
-22.72
-19.17
-14.26
-8.42
-2.29
3.47
8.25
11.73
13.84
14.75
14.75
14.16
13.27
12.28
11.35
10.58
10.03
9.74
9.65
9.64
9.50
9.03
8.06
6.55
4.60
2.37
0.05
-2.23
-4.44
-6.59
-8.71
-10.78
-12.68
-14.29
-15.63
-16.93
-18.56
-20.91
-24.03
-27.49
-30.42
-31.81
-30.93
-27.68
-22.60
-16.60
-10.58
-5.15
-0.50
3.35
6.39
8.53
9.68
9.90
9.54
9.13
9.16
9.81
10.92
12.05
12.78
12.92
12.57
12.05
11.62
11.36
11.08
10.53
9.57
8.21
6.65
5.06
3.44
1.67
-0.39
-2.77
-5.38
-7.99
-10.45
-12.77
-15.05
-17.51
-20.25
-23.11
-25.71
-27.49
-27.83
-26.36
-23.03
-18.24
-12.69
-7.21
-2.44
1.27
3.94
5.79
7.05
7.91
8.45
8.71
8.75
8.70
8.75
9.03
9.59
10.37
11.24
12.10
12.92
13.71
14.54
15.35
15.96
16.15
15.63
14.23
11.97
9.06
5.84
2.68
-0.10
-2.38
-4.23
-5.87
-7.65
-9.92
-12.94
-16.75
-21.12
-25.52
-29.20
-31.41
-31.57
-29.52
-25.51
-20.17
-14.30
-8.63
-3.64
0.46
3.67
6.10
7.84
8.97
9.57
9.81
9.92
10.15
10.73
11.82
13.44
15.50
17.76
19.91
21.66
22.80
23.32
23.37
23.18
22.93
22.61
22.05
21.01
19.31
16.98
14.22
11.23
8.19
5.16
2.02
-1.32
-4.99
-9.07
-13.50
-18.08
-22.32
-25.60
-27.23
-26.78
-24.24
-20.12
-15.28
-10.60
-6.68
-3.65
-1.30
0.74
2.69
4.49
5.91
6.80
7.21
7.44
7.87
8.71
9.85
11.01
11.85
12.28
12.38
12.38
12.38
12.27
11.81
10.73
8.94
6.59
3.99
1.46
-0.73
-2.49
-3.80
-4.73
-5.44
-6.14
-7.13
-8.67
-10.96
-13.94
-17.28
-20.39
-22.55
-23.13
-21.74
-18.43
-13.67
-8.19
-2.85
1.74
5.28
7.83
9.63
10.94
11.87
12.42
12.55
12.34
11.95
11.64
11.60
11.88
12.37
12.92
13.43
13.82
14.05
14.02
13.64
12.83
11.59
10.03
8.26
6.32
4.23
1.98
-0.33
-2.53
-4.51
-6.25
-8.01
-10.14
-12.91
-16.26
-19.69
-22.43
-23.66
-22.86
-20.02
-15.65
-10.61
-5.73
-1.64
1.41
3.49
4.78
5.47
5.66
5.47
5.06
4.65
4.41
4.40
4.47
4.44
4.17
3.69
3.20
2.99
3.16
3.65
4.18
4.44
4.23
3.56
2.60
1.55
0.59
-0.25
-1.00
-1.82
-2.89
-4.40
-6.51
-9.29
-12.68
-16.42
-20.08
-23.02
-24.58
-24.23
-21.80
-17.54
-12.13
-6.44
-1.20
3.15
6.56
9.22
11.32
12.94
14.04
14.52
14.49
14.19
13.96
14.03
14.45
15.03
15.54
15.86
15.98
15.99
15.87
15.46
14.51
12.83
10.41
7.49
4.53
1.97
0.12
-0.95
-1.50
-1.93
-2.70
-4.19
-6.58
-9.82
-13.61
-17.41
-20.53
-22.36
-22.43
-20.63
-17.20
-12.69
-7.82
-3.32
0.27
2.71
4.10
4.82
5.31
5.94
6.84
7.92
8.96
9.77
10.30
10.64
10.99
11.49
12.13
12.79
13.24
13.29
12.81
11.81
10.38
8.64
6.71
4.73
2.78
0.93
-0.73
-2.18
-3.38
-4.38
-5.32
-6.45
-8.05
-10.31
-13.17
-16.27
-18.95
-20.51
-20.43
-18.58
-15.32
-11.30
-7.22
-3.63
-0.70
1.66
3.63
5.29
6.57
7.24
7.15
6.38
5.28
4.34
4.00
4.45
5.58
7.08
8.57
9.73
10.32
10.23
9.44
8.03
6.16
4.10
2.15
0.53
-0.60
-1.21
-1.42
-1.48
-1.70
-2.43
-3.91
-6.18
-9.07
-12.21
-15.19
-17.64
-19.19
-19.64
-18.83
-16.76
-13.61
-9.78
-5.77
-2.08
0.93
3.09
4.36
4.83
4.60
3.89
2.97
2.24
2.01
2.46
3.51
4.88
6.20
7.17
7.67
7.71
7.41
6.88
6.13
5.16
3.98
2.66
1.30
0.05
-1.02
-1.98
-2.96
-4.16
-5.74
-7.71
-9.96
-12.21
-14.14
-15.44
-15.84
-15.21
-13.55
-11.04
-7.96
-4.72
-1.67
0.92
2.95
4.43
5.43
6.02
6.25
6.19
5.94
5.63
5.41
5.35
5.49
5.77
6.07
6.25
6.20
5.87
5.26
4.43
3.39
2.16
0.73
-0.89
-2.62
-4.39
-6.08
-7.66
-9.24
-10.99
-13.09
-15.64
-18.49
-21.31
-23.61
-24.89
-24.78
-23.12
-20.09
-16.08
-11.64
-7.32
-3.47
-0.26
2.31
4.24
5.45
5.90
5.56
4.63
3.49
2.59
2.22
2.46
3.17
4.06
4.88
5.46
5.76
5.77
5.50
4.97
4.17
3.10
1.76
0.15
-1.68
-3.66
-5.62
-7.40
-8.99
-10.51
-12.26
-14.47
-17.13
-19.88
-22.09
-23.07
-22.41
-20.11
-16.55
-12.35
-8.06
-4.04
-0.38
2.86
5.61
7.65
8.76
8.83
7.99
6.62
5.27
4.36
4.13
4.51
5.23
5.92
6.32
6.35
6.10
5.75
5.45
5.23
4.97
4.46
3.55
2.23
0.68
-0.85
-2.20
-3.42
-4.76
-6.56
-9.06
-12.20
-15.61
-18.70
-20.76
-21.23
-19.82
-16.63
-12.18
-7.28
-2.72
0.91
3.46
5.15
6.36
7.32
8.03
8.27
7.85
6.82
5.52
4.44
3.93
4.10
4.79
5.74
6.75
7.61
8.21
8.38
7.97
6.92
5.36
3.56
1.90
0.59
-0.35
-1.11
-1.98
-3.21
-4.97
-7.34
-10.38
-14.11
-18.32
-22.55
-26.04
-27.90
-27.42
-24.39
-19.22
-12.84
-6.35
-0.69
3.66
6.66
8.56
9.67
10.23
10.41
10.32
10.12
9.95
9.87
9.93
10.01
10.05
10.01
9.93
9.86
9.83
9.81
9.65
9.15
8.13
6.45
4.18
1.54
-1.17
-3.68
-5.94
-8.13
-10.63
-13.74
-17.46
-21.41
-24.84
-26.96
-27.11
-25.05
-20.95
-15.40
-9.15
-2.99
2.46
6.79
9.81
11.48
11.91
11.31
10.08
8.75
7.83
7.73
8.49
9.88
11.40
12.61
13.25
13.32
13.03
12.57
12.00
11.23
10.10
8.47
6.35
3.88
1.28
-1.24
-3.57
-5.77
-8.04
-10.63
-13.79
-17.60
-21.93
-26.38
-30.30
-32.97
-33.76
-32.36
-28.85
-23.70
-17.63
-11.42
-5.75
-1.06
2.50
5.02
6.73
7.92
8.89
9.73
10.52
11.24
11.95
12.73
13.68
14.86
16.17
17.43
18.39
18.83
18.62
17.69
16.06
13.82
11.18
8.38
5.72
3.38
1.36
-0.52
-2.54
-4.96
-7.94
-11.47
-15.43
-19.53
-23.38
-26.50
-28.34
-28.50
-26.79
-23.34
-18.60
-13.16
-7.50
-2.01
3.09
7.60
11.26
13.81
15.07
15.09
14.21
13.02
12.14
12.10
13.12
15.15
17.87
20.79
23.40
25.26
26.13
25.95
24.82
22.94
20.54
17.91
15.29
12.89
10.80
8.95
7.10
4.89
1.98
-1.84
-6.59
-12.00
-17.56
-22.65
-26.57
-28.77
-28.88
-26.80
-22.74
-17.17
-10.74
-4.15
1.96
7.06
10.91
13.49
15.00
15.69
15.85
15.68
15.38
15.16
15.24
15.78
16.79
18.09
19.34
20.19
20.42
19.97
18.94
17.49
15.77
13.88
11.92
10.01
8.24
6.72
5.44
4.26
2.99
1.42
-0.63
-3.26
-6.45
-10.09
-13.81
-17.13
-19.41
-20.07
-18.80
-15.64
-11.06
-5.80
-0.60
3.96
7.64
10.42
12.39
13.63
14.12
13.85
12.92
11.66
10.54
9.97
10.12
10.86
11.74
12.33
12.37
11.95
11.35
10.95
10.95
11.35
11.92
12.43
12.66
12.56
12.10
11.31
10.17
8.63
6.61
4.01
0.76
-3.17
-7.70
-12.52
-17.12
-20.73
-22.59
-22.14
-19.32
-14.61
-8.94
-3.32
1.48
5.15
7.82
9.83
11.45
12.75
13.60
13.87
13.55
12.93
12.44
12.41
12.97
13.94
14.99
15.75
16.02
15.76
15.06
14.02
12.72
11.13
9.27
7.19
5.05
3.02
1.23
-0.36
-1.96
-3.93
-6.58
-10.02
-14.01
-17.99
-21.16
-22.77
-22.36
-19.88
-15.69
-10.44
-4.89
0.28
4.57
7.70
9.59
10.30
10.05
9.12
7.81
6.47
5.40
4.89
5.08
5.97
7.38
9.00
10.47
11.47
11.82
11.45
10.33
8.48
5.93
2.85
-0.44
-3.52
-5.98
-7.65
-8.71
-9.64
-11.05
-13.37
-16.71
-20.73
-24.83
-28.25
-30.33
-30.63
-29.04
-25.70
-21.01
-15.53
-9.84
-4.51
0.07
3.68
6.31
8.05
9.04
9.46
9.48
9.26
8.90
8.55
8.32
8.35
8.76
9.59
10.76
12.02
13.04
13.48
13.12
11.97
10.25
8.28
6.35
4.66
3.19
1.90
0.72
-0.45
-1.72
-3.28
-5.38
-8.21
-11.73
-15.57
-19.05
-21.34
-21.78
-20.15
-16.73
-12.19
-7.30
-2.65
1.46
4.97
7.86
10.09
11.57
12.26
12.29
11.98
11.76
11.95
12.72
13.96
15.39
16.66
17.51
17.78
17.46
16.63
15.43
14.03
12.59
11.26
10.07
8.98
7.90
6.66
5.12
3.10
0.48
-2.84
-6.81
-11.25
-15.75
-19.72
-22.55
-23.70
-22.91
-20.24
-16.07
-11.01
-5.73
-0.89
3.00
5.70
7.21
7.69
7.44
6.74
5.83
4.87
4.03
3.49
3.43
3.91
4.82
5.95
6.95
7.57
7.69
7.36
6.70
5.84
4.84
3.66
2.23
0.57
-1.32
-3.41
-5.70
-8.26
-11.13
-14.28
-17.54
-20.58
-22.98
-24.26
-24.00
-22.00
-18.32
-13.36
-7.78
-2.35
2.34
5.94
8.53
10.35
11.67
12.58
13.00
12.87
12.24
11.41
10.81
10.79
11.48
12.68
14.00
14.95
15.15
14.40
12.73
10.29
7.39
4.32
1.37
-1.31
-3.75
-6.14
-8.75
-11.77
-15.26
-19.14
-23.21
-27.12
-30.42
-32.53
-32.89
-31.08
-27.07
-21.31
-14.61
-7.94
-2.07
2.51
5.75
7.75
8.71
8.79
8.18
7.16
6.14
5.49
5.48
6.13
7.25
8.54
9.76
10.72
11.31
11.41
10.94
9.82
8.08
5.86
3.37
0.91
-1.36
-3.37
-5.25
-7.16
-9.38
-12.07
-15.31
-18.98
-22.76
-26.10
-28.37
-29.04
-27.80
-24.71
-20.17
-14.79
-9.22
-4.02
0.49
4.15
6.91
8.79
9.83
10.13
9.87
9.29
8.67
8.20
8.00
8.09
8.41
8.88
9.43
9.93
10.18
10.01
9.20
7.68
5.56
3.10
0.63
-1.57
-3.41
-5.00
-6.61
-8.53
-10.94
-13.83
-16.97
-19.96
-22.24
-23.32
-22.81
-20.53
-16.58
-11.30
-5.24
0.94
6.67
11.55
15.38
18.16
19.96
20.84
20.85
20.06
18.68
17.05
15.61
14.73
14.61
15.19
16.17
17.13
17.71
17.66
16.91
15.54
13.68
11.48
8.99
6.31
3.54
0.86
-1.57
-3.71
-5.73
-8.01
-10.94
-14.68
-18.91
-22.84
-25.43
-25.75
-23.37
-18.49
-11.93
-4.82
1.81
7.31
11.64
15.16
18.39
21.65
24.90
27.72
29.64
30.41
30.21
29.62
29.37
30.11
32.16
35.51
39.78
44.22
47.63
48.53
45.51
37.75
25.54
10.45
-5.08
-18.55
-28.30
-33.92
-36.17
-36.35
-35.54
-34.24
-32.22
-28.96
-24.12
-17.84
-10.98
-4.79
-0.55
0.88
-0.55
-4.08
-8.45
-12.39
-15.15
-16.58
-17.02
-16.90
-16.33
-15.17
-13.11
-10.06
-6.30
-2.43
0.90
3.28
4.66
5.31
5.57
5.64
5.48
4.86
3.54
1.42
-1.33
-4.39
-7.41
-10.15
-12.63
-15.08
-17.86
-21.33
-25.59
-30.39
-35.10
-38.73
-40.31
-39.17
-35.24
-29.11
-21.84
-14.70
-8.63
-4.19
-1.46
-0.22
-0.12
-0.84
-2.03
-3.28
-4.21
-4.55
-4.25
-3.52
-2.78
-2.44
-2.78
-3.90
-5.71
-8.15
-11.14
-14.60
-18.25
-21.58
-23.84
-24.30
-22.51
-18.62
-13.36
-7.91
-3.50
-1.00
-0.74
-2.45
-5.50
-9.06
-12.34
-14.59
-15.21
-13.77
-10.17
-4.71
1.96
9.00
15.60
21.19
25.48
28.48
30.36
31.39
31.87
32.09
32.25
32.43
32.57
32.52
32.17
31.55
30.82
30.18
29.73
29.31
28.59
27.19
24.90
21.79
18.18
14.55
11.19
8.19
5.40
2.48
-0.84
-4.73
-9.21
-14.07
-18.94
-23.19
-26.09
-26.96
-25.39
-21.43
-15.67
-9.02
-2.49
3.09
7.29
10.03
11.52
12.06
12.02
11.65
11.24
10.98
11.05
11.55
12.49
13.75
15.11
16.30
17.05
17.22
16.76
15.68
14.07
11.98
9.45
6.59
3.51
0.37
-2.65
-5.46
-8.11
-10.81
-13.83
-17.41
-21.54
-25.91
-29.83
-32.47
-33.07
-31.22
-26.99
-20.92
-13.84
-6.67
-0.22
4.97
8.64
10.76
11.52
11.25
10.36
9.27
8.33
7.74
7.58
7.79
8.27
8.91
9.57
10.07
10.14
9.54
8.15
6.06
3.58
1.11
-1.00
-2.67
-4.04
-5.40
-7.03
-9.11
-11.65
-14.62
-17.92
-21.35
-24.56
-26.99
-27.94
-26.84
-23.46
-18.07
-11.40
-4.39
2.14
7.63
11.90
15.03
17.21
18.57
19.20
19.19
18.68
17.89
17.10
16.51
16.23
16.17
16.18
16.00
15.42
14.25
12.44
10.01
7.10
3.91
0.67
-2.41
-5.12
-7.40
-9.37
-11.32
-13.68
-16.90
-21.17
-26.32
-31.71
-36.39
-39.34
-39.85
-37.64
-32.99
-26.51
-19.01
-11.32
-4.10
2.13
7.06
10.58
12.76
13.83
14.13
14.04
13.90
13.93
14.26
14.85
15.61
16.37
16.97
17.31
17.32
16.93
16.07
14.66
12.61
9.96
6.88
3.67
0.67
-1.92
-4.12
-6.20
-8.50
-11.32
-14.75
-18.60
-22.43
-25.67
-27.68
-27.89
-25.86
-21.49
-15.09
-7.47
0.35
7.29
12.64
16.18
18.14
18.98
19.08
18.63
17.64
16.15
14.35
12.63
11.42
11.03
11.47
12.45
13.52
14.28
14.47
14.01
12.95
11.38
9.34
6.88
4.09
1.16
-1.68
-4.26
-6.53
-8.72
-11.19
-14.32
-18.24
-22.73
-27.12
-30.51
-32.05
-31.18
-27.84
-22.41
-15.72
-8.67
-2.15
3.21
7.10
9.53
10.68
10.88
10.51
9.89
9.30
8.92
8.85
9.06
9.50
9.98
10.32
10.32
9.79
8.61
6.77
4.31
1.35
-2.02
-5.77
-9.84
-14.14
-18.55
-22.97
-27.39
-31.95
-36.92
-42.57
-48.91
-55.64
-62.04
-67.34
-70.81
-72.14
-71.50
-69.41
-66.62
-63.82
-61.49
-59.87
-59.11
-59.32
-60.64
-63.14
-66.63
-70.47
-73.51
-74.27
-71.19
-62.96
-48.71
-28.12
-1.42
30.57
66.35
103.72
139.96
172.24
198.17
216.18
225.70
227.04
220.98
208.41
190.11
166.84
139.48
109.26
77.72
46.61
17.59
-7.91
-28.89
-44.63
-54.57
-58.29
-55.53
-46.56
-32.46
-15.21
2.66
18.63
30.91
38.88
42.92
44.01
43.10
40.73
37.06
32.14
26.25
19.96
14.02
8.97
4.96
1.72
-1.18
-4.12
-7.21
-10.19
-12.61
-13.93
-13.87
-12.56
-10.74
-9.77
-11.31
-16.81
-26.97
-41.39
-58.64
-76.80
-94.01
-109.01
-121.09
-129.91
-135.11
-136.24
-132.95
-125.37
-114.26
-100.97
-87.06
-73.97
-62.82
-54.39
-49.19
-47.49
-49.28
-54.18
-61.45
-70.17
-79.38
-88.24
-95.99
-101.88
-105.25
-105.72
-103.44
-99.30
-94.76
-91.38
-90.19
-91.30
-93.62
-95.22
-93.89
-87.93
-76.67
-60.70
-41.46
-20.63
0.71
22.38
44.89
68.81
94.07
119.66
143.96
165.45
183.31
197.53
208.54
216.68
221.79
223.47
221.49
216.07
207.80
197.29
184.84
170.48
154.39
137.23
120.23
104.66
91.15
79.44
68.70
58.29
48.48
40.46
35.58
34.33
35.70
37.41
36.86
32.30
23.50
11.58
-1.71
-14.87
-27.10
-38.23
-48.31
-57.11
-64.04
-68.37
-69.65
-68.01
-64.14
-59.05
-53.68
-48.50
-43.51
-38.30
-32.47
-25.85
-18.68
-11.50
-5.03
0.07
3.36
4.74
4.47
3.09
1.34
-0.02
-0.51
-0.04
1.06
2.13
2.51
1.77
-0.17
-3.02
-6.30
-9.46
-12.09
-13.99
-15.17
-15.87
-16.53
-17.58
-19.41
-22.05
-25.15
-28.00
-29.75
-29.71
-27.59
-23.66
-18.62
-13.41
-8.90
-5.63
-3.73
-2.88
-2.55
-2.08
-0.97
1.12
4.26
8.33
12.95
17.66
21.87
25.02
26.68
26.61
24.88
21.87
18.14
14.25
10.62
7.40
4.50
1.73
-1.08
-3.97
-6.82
-9.52
-12.10
-14.72
-17.65
-21.05
-24.72
-28.14
-30.59
-31.41
-30.33
-27.40
-23.02
-17.68
-11.87
-5.95
-0.25
4.98
9.52
13.27
16.26
18.59
20.38
21.62
22.22
21.96
20.72
18.45
15.33
11.68
7.92
4.45
1.56
-0.61
-2.18
-3.35
-4.37
-5.41
-6.49
-7.53
-8.34
-8.78
-8.67
-7.92
-6.41
-4.10
-1.09
2.37
5.94
9.28
12.13
14.46
16.34
17.84
18.95
19.43
19.03
17.56
15.14
12.16
9.24
6.92
5.48
4.78
4.39
3.78
2.61
0.88
-1.08
-2.82
-3.94
-4.31
-3.99
-3.27
-2.45
-1.79
-1.44
-1.51
-2.08
-3.23
-5.03
-7.35
-9.97
-12.44
-14.27
-15.06
-14.63
-13.10
-10.79
-8.07
-5.19
-2.29
0.53
3.07
5.06
6.25
6.63
6.51
6.42
6.87
8.17
10.28
12.94
15.83
18.74
21.61
24.42
27.04
29.23
30.66
31.02
30.19
28.16
25.04
20.94
15.93
10.12
3.71
-2.86
-8.93
-13.75
-16.62
-17.22
-15.65
-12.38
-8.15
-3.73
0.22
3.29
5.29
6.27
6.46
6.23
5.95
5.87
6.02
6.19
6.06
5.35
3.94
1.82
-0.86
-3.91
-7.10
-10.24
-13.16
-15.78
-18.11
-20.28
-22.37
-24.38
-26.19
-27.62
-28.47
-28.72
-28.47
-27.88
-27.03
-25.82
-23.98
-21.18
-17.23
-12.22
-6.52
-0.73
4.62
9.13
12.64
15.19
16.89
17.82
17.99
17.36
15.99
14.04
11.79
9.51
7.40
5.52
3.81
2.13
0.34
-1.61
-3.75
-6.12
-8.78
-11.83
-15.37
-19.45
-23.99
-28.88
-33.96
-39.06
-43.93
-48.17
-51.15
-52.20
-50.76
-46.65
-40.24
-32.34
-24.01
-16.18
-9.44
-3.91
0.66
4.81
9.11
14.09
19.96
26.63
33.66
40.36
46.02
50.17
52.72
53.93
54.23
54.00
53.33
52.19
50.49
48.21
45.48
42.39
38.97
35.12
30.68
25.61
20.09
14.47
9.18
4.44
0.20
-3.90
-8.28
-13.13
-18.32
-23.35
-27.49
-30.20
-31.26
-30.89
-29.64
-28.20
-27.10
-26.58
-26.55
-26.67
-26.39
-25.12
-22.33
-17.70
-11.34
-3.80
3.96
10.88
16.05
19.04
19.88
19.10
17.39
15.45
13.82
12.87
12.78
13.58
15.14
17.13
19.10
20.45
20.74
19.66
17.25
13.79
9.76
5.67
1.92
-1.16
-3.44
-4.81
-5.25
-4.77
-3.46
-1.53
0.76
3.03
4.95
6.21
6.68
6.40
5.57
4.48
3.45
2.69
2.32
2.34
2.72
3.38
4.19
4.90
5.16
4.60
2.97
0.23
-3.33
-7.20
-10.84
-13.89
-16.29
-18.24
-20.12
-22.30
-24.97
-28.08
-31.37
-34.50
-37.12
-38.96
-39.86
-39.72
-38.46
-36.05
-32.53
-28.06
-22.90
-17.44
-12.09
-7.16
-2.87
0.74
3.74
6.26
8.41
10.30
11.97
13.47
14.87
16.21
17.50
18.67
19.51
19.80
19.30
17.95
15.80
13.05
9.92
6.64
3.43
0.55
-1.77
-3.31
-3.98
-3.86
-3.11
-1.92
-0.42
1.34
3.35
5.54
7.75
9.78
11.45
12.69
13.62
14.41
15.22
16.07
16.82
17.22
16.99
15.94
14.09
11.66
8.99
6.36
3.93
1.66
-0.62
-3.07
-5.67
-8.21
-10.32
-11.73
-12.34
-12.36
-12.17
-12.20
-12.73
-13.78
-15.22
-16.81
-18.43
-20.07
-21.78
-23.56
-25.23
-26.51
-26.99
-26.44
-24.80
-22.19
-18.94
-15.40
-11.93
-8.80
-6.20
-4.21
-2.81
-1.87
-1.21
-0.66
-0.17
0.26
0.56
0.77
1.02
1.55
2.55
4.02
5.71
7.21
8.11
8.17
7.36
5.86
3.88
1.65
-0.67
-3.02
-5.32
-7.55
-9.74
-11.87
-13.89
-15.70
-17.18
-18.16
-18.59
-18.50
-18.03
-17.38
-16.70
-16.01
-15.24
-14.22
-12.83
-11.06
-9.08
-7.16
-5.54
-4.35
-3.50
-2.77
-1.87
-0.65
0.84
2.43
3.89
5.16
6.39
7.85
9.81
12.29
14.99
17.28
18.56
18.45
16.96
14.43
11.33
7.97
4.51
1.01
-2.35
-5.22
-7.19
-7.97
-7.56
-6.29
-4.65
-3.09
-1.85
-0.99
-0.45
-0.11
0.05
0.02
-0.19
-0.54
-0.93
-1.18
-1.07
-0.48
0.63
2.07
3.53
4.68
5.28
5.25
4.69
3.76
2.59
1.29
-0.11
-1.52
-2.83
-4.03
-5.18
-6.50
-8.21
-10.48
-13.20
-16.05
-18.53
-20.17
-20.70
-20.04
-18.40
-16.07
-13.44
-10.79
-8.31
-6.10
-4.21
-2.71
-1.66
-1.12
-1.03
-1.23
-1.43
-1.35
-0.80
0.21
1.48
2.69
3.56
3.93
3.82
3.42
2.96
2.64
2.51
2.46
2.34
2.01
1.43
0.69
-0.15
-1.13
-2.41
-4.15
-6.40
-8.87
-11.04
-12.30
-12.29
-11.03
-8.87
-6.26
-3.54
-0.80
2.06
5.08
8.15
10.96
13.19
14.63
15.32
15.43
15.17
14.72
14.20
13.76
13.62
13.98
14.89
16.19
17.45
18.20
18.13
17.19
15.64
13.88
12.23
10.79
9.45
8.02
6.32
4.31
2.02
-0.50
-3.31
-6.49
-10.08
-13.91
-17.57
-20.47
-22.07
-22.07
-20.54
-17.79
-14.31
-10.51
-6.70
-3.08
0.18
2.83
4.62
5.39
5.20
4.34
3.25
2.38
2.05
2.36
3.22
4.42
5.72
6.95
7.97
8.67
8.96
8.80
8.23
7.33
6.31
5.42
4.80
4.51
4.41
4.29
3.85
2.88
1.23
-1.11
-4.07
-7.49
-11.18
-14.97
-18.71
-22.18
-25.07
-27.03
-27.73
-27.06
-25.14
-22.36
-19.20
-16.08
-13.21
-10.52
-7.89
-5.23
-2.61
-0.28
1.53
2.71
3.38
3.83
4.40
5.34
6.74
8.50
10.41
12.24
13.78
14.89
15.52
15.69
15.49
15.04
14.41
13.70
12.93
12.11
11.26
10.39
9.45
8.33
6.91
5.10
2.97
0.75
-1.25
-2.86
-4.08
-5.21
-6.62
-8.52
-10.76
-12.82
-13.98
-13.64
-11.52
-7.79
-3.01
2.17
7.10
11.35
14.71
17.11
18.63
19.44
19.76
19.82
19.85
19.99
20.31
20.80
21.35
21.79
21.95
21.72
21.07
20.02
18.64
16.95
14.93
12.57
9.90
7.08
4.34
1.93
0.02
-1.32
-2.17
-2.70
-3.12
-3.67
-4.55
-5.92
-7.85
-10.31
-13.07
-15.82
-18.12
-19.58
-19.88
-18.98
-17.00
-14.20
-10.86
-7.25
-3.60
-0.13
2.94
5.42
7.21
8.35
8.99
9.32
9.47
9.47
9.30
8.92
8.42
7.90
7.53
7.45
7.67
8.13
8.63
8.95
8.80
7.97
6.34
3.94
0.98
-2.24
-5.38
-8.13
-10.30
-11.87
-12.94
-13.76
-14.69
-16.04
-18.03
-20.59
-23.37
-25.85
-27.50
-27.98
-27.24
-25.38
-22.62
-19.14
-15.08
-10.58
-5.91
-1.43
2.45
5.40
7.25
8.08
8.06
7.52
6.76
6.08
5.75
5.96
6.74
7.94
9.28
10.41
11.09
11.26
10.99
10.44
9.65
8.56
7.07
5.15
2.98
0.84
-1.00
-2.50
-3.75
-5.02
-6.42
-7.93
-9.42
-10.84
-12.28
-13.99
-16.20
-18.86
-21.63
-23.93
-25.17
-25.00
-23.42
-20.67
-17.11
-13.06
-8.72
-4.21
0.31
4.66
8.51
11.57
13.63
14.66
14.86
14.61
14.28
14.18
14.47
15.11
16.02
17.06
18.06
18.90
19.42
19.49
18.99
17.92
16.28
14.20
11.78
9.10
6.27
3.36
0.53
-2.09
-4.37
-6.23
-7.71
-8.94
-10.19
-11.72
-13.83
-16.59
-19.88
-23.32
-26.39
-28.56
-29.42
-28.79
-26.64
-23.12
-18.50
-13.16
-7.58
-2.26
2.39
6.15
8.97
11.02
12.45
13.43
14.03
14.34
14.48
14.65
14.96
15.46
16.07
16.62
17.02
17.29
17.55
17.92
18.41
18.84
18.91
18.39
17.22
15.58
13.88
12.54
11.84
11.78
12.08
12.31
12.11
11.31
10.03
8.56
7.19
6.04
5.10
4.24
3.45
2.99
3.35
5.13
8.85
14.84
23.07
33.14
44.15
54.67
62.77
66.30
63.39
53.11
35.86
13.46
-11.30
-35.39
-56.22
-72.05
-82.08
-86.15
-84.55
-78.00
-67.61
-54.97
-41.94
-30.30
-21.40
-15.81
-13.37
-13.46
-15.32
-18.28
-21.85
-25.59
-29.08
-31.93
-33.81
-34.66
-34.65
-34.12
-33.47
-33.09
-33.28
-34.15
-35.62
-37.37
-38.85
-39.44
-38.59
-36.06
-31.93
-26.57
-20.35
-13.58
-6.37
1.20
9.00
16.72
23.80
29.65
33.76
35.93
36.32
35.40
33.79
32.10
30.69
29.60
28.69
27.69
26.49
25.14
23.85
22.76
21.83
20.80
19.33
17.16
14.32
11.16
8.11
5.58
3.70
2.29
0.96
-0.70
-2.91
-5.72
-8.96
-12.42
-15.87
-19.13
-22.04
-24.32
-25.63
-25.50
-23.62
-19.89
-14.61
-8.38
-1.94
4.00
9.00
12.83
15.51
17.15
17.91
18.00
17.66
17.17
16.79
16.70
16.91
17.36
17.93
18.55
19.21
19.92
20.58
20.98
20.88
20.03
18.42
16.19
13.65
11.11
8.78
6.71
4.85
3.09
1.26
-0.81
-3.27
-6.22
-9.66
-13.37
-16.96
-19.97
-21.95
-22.59
-21.77
-19.47
-15.87
-11.23
-6.01
-0.81
3.73
7.08
9.02
9.63
9.25
8.29
7.08
5.78
4.53
3.45
2.70
2.46
2.74
3.41
4.11
4.47
4.15
3.03
1.13
-1.34
-4.08
-6.70
-8.83
-10.22
-10.89
-11.09
-11.32
-12.11
-13.82
-16.42
-19.49
-22.36
-24.32
-24.88
-23.83
-21.25
-17.41
-12.66
-7.37
-1.94
3.23
7.74
11.23
13.53
14.68
14.97
14.77
14.44
14.16
13.92
13.56
12.96
12.10
11.14
10.29
9.76
9.56
9.49
9.27
8.57
7.19
5.06
2.26
-0.99
-4.43
-7.80
-10.96
-13.95
-16.93
-20.11
-23.64
-27.41
-31.10
-34.18
-36.16
-36.59
-35.26
-32.18
-27.60
-21.92
-15.71
-9.52
-3.86
0.97
4.84
7.78
9.88
11.25
12.01
12.24
12.08
11.72
11.36
11.17
11.20
11.42
11.67
11.73
11.42
10.70
9.65
8.40
7.05
5.55
3.80
1.70
-0.73
-3.32
-5.84
-8.15
-10.31
-12.57
-15.28
-18.64
-22.62
-26.85
-30.69
-33.44
-34.50
-33.55
-30.59
-25.95
-20.16
-13.78
-7.30
-1.08
4.60
9.52
13.50
16.43
18.31
19.27
19.60
19.64
19.72
20.00
20.49
21.07
21.52
21.68
21.47
20.98
20.36
19.76
19.21
18.54
17.46
15.65
12.97
9.56
5.78
2.08
-1.28
-4.27
-7.20
-10.42
-14.21
-18.59
-23.28
-27.85
-31.81
-34.70
-36.17
-35.95
-33.87
-30.01
-24.60
-18.10
-11.08
-4.09
2.38
7.95
12.37
15.54
17.48
18.37
18.55
18.41
18.36
18.66
19.36
20.31
21.27
21.97
22.32
22.36
22.21
22.03
21.88
21.66
21.20
20.33
18.89
16.91
14.42
11.58
8.50
5.37
2.33
-0.46
-2.93
-5.14
-7.27
-9.62
-12.51
-16.10
-20.35
-24.89
-29.10
-32.24
-33.72
-33.15
-30.46
-25.91
-19.94
-13.08
-5.86
1.18
7.52
12.73
16.56
18.99
20.21
20.58
20.52
20.32
20.26
20.46
20.99
21.88
23.07
24.40
25.59
26.34
26.36
25.45
23.55
20.79
17.45
13.87
10.41
7.32
4.70
2.44
0.38
-1.62
-3.68
-5.79
-7.90
-9.98
-12.07
-14.28
-16.80
-19.72
-23.00
-26.36
-29.33
-31.37
-31.95
-30.75
-27.65
-22.80
-16.45
-9.05
-1.12
6.68
13.69
19.30
23.11
25.08
25.48
24.86
23.79
22.78
22.12
21.89
22.00
22.25
22.47
22.48
22.15
21.41
20.22
18.67
16.87
14.95
12.98
10.94
8.72
6.22
3.39
0.32
-2.86
-6.02
-9.05
-11.95
-14.77
-17.62
-20.68
-24.17
-28.20
-32.69
-37.27
-41.27
-43.92
-44.52
-42.74
-38.64
-32.61
-25.30
-17.40
-9.54
-2.19
4.30
9.80
14.29
17.87
20.67
22.82
24.40
25.45
26.00
26.13
25.95
25.64
25.43
25.47
25.74
26.06
26.13
25.65
24.49
22.69
20.46
18.02
15.50
12.88
10.08
6.99
3.61
0.07
-3.46
-6.80
-9.88
-12.72
-15.49
-18.38
-21.56
-25.08
-28.76
-32.20
-34.86
-36.14
-35.65
-33.21
-28.98
-23.36
-16.91
-10.17
-3.66
2.27
7.41
11.66
15.04
17.64
19.61
21.10
22.26
23.20
24.04
24.90
25.83
26.81
27.76
28.49
28.77
28.51
27.64
26.27
24.52
22.52
20.32
17.89
15.19
12.17
8.91
5.58
2.40
-0.43
-2.79
-4.76
-6.58
-8.60
-11.11
-14.28
-18.06
-22.10
-25.88
-28.77
-30.18
-29.78
-27.49
-23.56
-18.43
-12.69
-6.84
-1.29
3.64
7.75
10.86
12.89
13.83
13.90
13.39
12.69
12.09
11.76
11.73
11.95
12.36
12.92
13.61
14.34
14.94
15.11
14.59
13.20
10.97
8.10
4.93
1.83
-0.91
-3.19
-5.12
-6.98
-9.10
-11.74
-14.98
-18.67
-22.47
-25.92
-28.57
-30.06
-30.14
-28.70
-25.73
-21.36
-15.86
-9.65
-3.29
2.62
7.57
11.23
13.56
14.71
14.95
14.54
13.68
12.50
11.21
10.00
9.11
8.69
8.76
9.21
9.94
10.85
11.87
12.90
13.70
13.97
13.44
12.04
9.94
7.51
5.15
3.11
1.41
-0.13
-1.83
-3.99
-6.82
-10.44
-14.82
-19.73
-24.79
-29.39
-32.89
-34.76
-34.73
-32.83
-29.41
-24.97
-20.06
-15.15
-10.56
-6.47
-2.97
-0.06
2.34
4.31
6.02
7.62
9.23
10.93
12.75
14.60
16.35
17.86
19.00
19.66
19.85
19.53
18.74
17.56
16.06
14.35
12.54
10.71
8.82
6.82
4.55
1.93
-1.05
-4.24
-7.45
-10.52
-13.38
-16.11
-18.82
-21.59
-24.30
-26.65
-28.21
-28.58
-27.43
-24.70
-20.47
-15.01
-8.74
-2.17
4.13
9.71
14.23
17.58
19.82
21.12
21.69
21.75
21.51
21.14
20.84
20.67
20.59
20.43
19.97
19.09
17.79
16.21
14.50
12.70
10.74
8.49
5.88
2.97
-0.06
-3.01
-5.73
-8.29
-10.87
-13.66
-16.81
-20.30
-23.98
-27.58
-30.75
-33.12
-34.37
-34.25
-32.66
-29.61
-25.25
-19.85
-13.81
-7.60
-1.67
3.58
7.87
11.06
13.06
13.89
13.64
12.57
11.10
9.77
9.03
9.12
10.01
11.33
12.68
13.71
14.23
14.25
13.87
13.15
12.12
10.76
9.00
6.82
4.29
1.56
-1.10
-3.49
-5.49
-7.19
-8.81
-10.70
-13.16
-16.38
-20.30
-24.61
-28.80
-32.28
-34.52
-35.15
-34.07
-31.36
-27.23
-21.97
-15.89
-9.37
-2.87
3.06
7.90
11.29
13.18
13.82
13.70
13.37
13.22
13.43
13.97
14.74
15.60
16.44
17.06
17.26
16.82
15.73
14.15
12.43
10.84
9.48
8.16
6.52
4.30
1.45
-1.77
-5.00
-7.93
-10.50
-12.83
-15.17
-17.73
-20.61
-23.76
-26.99
-29.95
-32.25
-33.51
-33.47
-32.00
-29.11
-24.91
-19.56
-13.28
-6.44
0.47
6.88
12.26
16.30
18.98
20.47
21.11
21.22
21.00
20.65
20.30
20.07
20.07
20.30
20.71
21.18
21.50
21.48
20.97
19.90
18.31
16.30
14.06
11.80
9.68
7.82
6.21
4.80
3.44
1.91
-0.04
-2.70
-6.20
-10.47
-15.13
-19.52
-22.90
-24.63
-24.35
-21.99
-17.79
-12.17
-5.64
1.20
7.78
13.49
17.86
20.70
22.06
22.30
21.87
21.25
20.72
20.44
20.36
20.39
20.45
20.52
20.62
20.78
21.03
21.35
21.67
21.83
21.62
20.88
19.52
17.63
15.45
13.37
11.77
10.86
10.59
10.54
10.12
8.58
5.36
0.17
-6.80
-14.91
-23.18
-30.51
-35.97
-39.10
-39.98
-39.19
-37.66
-36.33
-35.89
-36.58
-38.11
-39.76
-40.63
-39.95
-37.38
-33.08
-27.60
-21.77
-16.29
-11.62
-7.96
-5.26
-3.47
-2.47
-2.20
-2.53
-3.26
-4.13
-4.91
-5.47
-5.81
-6.11
-6.58
-7.37
-8.50
-9.89
-11.45
-13.14
-15.05
-17.22
-19.57
-21.74
-23.23
-23.52
-22.24
-19.35
-15.04
-9.69
-3.76
2.26
7.86
12.60
16.12
18.22
19.03
18.91
18.40
18.04
18.20
18.96
20.14
21.32
22.11
22.28
21.89
21.14
20.31
19.50
18.61
17.42
15.66
13.25
10.25
6.83
3.20
-0.47
-4.03
-7.33
-10.32
-12.99
-15.54
-18.23
-21.34
-24.98
-28.95
-32.74
-35.62
-36.91
-36.15
-33.28
-28.57
-22.57
-15.93
-9.27
-3.12
2.20
6.54
9.95
12.59
14.67
16.37
17.79
18.92
19.69
20.10
20.25
20.30
20.44
20.69
21.04
21.31
21.35
20.99
20.23
19.03
17.47
15.64
13.62
11.53
9.46
7.45
5.43
3.33
1.00
-1.68
-4.76
-8.28
-12.14
-16.18
-20.04
-23.24
-25.27
-25.75
-24.56
-21.82
-17.84
-12.96
-7.48
-1.71
4.05
9.46
14.14
17.77
20.20
21.47
21.75
21.32
20.45
19.39
18.27
17.23
16.37
15.77
15.48
15.44
15.49
15.34
14.75
13.54
11.73
9.55
7.24
4.97
2.75
0.40
-2.24
-5.19
-8.30
-11.31
-14.05
-16.47
-18.76
-21.11
-23.64
-26.20
-28.45
-29.90
-30.07
-28.68
-25.64
-21.14
-15.57
-9.44
-3.30
2.40
7.35
11.40
14.51
16.66
17.81
18.00
17.34
16.08
14.55
13.12
12.03
11.37
11.11
11.17
11.43
11.80
12.15
12.35
12.25
11.75
10.83
9.56
8.03
6.32
4.47
2.47
0.31
-1.99
-4.32
-6.55
-8.52
-10.22
-11.83
-13.67
-16.09
-19.22
-22.85
-26.39
-29.04
-30.08
-29.13
-26.26
-21.88
-16.46
-10.39
-3.90
2.79
9.32
15.16
19.75
22.68
23.95
23.98
23.36
22.70
22.30
22.17
22.10
21.89
21.45
20.78
19.92
18.84
17.46
15.71
13.58
11.15
8.59
5.97
3.33
0.65
-2.05
-4.64
-6.97
-8.90
-10.49
-11.90
-13.38
-15.18
-17.41
-20.00
-22.72
-25.19
-26.99
-27.75
-27.17
-25.13
-21.69
-17.09
-11.68
-5.90
-0.21
4.96
9.24
12.37
14.25
14.98
14.83
14.15
13.28
12.50
11.92
11.59
11.47
11.48
11.48
11.39
11.08
10.51
9.63
8.43
6.96
5.25
3.37
1.37
-0.67
-2.76
-4.93
-7.23
-9.69
-12.29
-14.97
-17.69
-20.46
-23.26
-26.01
-28.42
-30.09
-30.53
-29.42
-26.72
-22.76
-18.12
-13.38
-8.92
-4.87
-1.16
2.31
5.54
8.40
10.70
12.36
13.43
14.09
14.58
15.10
15.73
16.41
17.04
17.50
17.74
17.75
17.53
17.05
16.21
14.82
12.70
9.81
6.31
2.53
-1.15
-4.40
-7.07
-9.18
-10.93
-12.65
-14.65
-17.20
-20.41
-24.20
-28.21
-31.91
-34.66
-35.94
-35.44
-33.14
-29.27
-24.21
-18.43
-12.42
-6.66
-1.52
2.68
5.84
8.04
9.47
10.38
10.94
11.26
11.46
11.64
11.95
12.54
13.41
14.45
15.43
16.10
16.23
15.71
14.52
12.74
10.47
7.89
5.17
2.50
-0.02
-2.34
-4.52
-6.61
-8.67
-10.68
-12.68
-14.70
-16.88
-19.35
-22.14
-25.07
-27.72
-29.50
-29.84
-28.40
-25.15
-20.43
-14.79
-8.80
-2.95
2.41
7.03
10.73
13.41
15.04
15.76
15.80
15.43
14.87
14.16
13.25
12.02
10.47
8.77
7.39
6.89
7.84
10.50
14.66
19.59
24.14
27.21
28.00
26.39
22.86
18.26
13.42
8.84
4.62
0.57
-3.53
-7.78
-12.11
-16.29
-20.05
-23.13
-25.26
-26.19
-25.76
-23.84
-20.45
-15.81
-10.30
-4.44
1.20
6.15
10.07
12.83
14.52
15.40
15.76
15.85
15.85
15.89
16.07
16.50
17.18
18.04
18.90
19.55
19.83
19.64
18.95
17.70
15.82
13.29
10.16
6.64
3.01
-0.44
-3.57
-6.45
-9.23
-12.11
-15.21
-18.53
-21.99
-25.44
-28.65
-31.29
-33.00
-33.48
-32.53
-30.11
-26.36
-21.49
-15.76
-9.54
-3.27
2.53
7.35
10.81
12.79
13.44
13.10
12.24
11.27
10.54
10.24
10.47
11.14
12.06
12.94
13.55
13.71
13.39
12.60
11.38
9.73
7.67
5.24
2.61
-0.02
-2.48
-4.71
-6.87
-9.23
-12.02
-15.28
-18.79
-22.07
-24.62
-26.03
-26.03
-24.55
-21.62
-17.41
-12.21
-6.41
-0.54
4.88
9.39
12.69
14.69
15.47
15.26
14.33
13.07
11.82
10.91
10.51
10.64
11.16
11.86
12.46
12.71
12.43
11.47
9.73
7.26
4.21
0.82
-2.65
-5.95
-8.94
-11.63
-14.14
-16.67
-19.41
-22.48
-25.82
-29.30
-32.69
-35.76
-38.30
-40.04
-40.68
-39.90
-37.42
-33.14
-27.24
-20.18
-12.57
-5.06
1.85
7.87
12.85
16.74
19.54
21.28
22.07
22.15
21.92
21.72
21.82
22.22
22.72
23.03
22.91
22.35
21.47
20.51
19.52
18.42
16.96
14.86
12.07
8.72
5.13
1.67
-1.39
-3.99
-6.23
-8.36
-10.69
-13.49
-16.94
-21.00
-25.42
-29.70
-33.25
-35.47
-35.89
-34.28
-30.68
-25.43
-19.05
-12.20
-5.51
0.54
5.69
9.88
13.14
15.53
17.07
17.92
18.33
18.69
19.37
20.58
22.21
23.96
25.40
26.21
26.28
25.70
24.68
23.46
22.16
20.87
19.54
18.15
16.59
14.77
12.58
10.02
7.13
4.08
1.06
-1.73
-4.22
-6.44
-8.61
-11.08
-14.21
-18.20
-22.95
-28.03
-32.69
-36.09
-37.49
-36.44
-32.91
-27.21
-19.91
-11.68
-3.25
4.75
11.74
17.32
21.35
23.89
25.27
25.91
26.24
26.57
26.97
27.38
27.59
27.45
26.95
26.20
25.39
24.68
24.06
23.38
22.46
21.15
19.44
17.46
15.35
13.21
10.98
8.59
5.91
2.96
-0.15
-3.29
-6.29
-9.10
-11.73
-14.33
-17.08
-20.22
-23.88
-28.00
-32.29
-36.19
-39.03
-40.23
-39.43
-36.62
-32.04
-26.17
-19.51
-12.55
-5.70
0.72
6.41
11.18
14.90
17.56
19.28
20.29
20.85
21.26
21.69
22.20
22.72
23.12
23.25
23.06
22.58
21.87
20.93
19.63
17.78
15.22
11.94
8.17
4.28
0.66
-2.46
-5.08
-7.39
-9.66
-12.14
-14.95
-18.17
-21.81
-25.78
-29.92
-33.84
-37.04
-38.94
-39.06
-37.18
-33.37
-27.97
-21.49
-14.52
-7.59
-1.14
4.52
9.18
12.74
15.20
16.68
17.40
17.65
17.75
17.95
18.37
19.01
19.72
20.36
20.77
20.80
20.38
19.46
18.06
16.25
14.17
11.90
9.50
7.00
4.42
1.80
-0.71
-3.00
-5.05
-6.97
-9.02
-11.43
-14.37
-17.87
-21.84
-26.09
-30.38
-34.36
-37.55
-39.43
-39.60
-37.87
-34.43
-29.69
-24.18
-18.34
-12.50
-6.93
-1.85
2.54
6.09
8.77
10.69
12.04
12.98
13.64
14.14
14.59
15.12
15.85
16.82
17.97
19.15
20.14
20.75
20.83
20.30
19.16
17.54
15.62
13.62
11.73
10.04
8.55
7.13
5.67
4.07
2.30
0.34
-1.83
-4.26
-7.03
-10.21
-13.74
-17.36
-20.57
-22.78
-23.46
-22.33
-19.47
-15.21
-10.00
-4.30
1.52
7.10
12.07
16.02
18.65
19.83
19.70
18.64
17.12
15.60
14.42
13.75
13.64
14.06
14.87
15.89
16.89
17.61
17.87
17.51
16.48
14.81
12.57
9.80
6.61
3.13
-0.46
-3.89
-6.99
-9.69
-12.13
-14.57
-17.33
-20.50
-23.88
-26.97
-29.13
-29.81
-28.69
-25.80
-21.41
-15.93
-9.72
-3.08
3.65
10.11
15.82
20.25
23.02
23.97
23.30
21.52
19.20
16.89
14.95
13.49
12.51
11.91
11.57
11.35
11.07
10.55
9.56
7.97
5.71
2.89
-0.30
-3.57
-6.67
-9.50
-12.07
-14.53
-17.08
-19.88
-22.98
-26.37
-29.95
-33.53
-36.80
-39.36
-40.75
-40.55
-38.55
-34.79
-29.59
-23.42
-16.82
-10.25
-4.10
1.32
5.79
9.14
11.36
12.57
13.03
13.10
13.11
13.29
13.68
14.19
14.62
14.83
14.78
14.46
13.90
13.05
11.85
10.18
8.03
5.40
2.42
-0.79
-4.11
-7.42
-10.61
-13.66
-16.61
-19.61
-22.83
-26.34
-30.01
-33.49
-36.24
-37.74
-37.61
-35.75
-32.30
-27.57
-21.89
-15.59
-9.04
-2.62
3.13
7.72
10.80
12.34
12.63
12.25
11.76
11.53
11.66
11.96
12.29
12.56
12.88
13.41
14.24
15.24
16.14
16.55
16.24
15.15
13.41
11.22
8.81
6.30
3.77
1.21
-1.38
-4.12
-7.11
-10.48
-14.22
-18.05
-21.47
-23.87
-24.64
-23.43
-20.28
-15.55
-9.79
-3.63
2.37
7.85
12.58
16.44
19.36
21.31
22.32
22.52
22.22
21.78
21.57
21.74
22.25
22.87
23.33
23.49
23.29
22.71
21.75
20.29
18.20
15.40
11.93
7.96
3.71
-0.60
-4.74
-8.56
-11.93
-14.81
-17.32
-19.72
-22.25
-25.01
-27.79
-30.01
-31.03
-30.26
-27.52
-22.97
-17.08
-10.41
-3.47
3.25
9.34
14.32
17.84
19.76
20.20
19.60
18.47
17.24
16.10
15.09
14.14
13.30
12.67
12.38
12.36
12.40
12.09
11.15
9.50
7.35
5.08
2.95
0.99
-0.98
-3.27
-6.06
-9.33
-12.88
-16.51
-20.11
-23.67
-27.17
-30.40
-32.94
-34.29
-33.99
-31.85
-27.99
-22.74
-16.61
-10.15
-3.81
1.98
6.88
10.69
13.36
15.01
15.91
16.32
16.49
16.55
16.54
16.44
16.27
16.08
15.99
16.02
16.06
15.91
15.33
14.13
12.36
10.18
7.81
5.41
3.02
0.57
-2.02
-4.79
-7.78
-11.01
-14.51
-18.23
-21.98
-25.34
-27.81
-28.85
-28.19
-25.88
-22.20
-17.60
-12.49
-7.16
-1.81
3.33
7.98
11.83
14.63
16.35
17.13
17.35
17.37
17.46
17.74
18.20
18.69
19.07
19.21
19.02
18.56
17.89
17.11
16.23
15.09
13.46
11.11
7.99
4.32
0.57
-2.71
-5.15
-6.74
-7.84
-9.08
-10.99
-13.80
-17.33
-21.05
-24.35
-26.65
-27.56
-26.96
-24.85
-21.38
-16.77
-11.38
-5.58
0.14
5.36
9.72
12.93
14.94
15.89
16.17
16.28
16.71
17.67
19.05
20.47
21.50
21.90
21.76
21.39
21.08
20.93
20.81
20.46
19.66
18.32
16.55
14.47
12.17
9.73
7.15
4.49
1.83
-0.75
-3.26
-5.79
-8.53
-11.64
-15.15
-18.89
-22.44
-25.25
-26.80
-26.75
-25.04
-21.94
-17.87
-13.30
-8.56
-3.86
0.63
4.69
8.12
10.65
12.13
12.62
12.38
11.81
11.32
11.17
11.40
11.87
12.34
12.64
12.70
12.54
12.21
11.73
11.00
9.90
8.35
6.41
4.25
2.14
0.36
-0.93
-1.75
-2.27
-2.80
-3.67
-5.09
-7.12
-9.58
-12.15
-14.47
-16.20
-17.12
-17.06
-15.98
-13.86
-10.84
-7.11
-3.03
1.05
4.77
7.82
10.03
11.24
11.49
10.90
9.76
8.38
7.08
6.04
5.32
4.89
4.69
4.63
4.62
4.52
4.19
3.49
2.38
0.95
-0.69
-2.40
-4.16
-5.96
-7.77
-9.56
-11.25
-12.84
-14.40
-16.13
-18.26
-20.93
-24.13
-27.63
-30.95
-33.52
-34.77
-34.30
-32.02
-28.14
-23.09
-17.37
-11.42
-5.55
-0.01
5.01
9.29
12.73
15.29
17.13
18.52
19.66
20.68
21.61
22.40
23.00
23.41
23.62
23.59
23.24
22.45
21.12
19.22
16.81
13.98
10.92
7.79
4.75
1.95
-0.52
-2.68
-4.66
-6.64
-8.83
-11.37
-14.30
-17.53
-20.86
-24.02
-26.66
-28.45
-29.06
-28.32
-26.16
-22.73
-18.31
-13.30
-8.06
-2.92
1.87
6.10
9.56
12.14
13.78
14.59
14.84
14.85
14.95
15.41
16.31
17.57
18.94
20.05
20.62
20.46
19.55
18.05
16.18
14.14
12.02
9.85
7.57
5.16
2.63
0.00
-2.65
-5.28
-7.82
-10.24
-12.53
-14.80
-17.18
-19.79
-22.57
-25.25
-27.43
-28.66
-28.67
-27.37
-24.90
-21.50
-17.42
-12.87
-8.05
-3.22
1.30
5.16
8.18
10.28
11.61
12.43
13.01
13.54
14.12
14.69
15.17
15.51
15.77
16.08
16.57
17.24
17.93
18.34
18.15
17.21
15.60
13.53
11.26
8.93
6.58
4.19
1.79
-0.51
-2.68
-4.78
-7.11
-9.95
-13.53
-17.73
-22.09
-25.94
-28.57
-29.49
-28.50
-25.72
-21.49
-16.28
-10.61
-4.95
0.24
4.61
7.99
10.31
11.68
12.33
12.48
12.39
12.23
12.15
12.24
12.55
13.06
13.69
14.30
14.69
14.76
14.45
13.79
12.82
11.54
9.92
7.94
5.60
2.98
0.26
-2.39
-4.80
-6.94
-8.90
-10.91
-13.15
-15.71
-18.35
-20.55
-21.60
-20.89
-18.11
-13.50
-7.73
-1.71
3.76
8.26
11.78
14.57
16.93
18.99
20.66
21.77
22.25
22.23
22.00
22.03
22.66
24.09
26.28
28.88
31.24
32.45
31.41
27.05
18.72
6.43
-8.96
-25.92
-42.58
-57.17
-68.41
-75.55
-78.35
-77.03
-72.11
-64.52
-55.48
-46.33
-38.20
-31.75
-26.96
-23.32
-20.11
-16.75
-13.02
-9.06
-5.21
-1.85
0.78
2.56
3.53
3.78
3.50
2.87
2.09
1.35
0.71
0.28
0.12
0.28
0.76
1.56
2.58
3.74
4.98
6.18
7.26
8.07
8.48
8.44
7.96
7.13
6.08
4.92
3.66
2.23
0.57
-1.37
-3.57
-6.08
-8.94
-12.21
-15.82
-19.55
-22.97
-25.54
-26.83
-26.53
-24.66
-21.37
-17.02
-11.96
-6.60
-1.33
3.46
7.45
10.44
12.40
13.50
14.03
14.28
14.56
15.02
15.74
16.63
17.56
18.36
18.87
19.02
18.78
18.22
17.41
16.41
15.25
13.92
12.39
10.68
8.85
6.99
5.09
3.06
0.71
-2.18
-5.68
-9.64
-13.73
-17.50
-20.49
-22.31
-22.74
-21.70
-19.28
-15.67
-11.21
-6.27
-1.29
3.36
7.41
10.76
13.42
15.45
16.91
17.84
18.23
18.08
17.45
16.46
15.33
14.18
13.11
12.05
10.84
9.33
7.45
5.27
2.98
0.77
-1.24
-3.03
-4.69
-6.35
-8.20
-10.35
-12.88
-15.75
-18.82
-21.80
-24.29
-25.86
-26.13
-24.86
-22.04
-17.84
-12.60
-6.72
-0.65
5.16
10.26
14.29
17.01
18.39
18.56
17.80
16.45
14.87
13.36
12.15
11.38
11.11
11.28
11.74
12.22
12.41
12.05
10.99
9.22
6.85
4.11
1.27
-1.46
-3.99
-6.38
-8.87
-11.72
-15.10
-19.06
-23.38
-27.69
-31.54
-34.47
-36.09
-36.10
-34.33
-30.81
-25.79
-19.80
-13.46
-7.35
-1.83
2.97
7.03
10.40
13.05
14.91
15.98
16.41
16.47
16.45
16.57
16.82
17.08
17.19
17.09
16.84
16.51
16.10
15.50
14.50
12.95
10.81
8.22
5.39
2.54
-0.15
-2.66
-5.07
-7.56
-10.38
-13.79
-17.85
-22.42
-27.01
-30.96
-33.58
-34.37
-33.15
-30.05
-25.41
-19.62
-13.14
-6.34
0.33
6.52
11.92
16.36
19.78
22.22
23.85
24.87
25.49
25.87
26.11
26.20
26.04
25.46
24.39
22.83
20.90
18.75
16.51
14.24
11.92
9.49
6.93
4.24
1.53
-1.07
-3.42
-5.52
-7.48
-9.53
-11.97
-14.99
-18.62
-22.68
-26.77
-30.39
-33.00
-34.23
-33.81
-31.69
-28.04
-23.08
-17.12
-10.42
-3.22
4.20
11.45
18.10
23.72
28.01
30.96
32.81
33.98
34.90
35.83
36.76
37.48
37.72
37.31
36.25
34.67
32.71
30.47
27.92
24.99
21.63
17.91
14.03
10.29
6.93
4.11
1.81
-0.12
-1.88
-3.68
-5.78
-8.44
-11.84
-16.03
-20.84
-25.74
-30.00
-32.78
-33.44
-31.75
-27.97
-22.74
-16.89
-11.14
-5.95
-1.46
2.37
5.57
8.08
9.75
10.49
10.39
9.83
9.31
9.25
9.80
10.78
11.80
12.51
12.78
12.76
12.69
12.72
12.76
12.50
11.62
9.94
7.57
4.80
2.00
-0.59
-2.90
-5.07
-7.33
-9.91
-12.99
-16.54
-20.36
-24.03
-26.97
-28.61
-28.52
-26.60
-22.97
-18.02
-12.20
-5.95
0.27
6.05
10.99
14.82
17.43
18.93
19.58
19.74
19.70
19.61
19.46
19.18
18.72
18.08
17.32
16.52
15.72
14.91
13.95
12.76
11.17
9.10
6.48
3.36
-0.09
-3.61
-6.86
-9.59
-11.71
-13.36
-14.85
-16.56
-18.82
-21.80
-25.46
-29.51
-33.49
-36.76
-38.71
-38.87
-37.04
-33.36
-28.19
-22.03
-15.36
-8.61
-2.15
3.63
8.40
11.96
14.31
15.70
16.51
17.16
17.92
18.87
19.97
21.10
22.19
23.20
24.06
24.66
24.79
24.26
22.93
20.79
17.99
14.80
11.56
8.50
5.81
3.53
1.60
-0.09
-1.72
-3.50
-5.65
-8.36
-11.71
-15.61
-19.76
-23.70
-26.92
-28.93
-29.40
-28.16
-25.24
-20.87
-15.42
-9.41
-3.39
2.18
6.95
10.77
13.63
15.70
17.14
18.16
18.95
19.63
20.25
20.79
21.20
21.42
21.50
21.47
21.38
21.17
20.70
19.80
18.35
16.39
14.07
11.58
9.09
6.66
4.28
1.94
-0.31
-2.40
-4.34
-6.23
-8.30
-10.82
-13.92
-17.47
-21.09
-24.18
-26.11
-26.47
-25.06
-22.00
-17.60
-12.31
-6.62
-1.04
3.95
7.97
10.80
12.43
13.03
12.91
12.44
11.93
11.64
11.72
12.18
12.90
13.67
14.29
14.65
14.72
14.52
14.10
13.42
12.39
10.97
9.17
7.13
5.02
3.00
1.09
-0.76
-2.69
-4.78
-7.11
-9.72
-12.61
-15.69
-18.76
-21.48
-23.41
-24.19
-23.59
-21.60
-18.48
-14.59
-10.38
-6.20
-2.36
0.92
3.54
5.41
6.60
7.16
7.27
7.16
7.05
7.15
7.58
8.33
9.27
10.24
11.07
11.69
12.02
12.01
11.60
10.71
9.36
7.67
5.86
4.17
2.77
1.68
0.76
-0.21
-1.44
-3.09
-5.20
-7.70
-10.45
-13.13
-15.35
-16.66
-16.67
-15.17
-12.26
-8.31
-3.86
0.54
4.42
7.52
9.70
10.99
11.47
11.32
10.77
10.06
9.36
8.86
8.61
8.65
8.96
9.45
9.93
10.17
9.93
9.05
7.55
5.62
3.55
1.55
-0.27
-1.95
-3.53
-5.02
-6.38
-7.54
-8.61
-9.79
-11.34
-13.35
-15.61
-17.63
-18.84
-18.82
-17.47
-15.03
-11.94
-8.61
-5.36
-2.37
0.24
2.32
3.69
4.22
3.88
2.85
1.54
0.38
-0.20
-0.00
0.94
2.34
3.80
4.90
5.39
5.27
4.70
3.92
3.13
2.37
1.57
0.63
-0.51
-1.86
-3.36
-5.00
-6.84
-9.01
-11.45
-13.95
-16.02
-17.13
-16.86
-15.18
-12.39
-9.04
-5.70
-2.78
-0.37
1.57
3.16
4.45
5.38
5.86
5.85
5.42
4.74
4.00
3.38
2.94
2.66
2.45
2.23
1.98
1.68
1.33
0.89
0.31
-0.44
-1.41
-2.54
-3.79
-5.09
-6.40
-7.70
-9.06
-10.59
-12.45
-14.67
-17.14
-19.50
-21.20
-21.74
-20.88
-18.68
-15.53
-11.95
-8.36
-5.06
-2.20
0.12
1.83
2.84
3.13
2.85
2.26
1.66
1.28
1.22
1.46
1.99
2.75
3.67
4.61
5.36
5.70
5.51
4.83
3.85
2.76
1.68
0.57
-0.72
-2.29
-4.09
-6.01
-7.93
-9.81
-11.78
-13.92
-16.16
-18.16
-19.45
-19.54
-18.23
-15.66
-12.25
-8.57
-5.10
-2.16
0.16
1.90
3.15
3.99
4.43
4.48
4.19
3.67
3.12
2.73
2.60
2.77
3.15
3.61
4.07
4.47
4.75
4.84
4.58
3.86
2.64
1.05
-0.74
-2.49
-4.04
-5.38
-6.55
-7.66
-8.84
-10.24
-12.00
-14.20
-16.71
-19.19
-21.13
-21.92
-21.16
-18.81
-15.24
-11.12
-7.16
-3.85
-1.39
0.33
1.57
2.53
3.35
4.07
4.75
5.48
6.39
7.61
9.06
10.62
12.05
13.18
13.91
14.23
14.15
13.71
12.93
11.83
10.48
8.98
7.43
5.94
4.58
3.34
2.16
0.98
-0.32
-1.88
-3.77
-6.02
-8.54
-11.08
-13.29
-14.72
-14.93
-13.64
-10.79
-6.70
-1.94
2.80
6.98
10.29
12.70
14.37
15.46
16.08
16.28
16.10
15.62
14.98
14.33
13.78
13.34
12.97
12.61
12.24
11.79
11.23
10.50
9.57
8.47
7.29
6.12
5.01
3.96
2.96
2.04
1.18
0.34
-0.60
-1.83
-3.50
-5.73
-8.49
-11.65
-14.96
-18.09
-20.63
-22.12
-22.20
-20.72
-17.85
-14.02
-9.82
-5.71
-1.99
1.24
3.91
5.87
6.97
7.14
6.54
5.60
4.87
4.76
5.42
6.62
7.95
9.00
9.58
9.69
9.46
9.00
8.25
7.10
5.44
3.31
0.93
-1.35
-3.22
-4.56
-5.45
-6.09
-6.76
-7.63
-8.81
-10.34
-12.25
-14.50
-16.94
-19.26
-21.00
-21.66
-20.94
-18.86
-15.73
-12.08
-8.42
-5.06
-2.06
0.67
3.24
5.69
7.92
9.79
11.22
12.19
12.80
13.14
13.26
13.16
12.82
12.25
11.60
11.00
10.59
10.37
10.18
9.75
8.83
7.33
5.33
3.06
0.76
-1.36
-3.24
-4.86
-6.24
-7.41
-8.48
-9.64
-11.17
-13.29
-15.99
-18.87
-21.28
-22.55
-22.22
-20.31
-17.18
-13.42
-9.52
-5.78
-2.25
1.06
4.12
6.79
8.89
10.24
10.86
10.92
10.70
10.54
10.68
11.21
12.10
13.17
14.23
15.08
15.58
15.60
15.08
14.04
12.57
10.88
9.21
7.72
6.48
5.36
4.18
2.73
0.99
-0.97
-2.89
-4.57
-5.94
-7.13
-8.47
-10.27
-12.71
-15.65
-18.64
-21.03
-22.26
-21.96
-20.11
-17.02
-13.07
-8.69
-4.22
0.09
3.98
7.23
9.59
10.91
11.25
10.87
10.26
9.90
10.17
11.14
12.61
14.15
15.37
16.03
16.10
15.78
15.28
14.75
14.23
13.64
12.87
11.85
10.54
9.00
7.31
5.57
3.89
2.31
0.84
-0.61
-2.16
-3.91
-5.94
-8.30
-11.06
-14.13
-17.33
-20.26
-22.39
-23.24
-22.51
-20.25
-16.80
-12.67
-8.31
-4.02
-0.00
3.61
6.65
8.93
10.30
10.75
10.43
9.64
8.76
8.15
8.11
8.81
10.19
11.97
13.72
15.01
15.54
15.25
14.30
12.91
11.31
9.56
7.70
5.73
3.76
1.89
0.21
-1.31
-2.77
-4.33
-6.08
-8.03
-10.12
-12.28
-14.45
-16.60
-18.59
-20.18
-21.04
-20.81
-19.22
-16.29
-12.24
-7.55
-2.80
1.47
4.93
7.42
9.02
9.86
10.13
9.95
9.43
8.75
8.09
7.68
7.76
8.37
9.42
10.60
11.59
12.08
12.00
11.44
10.61
9.70
8.81
7.82
6.58
4.98
2.99
0.75
-1.53
-3.68
-5.67
-7.61
-9.73
-12.21
-15.06
-18.06
-20.84
-22.88
-23.69
-22.94
-20.54
-16.74
-12.02
-6.99
-2.23
1.82
4.94
7.05
8.21
8.53
8.21
7.49
6.71
6.18
6.14
6.64
7.57
8.70
9.79
10.67
11.25
11.47
11.32
10.75
9.78
8.45
6.85
5.04
3.03
0.84
-1.60
-4.29
-7.20
-10.27
-13.38
-16.35
-18.97
-21.00
-22.21
-22.42
-21.48
-19.34
-16.10
-12.00
-7.42
-2.85
1.30
4.70
7.23
8.90
9.82
10.08
9.78
9.04
8.07
7.19
6.69
6.77
7.42
8.48
9.61
10.52
11.01
10.98
10.44
9.47
8.23
6.87
5.56
4.37
3.27
2.14
0.81
-0.80
-2.73
-4.94
-7.29
-9.61
-11.69
-13.26
-14.03
-13.85
-12.78
-11.17
-9.62
-8.66
-8.68
-9.66
-11.31
-13.23
-15.15
-16.94
-18.56
-19.93
-20.76
-20.62
-19.12
-16.15
-11.96
-7.16
-2.48
1.43
4.21
5.85
6.57
6.67
6.35
5.72
4.75
3.41
1.73
-0.17
-2.10
-3.89
-5.46
-6.90
-8.39
-10.19
-12.48
-15.28
-18.42
-21.53
-24.16
-25.82
-26.20
-25.24
-23.06
-19.93
-16.10
-11.81
-7.25
-2.66
1.68
5.45
8.39
10.33
11.32
11.59
11.45
11.21
11.12
11.27
11.75
12.53
13.58
14.82
16.11
17.28
18.08
18.34
17.94
16.85
15.19
13.18
11.07
9.13
7.50
6.19
5.07
3.85
2.20
-0.17
-3.32
-7.07
-10.95
-14.37
-16.73
-17.58
-16.79
-14.50
-11.03
-6.86
-2.47
1.71
5.36
8.26
10.35
11.64
12.26
12.40
12.27
12.06
11.95
12.00
12.22
12.54
12.82
12.96
12.93
12.81
12.69
12.62
12.46
11.92
10.71
8.64
5.83
2.66
-0.36
-2.83
-4.59
-5.85
-7.02
-8.56
-10.84
-13.90
-17.52
-21.21
-24.32
-26.22
-26.42
-24.71
-21.21
-16.34
-10.72
-5.06
0.01
4.05
6.86
8.49
9.16
9.22
9.00
8.81
8.86
9.17
9.69
10.25
10.68
10.85
10.73
10.33
9.77
9.11
8.47
7.90
7.41
6.95
6.38
5.56
4.35
2.73
0.78
-1.30
-3.33
-5.23
-7.09
-9.15
-11.70
-14.95
-18.79
-22.79
-26.29
-28.60
-29.25
-28.15
-25.55
-21.89
-17.68
-13.24
-8.74
-4.30
-0.08
3.64
6.58
8.53
9.55
9.84
9.81
9.84
10.19
10.94
12.00
13.16
14.14
14.70
14.75
14.31
13.56
12.72
11.94
11.19
10.26
8.94
7.17
5.11
3.15
1.66
0.78
0.33
-0.14
-1.09
-2.88
-5.57
-8.99
-12.79
-16.58
-19.94
-22.46
-23.78
-23.67
-22.10
-19.22
-15.44
-11.25
-7.12
-3.43
-0.32
2.26
4.46
6.47
8.41
10.24
11.96
13.51
14.91
16.22
17.49
18.71
19.83
20.75
21.45
21.97
22.35
22.60
22.66
22.42
21.75
20.58
18.91
16.78
14.33
11.70
9.04
6.50
4.10
1.79
-0.53
-3.01
-5.71
-8.58
-11.39
-13.77
-15.27
-15.52
-14.36
-11.88
-8.46
-4.63
-0.84
2.60
5.64
8.27
10.45
12.02
12.71
12.39
11.19
9.55
8.09
7.39
7.69
8.84
10.39
11.81
12.73
13.01
12.75
12.11
11.25
10.22
9.00
7.56
5.95
4.17
2.28
0.31
-1.75
-3.91
-6.22
-8.77
-11.62
-14.73
-17.89
-20.71
-22.70
-23.40
-22.58
-20.32
-16.94
-12.94
-8.77
-4.78
-1.23
1.71
3.93
5.31
5.87
5.75
5.20
4.57
4.18
4.22
4.71
5.56
6.57
7.59
8.49
9.18
9.63
9.72
9.35
8.41
6.85
4.79
2.42
0.03
-2.19
-4.14
-5.89
-7.63
-9.52
-11.68
-14.16
-16.97
-20.07
-23.38
-26.62
-29.43
-31.25
-31.56
-30.04
-26.70
-21.96
-16.49
-11.04
-6.22
-2.35
0.49
2.43
3.64
4.33
4.67
4.85
5.13
5.71
6.74
8.17
9.78
11.25
12.29
12.78
12.73
12.31
11.67
10.86
9.84
8.46
6.59
4.19
1.39
-1.60
-4.45
-6.93
-8.96
-10.65
-12.29
-14.20
-16.61
-19.49
-22.55
-25.31
-27.24
-27.88
-26.95
-24.40
-20.40
-15.31
-9.64
-3.90
1.40
5.88
9.31
11.62
12.91
13.42
13.46
13.35
13.34
13.58
14.12
14.91
15.89
16.94
17.98
18.90
19.55
19.81
19.58
18.86
17.72
16.30
14.67
12.85
10.73
8.19
5.23
1.88
-1.68
-5.35
-9.08
-12.86
-16.60
-20.05
-22.81
-24.39
-24.40
-22.73
-19.52
-15.17
-10.16
-4.93
0.19
4.91
9.06
12.45
14.95
16.55
17.37
17.65
17.64
17.56
17.54
17.60
17.70
17.84
18.05
18.36
18.77
19.12
19.17
18.63
17.31
15.21
12.51
9.54
6.56
3.75
1.13
-1.35
-3.78
-6.20
-8.67
-11.21
-13.83
-16.51
-19.04
-21.04
-22.00
-21.44
-19.10
-15.12
-9.98
-4.34
1.09
5.78
9.45
12.02
13.62
14.45
14.78
14.85
14.92
15.18
15.76
16.71
18.00
19.54
21.20
22.85
24.41
25.79
26.87
27.41
27.06
25.41
22.12
17.14
10.81
3.80
-3.14
-9.43
-14.81
-19.44
-23.64
-27.66
-31.46
-34.68
-36.87
-37.73
-37.30
-35.94
-34.23
-32.65
-31.49
-30.81
-30.49
-30.35
-30.16
-29.61
-28.31
-25.88
-22.00
-16.63
-10.03
-2.82
4.23
10.43
15.26
18.49
20.12
20.28
19.17
17.05
14.21
10.97
7.65
4.49
1.59
-1.09
-3.70
-6.34
-9.03
-11.70
-14.29
-16.84
-19.56
-22.69
-26.27
-30.01
-33.27
-35.29
-35.43
-33.48
-29.72
-24.79
-19.39
-14.06
-9.05
-4.40
-0.05
3.90
7.29
9.89
11.63
12.69
13.43
14.26
15.46
17.00
18.62
19.99
20.85
21.18
21.12
20.81
20.29
19.44
18.08
16.07
13.47
10.50
7.46
4.63
2.11
-0.12
-2.29
-4.68
-7.58
-11.07
-15.01
-18.97
-22.36
-24.64
-25.46
-24.74
-22.66
-19.49
-15.54
-11.05
-6.31
-1.61
2.69
6.25
8.93
10.75
11.92
12.71
13.40
14.12
15.00
16.07
17.36
18.82
20.36
21.81
23.01
23.79
24.04
23.76
22.98
21.72
19.97
17.71
14.97
11.86
8.61
5.54
2.94
0.96
-0.51
-1.79
-3.33
-5.51
-8.43
-11.89
-15.38
-18.31
-20.12
-20.49
-19.29
-16.63
-12.75
-7.98
-2.75
2.49
7.32
11.45
14.73
17.18
18.89
20.01
20.70
21.16
21.57
22.11
22.80
23.53
24.01
23.92
23.09
21.56
19.63
17.68
15.94
14.48
13.13
11.66
9.92
7.91
5.77
3.64
1.55
-0.53
-2.71
-5.04
-7.56
-10.26
-13.18
-16.32
-19.56
-22.62
-24.99
-26.17
-25.74
-23.59
-19.96
-15.30
-10.17
-5.02
-0.18
4.15
7.80
10.64
12.54
13.46
13.51
12.97
12.23
11.68
11.59
11.95
12.52
12.92
12.78
11.97
10.59
8.89
7.16
5.59
4.22
2.96
1.67
0.29
-1.17
-2.61
-3.95
-5.23
-6.52
-8.05
-10.02
-12.57
-15.75
-19.41
-23.18
-26.56
-28.95
-29.87
-29.03
-26.53
-22.77
-18.33
-13.80
-9.57
-5.80
-2.45
0.57
3.21
5.40
7.00
8.02
8.63
9.14
9.78
10.60
11.45
12.04
12.22
12.01
11.59
11.17
10.82
10.44
9.86
8.98
7.83
6.56
5.28
3.99
2.55
0.83
-1.19
-3.35
-5.41
-7.18
-8.71
-10.27
-12.20
-14.64
-17.41
-19.97
-21.65
-21.89
-20.46
-17.54
-13.56
-9.03
-4.41
-0.01
3.99
7.46
10.32
12.53
14.09
15.05
15.49
15.51
15.30
15.06
15.04
15.36
16.00
16.77
17.44
17.83
17.85
17.55
16.98
16.13
14.95
13.38
11.43
9.26
7.10
5.16
3.56
2.25
1.09
-0.14
-1.59
-3.32
-5.31
-7.45
-9.73
-12.18
-14.91
-17.98
-21.21
-24.18
-26.25
-26.84
-25.66
-22.82
-18.81
-14.28
-9.82
-5.77
-2.28
0.74
3.35
5.58
7.41
8.74
9.49
9.69
9.51
9.31
9.47
10.30
11.78
13.63
15.38
16.62
17.16
17.08
16.56
15.83
14.96
13.91
12.62
11.11
9.51
7.95
6.51
5.19
3.88
2.48
0.87
-0.99
-3.16
-5.67
-8.57
-11.85
-15.37
-18.86
-21.89
-24.01
-24.87
-24.29
-22.37
-19.43
-15.89
-12.13
-8.42
-4.91
-1.72
1.07
3.35
5.06
6.29
7.20
8.01
8.91
9.99
11.24
12.56
13.82
14.88
15.67
16.17
16.37
16.33
16.06
15.55
14.78
13.72
12.39
10.89
9.34
7.88
6.52
5.28
4.05
2.80
1.46
0.03
-1.51
-3.27
-5.37
-7.92
-10.94
-14.22
-17.35
-19.81
-21.12
-21.03
-19.56
-16.92
-13.47
-9.59
-5.62
-1.90
1.26
3.60
4.99
5.46
5.22
4.58
3.83
3.19
2.81
2.75
2.97
3.42
3.93
4.37
4.57
4.46
4.03
3.29
2.26
0.96
-0.54
-2.14
-3.74
-5.27
-6.69
-8.04
-9.37
-10.75
-12.16
-13.60
-15.03
-16.34
-17.36
-17.84
-17.51
-16.17
-13.76
-10.40
-6.39
-2.10
2.06
5.73
8.60
10.49
11.35
11.30
10.59
9.51
8.40
7.50
6.96
6.81
6.96
7.27
7.55
7.64
7.45
6.99
6.30
5.40
4.33
3.04
1.55
-0.13
-1.95
-3.82
-5.63
-7.35
-8.98
-10.65
-12.60
-15.01
-17.93
-21.19
-24.31
-26.63
-27.55
-26.76
-24.33
-20.68
-16.39
-11.93
-7.59
-3.51
0.20
3.41
5.93
7.62
8.47
8.69
8.60
8.54
8.67
8.97
9.33
9.60
9.67
9.55
9.28
8.89
8.39
7.77
6.95
5.87
4.44
2.66
0.64
-1.41
-3.29
-4.88
-6.25
-7.69
-9.55
-12.10
-15.32
-18.89
-22.31
-25.05
-26.73
-27.18
-26.44
-24.67
-22.11
-19.00
-15.62
-12.19
-8.95
-6.03
-3.52
-1.42
0.27
1.62
2.66
3.38
3.75
3.81
3.65
3.43
3.35
3.54
4.02
4.68
5.33
5.76
5.85
5.53
4.82
3.74
2.33
0.66
-1.22
-3.22
-5.24
-7.18
-9.01
-10.75
-12.48
-14.36
-16.50
-18.84
-21.10
-22.80
-23.40
-22.54
-20.09
-16.31
-11.61
-6.48
-1.36
3.37
7.34
10.27
11.98
12.59
12.42
11.92
11.46
11.22
11.15
11.16
11.25
11.51
12.12
13.15
14.49
15.90
17.05
17.76
17.93
17.57
16.68
15.29
13.39
11.06
8.46
5.72
2.94
0.09
-2.90
-6.10
-9.39
-12.41
-14.69
-15.74
-15.29
-13.35
-10.19
-6.21
-1.85
2.47
6.40
9.65
12.05
13.52
14.07
13.85
13.07
11.95
10.74
9.62
8.70
8.05
7.69
7.63
7.89
8.46
9.25
10.05
10.58
10.55
9.87
8.59
6.95
5.11
3.08
0.70
-2.27
-5.95
-10.23
-14.73
-18.90
-22.17
-24.15
-24.58
-23.41
-20.84
-17.22
-13.04
-8.82
-5.04
-1.97
0.30
1.86
2.83
3.32
3.35
3.03
2.54
2.23
2.53
3.76
5.85
8.38
10.65
11.99
12.07
10.99
9.22
7.29
5.56
4.07
2.64
1.01
-0.90
-3.09
-5.50
-8.15
-11.12
-14.45
-17.95
-21.17
-23.55
-24.58
-24.01
-21.92
-18.64
-14.57
-10.14
-5.73
-1.68
1.71
4.20
5.74
6.40
6.47
6.23
5.94
5.76
5.79
6.03
6.48
7.04
7.58
7.91
7.80
7.12
5.85
4.10
2.10
0.10
-1.67
-3.17
-4.48
-5.80
-7.37
-9.40
-11.97
-15.14
-18.86
-23.01
-27.31
-31.33
-34.56
-36.53
-36.98
-35.94
-33.72
-30.71
-27.27
-23.65
-20.02
-16.58
-13.66
-11.58
-10.53
-10.36
-10.54
-10.31
-8.94
-6.08
-1.89
3.02
7.86
11.99
15.12
17.33
18.86
19.93
20.59
20.71
20.18
19.01
17.34
15.43
13.56
11.86
10.35
8.84
7.07
4.74
1.63
-2.23
-6.55
-10.76
-14.20
-16.30
-16.75
-15.59
-13.09
-9.64
-5.56
-1.12
3.54
8.25
12.88
17.30
21.40
25.15
28.53
31.49
33.91
35.63
36.49
36.45
35.57
34.06
32.17
30.12
28.09
26.10
24.15
22.12
19.89
17.37
14.52
11.44
8.32
5.35
2.71
0.38
-1.81
-4.14
-6.89
-10.27
-14.32
-18.94
-23.90
-28.84
-33.35
-36.97
-39.37
-40.37
-40.06
-38.66
-36.43
-33.56
-30.09
-26.08
-21.69
-17.31
-13.47
-10.73
-9.43
-9.61
-11.05
-13.30
-15.94
-18.69
-21.47
-24.38
-27.63
-31.44
-35.90
-40.78
-45.59
-49.67
-52.46
-53.66
-53.45
-52.39
-51.17
-50.38
-50.29
-50.85
-51.81
-53.00
-54.41
-56.31
-59.11
-63.30
-69.25
-77.08
-86.60
-97.24
-108.20
-118.52
-127.29
-133.65
-136.94
-136.75
-132.94
-125.68
-115.37
-102.43
-86.97
-68.72
-47.18
-22.14
5.77
34.96
63.35
89.17
111.57
130.93
148.21
164.23
179.08
192.12
202.53
209.90
214.53
217.13
218.27
217.93
215.37
209.55
199.66
185.59
167.94
147.90
126.92
106.33
87.20
70.32
56.14
44.85
36.42
30.56
26.75
24.36
22.65
20.99
18.90
16.15
12.79
9.06
5.41
2.34
0.33
-0.32
0.44
2.43
5.26
8.47
11.66
14.58
17.19
19.66
22.36
25.69
29.96
35.12
40.67
45.68
49.01
49.69
47.30
42.09
34.84
26.45
17.54
8.33
-1.07
-10.32
-18.47
-24.22
-26.54
-25.44
-22.25
-19.13
-18.07
-19.99
-24.42
-30.03
-35.44
-40.03
-43.93
-47.60
-51.25
-54.55
-56.70
-56.89
-54.62
-49.85
-42.91
-34.35
-24.90
-15.42
-6.84
-0.00
4.51
6.47
6.02
3.53
-0.35
-4.79
-8.85
-11.71
-12.84
-12.19
-10.19
-7.57
-5.07
-3.26
-2.35
-2.26
-2.77
-3.61
-4.59
-5.62
-6.65
-7.69
-8.70
-9.65
-10.48
-11.21
-11.84
-12.48
-13.24
-14.25
-15.54
-16.99
-18.32
-19.10
-18.95
-17.62
-15.12
-11.75
-7.97
-4.25
-0.92
1.86
4.08
5.78
6.90
7.40
7.20
6.38
5.18
3.99
3.25
3.26
4.10
5.57
7.27
8.80
9.87
10.37
10.39
10.01
9.33
8.34
6.99
5.30
3.39
1.52
-0.07
-1.21
-1.91
-2.34
-2.71
-3.25
-4.10
-5.34
-7.01
-9.02
-11.18
-13.18
-14.63
-15.17
-14.59
-12.97
-10.56
-7.74
-4.87
-2.16
0.25
2.32
3.96
5.08
5.64
5.69
5.40
5.07
5.02
5.42
6.31
7.50
8.70
9.60
9.97
9.73
8.97
7.89
6.66
5.42
4.20
2.93
1.57
0.16
-1.24
-2.49
-3.50
-4.27
-4.93
-5.64
-6.61
-7.97
-9.70
-11.64
-13.43
-14.62
-14.78
-13.70
-11.45
-8.35
-4.84
-1.32
1.98
4.96
7.59
9.75
11.28
12.04
12.00
11.36
10.46
9.65
9.10
8.86
8.77
8.68
8.51
8.26
7.94
7.56
7.08
6.43
5.56
4.45
3.13
1.66
0.07
-1.56
-3.13
-4.53
-5.64
-6.44
-7.00
-7.55
-8.32
-9.48
-10.99
-12.63
-14.00
-14.73
-14.52
-13.30
-11.26
-8.69
-5.93
-3.23
-0.77
1.36
3.10
4.42
5.25
5.60
5.54
5.21
4.90
4.84
5.21
5.98
6.93
7.72
8.06
7.79
6.99
5.95
5.02
4.43
4.16
4.00
3.64
2.87
1.68
0.24
-1.20
-2.41
-3.34
-4.14
-5.08
-6.44
-8.35
-10.77
-13.36
-15.70
-17.32
-17.86
-17.19
-15.42
-12.84
-9.87
-6.88
-4.08
-1.60
0.53
2.27
3.57
4.30
4.41
3.91
3.02
2.02
1.24
0.92
1.11
1.72
2.58
3.54
4.50
5.43
6.28
6.95
7.33
7.31
6.86
6.07
5.12
4.12
3.16
2.21
1.15
-0.10
-1.63
-3.47
-5.64
-8.18
-11.03
-14.00
-16.65
-18.46
-18.92
-17.82
-15.36
-12.08
-8.63
-5.54
-3.00
-0.98
0.67
2.03
3.06
3.64
3.72
3.44
3.03
2.77
2.74
2.96
3.33
3.80
4.36
5.02
5.74
6.40
6.87
6.93
6.48
5.51
4.12
2.48
0.77
-0.82
-2.19
-3.29
-4.15
-4.80
-5.29
-5.64
-5.94
-6.31
-6.86
-7.66
-8.62
-9.46
-9.82
-9.40
-8.17
-6.36
-4.36
-2.56
-1.19
-0.23
0.47
1.04
1.49
1.73
1.69
1.42
1.18
1.25
1.85
2.96
4.30
5.51
6.26
6.44
6.16
5.65
5.09
4.53
3.91
3.07
1.95
0.61
-0.82
-2.22
-3.51
-4.74
-5.98
-7.28
-8.66
-10.08
-11.50
-12.81
-13.91
-14.61
-14.68
-13.95
-12.31
-9.80
-6.60
-3.03
0.56
3.79
6.33
7.98
8.66
8.47
7.69
6.66
5.70
5.03
4.76
4.88
5.26
5.75
6.18
6.42
6.43
6.28
6.08
5.89
5.74
5.56
5.23
4.68
3.90
2.95
1.91
0.80
-0.41
-1.82
-3.50
-5.47
-7.59
-9.63
-11.26
-12.12
-11.94
-10.67
-8.45
-5.62
-2.59
0.25
2.59
4.26
5.18
5.30
4.70
3.54
2.07
0.61
-0.60
-1.44
-1.92
-2.12
-2.11
-1.90
-1.48
-0.91
-0.27
0.25
0.45
0.24
-0.34
-1.16
-2.03
-2.81
-3.50
-4.18
-5.06
-6.32
-8.06
-10.20
-12.49
-14.51
-15.79
-15.94
-14.80
-12.57
-9.64
-6.53
-3.61
-1.02
1.28
3.44
5.45
7.20
8.47
9.16
9.31
9.15
8.89
8.69
8.55
8.34
7.97
7.40
6.72
6.02
5.33
4.61
3.71
2.55
1.14
-0.42
-1.96
-3.33
-4.49
-5.51
-6.50
-7.59
-8.87
-10.35
-11.98
-13.69
-15.30
-16.57
-17.24
-17.03
-15.76
-13.44
-10.27
-6.65
-3.01
0.26
2.92
4.87
6.16
6.90
7.18
7.09
6.72
6.19
5.67
5.37
5.45
5.96
6.77
7.61
8.21
8.40
8.16
7.58
6.77
5.78
4.65
3.34
1.86
0.21
-1.59
-3.52
-5.50
-7.46
-9.29
-10.89
-12.27
-13.57
-14.93
-16.39
-17.81
-18.80
-18.95
-17.98
-15.88
-12.95
-9.62
-6.30
-3.21
-0.38
2.22
4.55
6.49
7.84
8.49
8.51
8.17
7.81
7.72
8.05
8.76
9.67
10.60
11.41
11.99
12.31
12.39
12.30
12.15
11.96
11.67
11.12
10.11
8.57
6.60
4.45
2.38
0.50
-1.24
-2.97
-4.81
-6.69
-8.50
-10.16
-11.77
-13.51
-15.52
-17.66
-19.52
-20.52
-20.24
-18.58
-15.81
-12.39
-8.75
-5.15
-1.74
1.38
4.02
5.92
6.96
7.21
6.94
6.54
6.37
6.56
7.09
7.80
8.55
9.31
10.13
11.11
12.24
13.39
14.29
14.61
14.12
12.78
10.79
8.55
6.49
4.93
3.97
3.47
3.17
2.78
2.13
1.18
-0.01
-1.31
-2.65
-4.00
-5.44
-7.08
-9.03
-11.32
-13.81
-16.22
-18.19
-19.36
-19.46
-18.41
-16.32
-13.42
-10.05
-6.49
-3.05
0.14
2.99
5.46
7.53
9.14
10.18
10.62
10.54
10.14
9.74
9.63
9.95
10.64
11.48
12.22
12.68
12.84
12.75
12.49
12.10
11.54
10.73
9.64
8.26
6.63
4.85
2.98
1.15
-0.50
-1.85
-2.89
-3.65
-4.31
-5.08
-6.11
-7.47
-9.16
-11.09
-13.16
-15.27
-17.20
-18.71
-19.45
-19.12
-17.54
-14.75
-11.01
-6.74
-2.38
1.68
5.14
7.90
9.96
11.38
12.28
12.69
12.64
12.18
11.42
10.56
9.85
9.47
9.45
9.63
9.77
9.62
9.08
8.19
7.13
6.09
5.22
4.60
4.18
3.88
3.60
3.21
2.63
1.80
0.77
-0.37
-1.47
-2.44
-3.27
-4.02
-4.88
-6.04
-7.69
-9.90
-12.58
-15.40
-17.91
-19.56
-19.84
-18.51
-15.62
-11.58
-7.03
-2.62
1.16
4.05
6.08
7.38
8.10
8.37
8.25
7.82
7.24
6.72
6.46
6.57
7.04
7.71
8.40
8.93
9.20
9.18
8.91
8.42
7.77
7.00
6.16
5.23
4.15
2.85
1.33
-0.25
-1.69
-2.70
-3.19
-3.27
-3.26
-3.52
-4.27
-5.56
-7.23
-9.09
-10.93
-12.57
-13.74
-14.08
-13.29
-11.21
-8.01
-4.18
-0.35
2.96
5.48
7.22
8.32
8.87
8.91
8.36
7.29
5.96
4.77
4.15
4.32
5.19
6.39
7.48
8.10
8.19
7.89
7.49
7.21
7.11
7.07
6.90
6.41
5.51
4.19
2.54
0.64
-1.35
-3.26
-4.92
-6.25
-7.28
-8.22
-9.31
-10.77
-12.66
-14.80
-16.80
-18.20
-18.63
-17.87
-16.00
-13.23
-9.89
-6.31
-2.72
0.70
3.78
6.36
8.22
9.22
9.34
8.79
7.91
7.08
6.60
6.52
6.75
7.08
7.39
7.66
7.99
8.49
9.07
9.52
9.55
8.96
7.81
6.46
5.40
5.02
5.45
6.45
7.58
8.37
8.54
8.09
7.34
6.90
7.61
10.50
16.53
26.38
40.15
57.24
76.43
96.17
115.14
132.45
147.79
161.09
172.21
180.53
185.07
184.73
178.74
167.05
150.36
129.86
106.82
82.46
57.90
34.53
14.09
-1.60
-11.30
-15.08
-14.64
-12.90
-13.00
-17.25
-26.36
-39.37
-54.32
-68.96
-81.52
-91.00
-97.17
-100.42
-101.57
-101.62
-101.57
-102.11
-103.47
-105.29
-106.82
-107.03
-105.10
-100.62
-93.84
-85.56
-76.92
-69.05
-62.72
-58.22
-55.42
-53.91
-53.13
-52.55
-51.65
-50.01
-47.42
-43.96
-40.05
-36.27
-33.11
-30.74
-28.92
-27.17
-25.16
-22.92
-20.88
-19.55
-19.09
-19.05
-18.55
-16.59
-12.74
-7.31
-1.35
3.85
7.29
8.59
7.98
6.03
3.34
0.33
-2.77
-5.73
-8.29
-10.08
-10.77
-10.13
-8.15
-5.01
-1.07
3.20
7.26
10.53
12.52
12.89
11.53
8.64
4.71
0.37
-3.69
-6.93
-9.04
-9.99
-10.02
-9.58
-9.16
-9.23
-10.14
-12.11
-15.17
-19.14
-23.64
-28.18
-32.32
-35.87
-39.01
-42.23
-46.04
-50.73
-56.08
-61.40
-65.71
-68.06
-67.95
-65.41
-61.03
-55.68
-50.31
-45.59
-41.71
-38.15
-33.67
-26.61
-15.44
0.55
20.70
42.86
63.98
80.94
91.57
95.19
92.65
85.86
77.09
68.41
61.23
56.07
52.50
49.34
45.24
39.25
31.43
22.88
15.39
10.64
9.50
11.81
16.60
22.58
28.57
33.66
37.16
38.63
37.93
35.43
31.95
28.55
26.03
24.62
23.92
23.19
21.88
20.05
18.41
18.09
20.28
25.73
34.40
45.07
55.19
61.22
59.55
47.78
25.78
-3.97
-37.12
-68.94
-95.95
-116.70
-131.68
-142.37
-150.13
-155.61
-158.68
-158.94
-156.19
-150.64
-142.89
-133.69
-123.76
-113.63
-103.55
-93.53
-83.40
-72.90
-61.95
-50.69
-39.38
-28.31
-17.59
-7.23
2.74
12.04
20.12
26.33
30.13
31.44
30.68
28.69
26.44
24.82
24.53
26.01
29.43
34.68
41.27
48.41
55.23
61.01
65.45
68.63
70.85
72.33
73.02
72.63
70.88
67.71
63.48
58.75
54.08
49.71
45.53
41.24
36.67
31.90
27.36
23.56
20.84
19.31
18.72
18.74
19.10
19.73
20.65
21.89
23.28
24.43
24.85
24.10
22.00
18.65
14.48
10.06
5.96
2.62
0.23
-1.24
-2.03
-2.45
-2.82
-3.33
-4.01
-4.74
-5.27
-5.33
-4.72
-3.41
-1.51
0.79
3.25
5.68
7.88
9.68
10.94
11.65
11.88
11.92
12.07
12.60
13.56
14.81
16.06
17.05
17.63
17.72
17.37
16.60
15.42
13.88
12.05
10.19
8.55
7.41
6.85
6.77
6.86
6.77
6.27
5.33
4.12
2.87
1.73
0.63
-0.70
-2.50
-4.89
-7.67
-10.37
-12.41
-13.31
-12.83
-11.06
-8.27
-4.82
-1.03
2.84
6.62
10.13
13.15
15.42
16.73
16.99
16.38
15.25
14.12
13.43
13.41
13.99
14.92
15.82
16.42
16.60
16.34
15.72
14.75
13.43
11.73
9.67
7.37
5.00
2.79
0.85
-0.77
-2.15
-3.43
-4.78
-6.34
-8.16
-10.17
-12.18
-13.93
-15.18
-15.85
-16.12
-16.35
-16.96
-18.23
-20.13
-22.24
-23.97
-24.73
-24.24
-22.60
-20.18
-17.42
-14.68
-12.13
-9.77
-7.58
-5.57
-3.83
-2.44
-1.42
-0.75
-0.36
-0.16
-0.05
0.08
0.36
0.88
1.62
2.46
3.19
3.65
3.84
3.86
3.85
3.92
4.02
4.04
3.88
3.50
2.96
2.33
1.61
0.77
-0.23
-1.34
-2.45
-3.42
-4.16
-4.74
-5.31
-6.05
-7.01
-8.11
-9.12
-9.77
-9.83
-9.23
-8.00
-6.21
-3.93
-1.18
2.04
5.72
9.72
13.75
17.48
20.59
22.88
24.30
24.94
25.02
24.81
24.61
24.71
25.36
26.72
28.76
31.12
33.10
33.74
32.11
27.66
20.55
11.72
2.66
-5.13
-10.65
-13.65
-14.59
-14.20
-13.17
-11.96
-10.84
-10.12
-10.19
-11.43
-13.90
-17.20
-20.57
-23.19
-24.62
-24.90
-24.54
-24.02
-23.57
-22.99
-21.83
-19.72
-16.64
-12.85
-8.82
-4.98
-1.60
1.20
3.43
5.14
6.47
7.61
8.82
10.25
11.82
13.10
13.48
12.54
10.30
7.37
4.69
3.14
3.09
4.29
6.02
7.51
8.22
8.04
7.16
5.82
4.15
2.13
-0.32
-3.20
-6.36
-9.60
-12.68
-15.43
-17.77
-19.71
-21.32
-22.74
-24.08
-25.32
-26.34
-26.87
-26.66
-25.53
-23.54
-20.90
-17.92
-14.89
-11.99
-9.31
-6.95
-5.03
-3.73
-3.22
-3.58
-4.67
-6.18
-7.67
-8.72
-9.09
-8.73
-7.77
-6.45
-5.01
-3.65
-2.56
-1.86
-1.67
-1.97
-2.61
-3.34
-3.94
-4.25
-4.30
-4.24
-4.26
-4.53
-5.09
-5.94
-7.03
-8.38
-9.96
-11.64
-13.08
-13.79
-13.31
-11.44
-8.48
-5.15
-2.36
-0.75
-0.41
-0.85
-1.22
-0.83
0.54
2.52
4.40
5.51
5.55
4.65
3.22
1.72
0.45
-0.47
-1.07
-1.42
-1.54
-1.47
-1.22
-0.86
-0.46
-0.08
0.13
0.03
-0.53
-1.64
-3.26
-5.21
-7.26
-9.28
-11.26
-13.37
-15.79
-18.60
-21.70
-24.77
-27.40
-29.21
-29.93
-29.45
-27.79
-25.08
-21.50
-17.29
-12.73
-8.10
-3.66
0.29
3.51
5.79
7.04
7.33
6.89
5.99
4.90
3.81
2.81
2.00
1.51
1.50
2.03
2.97
3.99
4.65
4.59
3.66
2.02
0.01
-2.03
-3.90
-5.61
-7.21
-8.77
-10.32
-11.87
-13.53
-15.52
-18.05
-21.20
-24.71
-28.01
-30.39
-31.25
-30.31
-27.69
-23.80
-19.14
-14.20
-9.34
-4.84
-1.02
1.86
3.66
4.40
4.31
3.74
2.98
2.24
1.58
1.03
0.65
0.57
0.93
1.76
2.94
4.13
4.99
5.20
4.62
3.39
1.76
0.05
-1.53
-2.96
-4.37
-6.01
-8.16
-11.00
-14.50
-18.46
-22.47
-26.02
-28.58
-29.70
-29.10
-26.71
-22.71
-17.43
-11.31
-4.83
1.52
7.32
12.18
15.83
18.10
19.02
18.79
17.84
16.69
15.83
15.53
15.75
16.21
16.57
16.62
16.35
16.02
15.92
16.22
16.85
17.50
17.81
17.50
16.47
14.67
12.10
8.74
4.58
-0.22
-5.40
-10.64
-15.67
-20.29
-24.35
-27.63
-29.70
-30.03
-28.14
-23.92
-17.65
-10.05
-2.01
5.66
12.41
17.97
22.27
25.27
27.00
27.47
26.85
25.47
23.76
22.22
21.24
20.94
21.26
21.93
22.54
22.74
22.24
20.94
18.87
16.14
12.90
9.32
5.56
1.82
-1.76
-5.10
-8.21
-11.19
-14.16
-17.23
-20.47
-23.96
-27.71
-31.59
-35.34
-38.43
-40.19
-40.02
-37.59
-33.02
-26.80
-19.63
-12.13
-4.76
2.17
8.44
13.73
17.72
20.24
21.36
21.47
21.14
20.92
21.15
21.89
22.95
24.08
25.05
25.76
26.16
26.18
25.73
24.71
23.03
20.73
17.88
14.65
11.20
7.73
4.44
1.45
-1.19
-3.58
-5.92
-8.49
-11.52
-15.15
-19.37
-24.02
-28.74
-33.02
-36.20
-37.67
-36.99
-34.04
-29.10
-22.69
-15.39
-7.71
-0.02
7.32
13.95
19.42
23.39
25.76
26.77
27.00
27.09
27.54
28.50
29.79
31.02
31.82
32.02
31.63
30.79
29.62
28.17
26.40
24.24
21.73
18.95
15.98
12.87
9.57
6.07
2.46
-1.11
-4.39
-7.25
-9.68
-11.82
-13.90
-16.14
-18.74
-21.82
-25.37
-29.19
-32.88
-35.80
-37.24
-36.59
-33.54
-28.24
-21.24
-13.35
-5.43
1.87
8.15
13.25
17.17
19.98
21.78
22.75
23.18
23.45
23.94
24.84
26.15
27.65
29.03
30.07
30.66
30.86
30.69
30.19
29.25
27.83
25.92
23.63
21.16
18.66
16.23
13.90
11.66
9.46
7.34
5.32
3.44
1.68
-0.08
-2.00
-4.34
-7.32
-11.12
-15.67
-20.63
-25.40
-29.22
-31.38
-31.42
-29.24
-25.03
-19.31
-12.70
-5.80
0.80
6.69
11.57
15.30
17.92
19.60
20.58
21.17
21.63
22.13
22.75
23.48
24.26
25.00
25.60
26.03
26.26
26.24
25.93
25.31
24.39
23.20
21.80
20.20
18.40
16.40
14.25
12.01
9.79
7.66
5.60
3.51
1.27
-1.19
-3.92
-6.88
-10.03
-13.36
-16.87
-20.52
-24.16
-27.41
-29.78
-30.73
-29.92
-27.26
-23.03
-17.73
-11.96
-6.23
-0.91
3.77
7.66
10.63
12.56
13.39
13.34
12.80
12.37
12.58
13.66
15.51
17.68
19.67
21.09
21.85
22.12
22.15
22.05
21.81
21.31
20.49
19.45
18.39
17.48
16.69
15.79
14.48
12.49
9.80
6.57
3.08
-0.44
-3.83
-7.04
-10.10
-13.09
-16.12
-19.29
-22.58
-25.72
-28.22
-29.48
-29.00
-26.66
-22.72
-17.74
-12.33
-6.94
-1.83
2.81
6.75
9.71
11.43
11.88
11.35
10.39
9.58
9.29
9.58
10.23
10.91
11.34
11.40
11.18
10.76
10.28
9.78
9.28
8.71
8.03
7.16
6.04
4.71
3.23
1.80
0.59
-0.32
-1.03
-1.80
-3.01
-5.01
-7.89
-11.55
-15.55
-19.33
-22.29
-23.98
-24.15
-22.80
-20.21
-16.77
-12.94
-9.09
-5.47
-2.22
0.66
3.14
5.21
6.82
8.01
8.82
9.33
9.64
9.84
10.04
10.32
10.75
11.35
12.01
12.50
12.53
11.87
10.50
8.56
6.36
4.23
2.37
0.82
-0.57
-2.00
-3.58
-5.28
-7.00
-8.61
-10.11
-11.61
-13.21
-14.90
-16.44
-17.44
-17.54
-16.55
-14.52
-11.69
-8.37
-4.74
-0.92
2.96
6.62
9.68
11.70
12.46
11.94
10.47
8.50
6.50
4.82
3.62
2.89
2.51
2.41
2.50
2.75
3.16
3.61
3.95
3.94
3.40
2.22
0.47
-1.69
-4.07
-6.54
-9.07
-11.67
-14.35
-17.14
-20.07
-23.16
-26.31
-29.27
-31.61
-32.80
-32.44
-30.44
-27.02
-22.64
-17.72
-12.60
-7.44
-2.43
2.15
5.90
8.45
9.68
9.78
9.22
8.48
7.89
7.53
7.31
7.10
6.86
6.61
6.39
6.20
5.99
5.70
5.32
4.90
4.45
3.93
3.22
2.16
0.65
-1.27
-3.46
-5.74
-8.03
-10.32
-12.65
-15.05
-17.40
-19.50
-21.12
-22.06
-22.24
-21.61
-20.17
-17.89
-14.79
-11.03
-6.96
-3.03
0.31
2.77
4.35
5.21
5.62
5.75
5.72
5.59
5.45
5.43
5.60
6.01
6.62
7.33
8.05
8.70
9.16
9.26
8.88
7.97
6.63
5.02
3.37
1.79
0.29
-1.21
-2.80
-4.52
-6.40
-8.42
-10.52
-12.59
-14.40
-15.62
-15.94
-15.06
-12.89
-9.52
-5.29
-0.72
3.68
7.42
10.24
12.15
13.33
14.03
14.43
14.59
14.49
14.12
13.60
13.09
12.77
12.70
12.82
12.96
12.98
12.84
12.53
12.09
11.49
10.66
9.52
8.11
6.55
4.99
3.49
2.02
0.43
-1.47
-3.82
-6.75
-10.30
-14.34
-18.64
-22.76
-26.17
-28.35
-28.95
-27.92
-25.40
-21.67
-17.04
-11.83
-6.48
-1.55
2.38
4.89
5.89
5.68
4.80
3.85
3.22
3.11
3.53
4.36
5.41
6.46
7.27
7.66
7.55
7.02
6.26
5.46
4.68
3.89
3.00
1.94
0.65
-0.91
-2.85
-5.25
-8.11
-11.31
-14.50
-17.27
-19.17
-19.95
-19.51
-17.92
-15.36
-12.01
-8.05
-3.72
0.62
4.49
7.44
9.19
9.78
9.53
8.95
8.48
8.38
8.57
8.86
9.05
9.05
8.92
8.78
8.70
8.65
8.56
8.34
7.94
7.35
6.54
5.50
4.27
2.88
1.44
0.03
-1.38
-2.91
-4.73
-6.99
-9.72
-12.87
-16.26
-19.69
-22.83
-25.34
-26.82
-26.92
-25.53
-22.79
-19.08
-14.90
-10.64
-6.53
-2.66
0.93
4.15
6.82
8.80
10.04
10.64
10.80
10.78
10.77
10.85
10.99
11.12
11.19
11.20
11.20
11.22
11.23
11.14
10.83
10.21
9.24
7.96
6.47
4.87
3.30
1.91
0.84
0.13
-0.25
-0.52
-0.93
-1.73
-3.14
-5.28
-8.24
-12.00
-16.33
-20.76
-24.61
-27.10
-27.63
-26.01
-22.49
-17.68
-12.34
-7.12
-2.45
1.48
4.60
6.92
8.50
9.48
10.06
10.44
10.77
11.14
11.51
11.86
12.13
12.32
12.50
12.72
12.99
13.29
13.59
13.84
14.05
14.20
14.29
14.26
14.01
13.40
12.27
10.52
8.16
5.39
2.53
0.00
-1.94
-3.32
-4.45
-5.89
-8.11
-11.31
-15.17
-18.97
-21.79
-22.90
-21.93
-19.00
-14.58
-9.26
-3.61
1.90
6.82
10.80
13.51
14.89
15.18
14.93
14.83
15.33
16.38
17.44
17.72
16.61
14.07
10.68
7.34
4.83
3.42
2.82
2.37
1.46
-0.23
-2.58
-5.25
-7.90
-10.35
-12.58
-14.55
-16.08
-16.88
-16.69
-15.50
-13.67
-11.86
-10.73
-10.73
-11.90
-13.86
-16.05
-17.83
-18.69
-18.34
-16.62
-13.61
-9.57
-4.93
-0.21
4.14
7.91
11.07
13.70
15.85
17.47
18.41
18.61
18.16
17.36
16.62
16.29
16.47
17.02
17.65
18.09
18.18
17.92
17.38
16.61
15.60
14.27
12.54
10.43
8.03
5.51
2.96
0.41
-2.19
-4.85
-7.54
-10.15
-12.58
-14.78
-16.77
-18.65
-20.57
-22.67
-24.99
-27.49
-29.99
-32.13
-33.39
-33.26
-31.37
-27.73
-22.72
-17.04
-11.37
-6.15
-1.51
2.69
6.56
10.02
12.83
14.69
15.50
15.45
15.00
14.64
14.71
15.20
15.85
16.35
16.48
16.26
15.83
15.34
14.81
14.11
13.08
11.63
9.82
7.87
5.98
4.24
2.60
0.90
-0.99
-3.06
-5.19
-7.19
-8.97
-10.58
-12.21
-14.12
-16.49
-19.32
-22.39
-25.26
-27.40
-28.37
-27.84
-25.77
-22.29
-17.67
-12.31
-6.65
-1.16
3.70
7.56
10.18
11.55
11.84
11.37
10.52
9.64
8.96
8.66
8.78
9.23
9.86
10.43
10.79
10.91
10.90
10.98
11.31
11.89
12.54
12.92
12.72
11.78
10.13
8.00
5.69
3.45
1.47
-0.15
-1.41
-2.41
-3.34
-4.46
-6.01
-8.09
-10.60
-13.19
-15.35
-16.56
-16.44
-14.84
-11.96
-8.19
-4.04
-0.05
3.42
6.10
7.87
8.75
8.83
8.29
7.43
6.62
6.22
6.43
7.26
8.44
9.62
10.45
10.71
10.38
9.54
8.38
7.04
5.66
4.32
3.08
1.96
0.93
-0.05
-1.04
-2.13
-3.32
-4.57
-5.86
-7.16
-8.54
-10.12
-11.99
-14.13
-16.35
-18.25
-19.41
-19.44
-18.19
-15.65
-12.09
-7.79
-3.11
1.61
6.04
9.82
12.66
14.32
14.79
14.20
12.86
11.15
9.44
8.08
7.25
6.98
7.12
7.43
7.68
7.70
7.46
6.94
6.15
5.04
3.54
1.59
-0.72
-3.17
-5.49
-7.41
-8.87
-9.95
-10.92
-12.07
-13.63
-15.77
-18.49
-21.65
-24.96
-28.01
-30.29
-31.34
-30.86
-28.75
-25.20
-20.56
-15.26
-9.75
-4.45
0.27
4.14
7.00
8.88
9.93
10.38
10.45
10.37
10.26
10.18
10.15
10.05
9.81
9.35
8.67
7.92
7.25
6.76
6.35
5.80
4.86
3.39
1.45
-0.72
-2.89
-4.90
-6.72
-8.42
-10.10
-11.91
-14.05
-16.71
-19.92
-23.44
-26.69
-28.86
-29.25
-27.48
-23.70
-18.45
-12.49
-6.50
-1.01
3.67
7.35
9.93
11.39
11.82
11.46
10.63
9.69
8.96
8.64
8.86
9.58
10.68
11.87
12.87
13.40
13.32
12.65
11.52
10.15
8.68
7.13
5.44
3.48
1.21
-1.29
-3.82
-6.21
-8.39
-10.47
-12.69
-15.28
-18.22
-21.23
-23.78
-25.32
-25.43
-23.95
-20.99
-16.82
-11.87
-6.56
-1.30
3.53
7.64
10.83
13.01
14.18
14.44
13.95
13.04
12.07
11.44
11.36
11.82
12.60
13.37
13.88
14.04
13.86
13.39
12.58
11.27
9.37
6.85
3.94
0.90
-1.99
-4.55
-6.74
-8.65
-10.44
-12.28
-14.42
-17.01
-20.04
-23.25
-26.14
-27.96
-28.05
-25.98
-21.70
-15.65
-8.63
-1.54
4.77
9.72
13.06
14.83
15.25
14.66
13.44
11.98
10.66
9.76
9.36
9.43
9.75
10.14
10.53
10.93
11.35
11.66
11.54
10.66
8.82
6.10
2.87
-0.42
-3.43
-6.00
-8.13
-10.01
-11.83
-13.82
-16.17
-18.90
-21.91
-24.78
-26.91
-27.60
-26.34
-22.89
-17.43
-10.51
-2.93
4.43
10.78
15.57
18.54
19.79
19.66
18.63
17.14
15.47
13.83
12.33
11.12
10.32
10.07
10.30
10.81
11.27
11.32
10.69
9.28
7.13
4.34
1.08
-2.49
-6.19
-9.78
-13.06
-15.91
-18.38
-20.71
-23.22
-26.11
-29.35
-32.55
-35.05
-36.13
-35.19
-32.04
-26.90
-20.35
-13.16
-6.10
0.26
5.59
9.75
12.76
14.73
15.83
16.30
16.47
16.68
17.17
18.03
19.06
19.93
20.26
19.89
18.88
17.53
16.13
14.80
13.44
11.77
9.59
6.87
3.82
0.73
-2.14
-4.72
-7.10
-9.48
-12.10
-15.08
-18.41
-21.92
-25.19
-27.63
-28.58
-27.51
-24.17
-18.79
-11.93
-4.36
3.20
10.25
16.55
22.08
26.88
30.96
34.23
36.40
37.10
35.90
32.54
27.09
20.14
12.63
5.70
0.24
-3.37
-5.43
-6.67
-7.95
-9.96
-12.95
-16.74
-20.85
-24.68
-27.67
-29.52
-30.19
-29.93
-29.21
-28.45
-27.96
-27.80
-27.86
-27.90
-27.71
-27.10
-25.88
-23.81
-20.58
-15.97
-9.91
-2.65
5.24
12.99
19.85
25.27
29.06
31.42
32.74
33.50
33.96
34.20
34.19
33.90
33.48
33.20
33.34
33.89
34.58
34.93
34.43
32.86
30.29
27.11
23.78
20.62
17.66
14.76
11.66
8.24
4.53
0.74
-2.90
-6.23
-9.25
-12.22
-15.46
-19.31
-23.88
-28.94
-33.89
-37.87
-39.99
-39.65
-36.67
-31.36
-24.35
-16.43
-8.28
-0.44
6.69
12.80
17.65
21.07
23.09
23.90
23.87
23.39
22.80
22.31
22.04
22.01
22.15
22.32
22.35
22.03
21.25
19.94
18.20
16.18
14.03
11.83
9.62
7.40
5.18
3.02
0.96
-1.00
-2.89
-4.86
-7.11
-9.89
-13.43
-17.80
-22.87
-28.21
-33.20
-37.08
-39.20
-39.09
-36.61
-31.95
-25.57
-18.11
-10.28
-2.76
3.90
9.37
13.53
16.44
18.26
19.24
19.68
19.90
20.18
20.73
21.57
22.58
23.50
24.12
24.30
24.08
23.59
23.02
22.45
21.87
21.19
20.23
18.83
16.87
14.33
11.27
7.84
4.27
0.76
-2.50
-5.38
-7.84
-9.91
-11.69
-13.43
-15.51
-18.35
-22.25
-27.24
-32.85
-38.24
-42.28
-44.02
-42.84
-38.71
-32.12
-23.91
-14.99
-6.21
1.77
8.49
13.65
17.17
19.11
19.78
19.56
18.92
18.24
17.81
17.83
18.40
19.53
21.17
23.10
24.94
26.25
26.64
25.94
24.28
22.05
19.71
17.63
15.93
14.52
13.16
11.63
9.78
7.60
5.18
2.59
-0.11
-2.92
-5.89
-9.07
-12.54
-16.42
-20.71
-25.28
-29.79
-33.70
-36.36
-37.18
-35.78
-32.14
-26.52
-19.42
-11.41
-3.12
4.84
11.86
17.45
21.27
23.29
23.83
23.45
22.75
22.18
21.91
21.87
21.91
21.95
22.05
22.36
22.94
23.69
24.24
24.17
23.11
20.97
17.92
14.38
10.83
7.62
4.96
2.82
1.05
-0.51
-2.06
-3.76
-5.71
-7.96
-10.57
-13.52
-16.80
-20.40
-24.25
-28.18
-31.81
-34.58
-35.88
-35.24
-32.45
-27.72
-21.57
-14.69
-7.68
-1.07
4.77
9.55
13.04
15.11
15.82
15.46
14.49
13.44
12.69
12.43
12.64
13.15
13.76
14.31
14.65
14.65
14.20
13.23
11.72
9.85
7.86
6.01
4.44
3.11
1.81
0.27
-1.67
-3.96
-6.41
-8.82
-11.11
-13.40
-15.88
-18.68
-21.60
-24.17
-25.70
-25.54
-23.32
-19.02
-13.06
-6.10
1.10
7.84
13.61
18.10
21.22
22.97
23.51
23.02
21.76
20.08
18.31
16.77
15.68
15.06
14.84
14.82
14.73
14.34
13.48
12.14
10.38
8.31
5.98
3.43
0.66
-2.28
-5.26
-8.14
-10.73
-12.96
-14.90
-16.79
-18.93
-21.56
-24.85
-28.76
-33.07
-37.34
-41.02
-43.47
-44.14
-42.68
-38.99
-33.31
-26.15
-18.21
-10.25
-2.99
3.09
7.76
11.05
13.20
14.47
15.14
15.40
15.47
15.56
15.83
16.40
17.13
17.79
18.04
17.69
16.73
15.37
13.87
12.38
10.87
9.13
7.02
4.43
1.46
-1.71
-4.79
-7.59
-9.95
-11.92
-13.76
-15.80
-18.47
-22.04
-26.46
-31.30
-35.85
-39.23
-40.66
-39.70
-36.29
-30.78
-23.78
-16.02
-8.25
-1.16
4.67
8.85
11.22
11.95
11.52
10.59
9.82
9.61
10.02
10.72
11.24
11.16
10.29
8.69
6.68
4.77
3.55
3.64
5.53
9.32
14.54
20.14
24.79
27.37
27.37
25.11
21.49
17.51
13.74
10.13
6.22
1.50
-4.10
-10.08
-15.55
-19.59
-21.60
-21.45
-19.40
-15.89
-11.39
-6.29
-0.95
4.23
8.81
12.38
14.61
15.47
15.13
14.03
12.62
11.35
10.56
10.36
10.70
11.29
11.78
11.82
11.26
10.17
8.78
7.43
6.27
5.28
4.18
2.71
0.71
-1.72
-4.28
-6.67
-8.75
-10.63
-12.59
-14.97
-17.90
-21.31
-24.81
-27.80
-29.61
-29.62
-27.46
-23.08
-16.80
-9.21
-1.05
6.95
14.15
20.16
24.75
27.89
29.62
30.08
29.52
28.28
26.85
25.76
25.45
26.08
27.49
29.28
30.89
31.87
31.99
31.29
30.04
28.52
26.98
25.39
23.49
20.81
16.90
11.47
4.67
-3.00
-10.87
-18.34
-25.09
-31.12
-36.62
-41.81
-46.85
-51.73
-56.31
-60.35
-63.47
-65.28
-65.44
-63.82
-60.63
-56.33
-51.42
-46.19
-40.60
-34.34
-27.10
-18.83
-9.91
-1.07
6.88
13.30
18.01
21.22
23.44
25.20
26.76
28.16
29.15
29.49
28.99
27.62
25.46
22.67
19.37
15.68
11.72
7.64
3.60
-0.23
-3.71
-6.80
-9.60
-12.35
-15.41
-19.09
-23.39
-27.95
-31.98
-34.59
-35.01
-32.97
-28.73
-23.00
-16.60
-10.21
-4.19
1.33
6.37
10.86
14.62
17.38
18.92
19.26
18.65
17.59
16.57
16.01
16.08
16.70
17.71
18.88
19.96
20.73
20.96
20.43
19.04
16.85
14.04
10.92
7.77
4.82
2.14
-0.27
-2.53
-4.74
-7.03
-9.48
-12.16
-15.15
-18.55
-22.35
-26.38
-30.26
-33.33
-34.89
-34.30
-31.27
-25.97
-18.87
-10.74
-2.38
5.46
12.21
17.41
20.86
22.55
22.68
21.67
20.03
18.30
16.93
16.18
16.12
16.63
17.41
18.16
18.60
18.60
18.22
17.61
16.89
16.05
14.98
13.51
11.54
9.14
6.45
3.73
1.18
-1.07
-3.03
-4.77
-6.39
-8.07
-10.01
-12.46
-15.52
-19.13
-22.89
-26.18
-28.30
-28.68
-27.04
-23.43
-18.18
-11.75
-4.62
2.81
10.12
16.92
22.86
27.60
30.90
32.66
32.99
32.24
30.96
29.86
29.55
30.37
32.27
34.83
37.37
39.24
39.93
39.20
36.98
33.39
28.74
23.39
17.82
12.28
6.65
0.39
-7.22
-16.64
-27.57
-39.07
-49.90
-59.15
-66.75
-73.30
-79.52
-85.51
-90.34
-92.29
-89.63
-81.50
-68.42
-52.07
-34.63
-17.96
-3.14
9.51
20.11
28.79
35.40
39.69
41.53
41.13
39.18
36.54
33.93
31.66
29.64
27.53
25.08
22.34
19.56
17.10
15.18
13.82
12.78
11.71
10.30
8.37
5.85
2.83
-0.52
-3.95
-7.22
-10.18
-12.84
-15.33
-17.88
-20.69
-23.90
-27.52
-31.48
-35.63
-39.74
-43.39
-46.14
-47.45
-46.94
-44.45
-40.08
-34.24
-27.46
-20.37
-13.53
-7.39
-2.18
2.02
5.35
8.07
10.44
12.65
14.79
16.76
18.41
19.60
20.35
20.83
21.39
22.43
24.28
26.96
30.23
33.50
36.17
37.73
38.04
37.25
35.71
33.87
32.01
30.27
28.54
26.49
23.65
19.54
13.85
6.64
-1.61
-10.06
-17.79
-24.02
-28.29
-30.45
-30.54
-28.72
-25.17
-20.21
-14.35
-8.16
-2.25
2.91
7.07
10.16
12.29
13.60
14.23
14.25
13.76
12.87
11.73
10.59
9.73
9.38
9.62
10.34
11.17
11.69
11.57
10.65
9.02
6.93
4.60
2.18
-0.35
-3.05
-5.91
-8.76
-11.35
-13.47
-15.11
-16.54
-18.24
-20.61
-23.79
-27.44
-30.83
-33.08
-33.48
-31.69
-27.80
-22.26
-15.66
-8.65
-1.82
4.34
9.41
13.15
15.55
16.80
17.24
17.25
17.17
17.16
17.34
17.71
18.28
19.11
20.18
21.38
22.46
23.09
22.98
21.99
20.25
18.04
15.67
13.36
11.19
9.17
7.23
5.30
3.18
0.60
-2.85
-7.43
-13.06
-19.16
-24.78
-28.88
-30.72
-30.21
-27.80
-24.31
-20.56
-17.13
-14.37
-12.45
-11.53
-11.79
-13.27
-15.82
-18.93
-21.73
-23.32
-23.03
-20.68
-16.68
-11.76
-6.66
-1.83
2.70
7.08
11.44
15.57
18.98
20.97
21.07
19.25
15.92
11.74
7.33
3.04
-1.07
-5.06
-9.07
-13.15
-17.31
-21.51
-25.66
-29.61
-33.11
-35.78
-37.17
-36.88
-34.69
-30.56
-24.78
-17.79
-10.19
-2.60
4.38
10.27
14.75
17.69
19.17
19.48
19.05
18.36
17.80
17.54
17.54
17.50
17.19
16.48
15.49
14.54
13.93
13.81
14.03
14.20
13.87
12.70
10.61
7.77
4.49
1.09
-2.22
-5.34
-8.25
-10.99
-13.66
-16.37
-19.25
-22.35
-25.56
-28.58
-30.86
-31.80
-30.84
-27.71
-22.53
-15.84
-8.42
-1.11
5.32
10.38
13.89
15.88
16.58
16.34
15.51
14.47
13.57
13.06
13.05
13.53
14.31
15.14
15.82
16.18
16.18
15.86
15.21
14.24
12.88
11.06
8.75
6.02
2.98
-0.18
-3.26
-6.07
-8.48
-10.48
-12.28
-14.25
-16.82
-20.27
-24.51
-29.04
-33.06
-35.72
-36.39
-34.86
-31.24
-25.88
-19.27
-11.93
-4.47
2.46
8.23
12.41
14.89
15.96
16.19
16.22
16.51
17.25
18.33
19.47
20.45
21.13
21.48
21.58
21.49
21.22
20.78
20.15
19.31
18.23
16.93
15.37
13.55
11.43
9.02
6.34
3.51
0.69
-1.92
-4.19
-6.12
-7.96
-10.07
-12.77
-16.18
-20.05
-23.71
-26.31
-27.07
-25.48
-21.54
-15.76
-8.93
-1.94
4.48
9.87
13.98
16.72
18.08
18.14
17.10
15.37
13.47
11.86
10.83
10.38
10.34
10.46
10.56
10.59
10.57
10.46
10.24
9.84
9.20
8.30
7.14
5.67
3.88
1.80
-0.45
-2.68
-4.74
-6.60
-8.39
-10.35
-12.72
-15.50
-18.44
-21.04
-22.67
-22.73
-20.90
-17.14
-11.76
-5.30
1.59
8.22
14.04
18.56
21.54
22.89
22.78
21.53
19.61
17.49
15.60
14.19
13.31
12.87
12.60
12.29
11.84
11.30
10.78
10.30
9.72
8.71
6.95
4.34
1.07
-2.42
-5.69
-8.50
-10.91
-13.12
-15.33
-17.61
-19.93
-22.24
-24.55
-26.90
-29.17
-30.99
-31.79
-30.99
-28.23
-23.60
-17.57
-10.88
-4.32
1.51
6.25
9.77
12.14
13.58
14.34
14.66
14.72
14.56
14.25
13.82
13.42
13.23
13.44
14.12
15.13
16.20
16.97
17.16
16.62
15.38
13.56
11.25
8.56
5.59
2.51
-0.44
-2.99
-5.02
-6.63
-8.18
-10.13
-12.88
-16.47
-20.59
-24.61
-27.76
-29.36
-29.05
-26.75
-22.74
-17.49
-11.52
-5.40
0.41
5.53
9.69
12.75
14.66
15.49
15.51
15.01
14.38
13.92
13.81
14.08
14.60
15.23
15.82
16.30
16.61
16.71
16.52
15.94
14.90
13.41
11.51
9.31
6.98
4.64
2.42
0.33
-1.68
-3.73
-5.89
-8.25
-10.87
-13.74
-16.86
-20.12
-23.27
-25.89
-27.45
-27.45
-25.61
-21.95
-16.81
-10.71
-4.20
2.22
8.11
13.06
16.72
18.89
19.59
19.09
17.90
16.55
15.52
15.09
15.31
16.04
17.02
17.93
18.47
18.38
17.57
16.08
14.14
12.06
10.13
8.45
6.98
5.57
4.01
2.21
0.18
-1.97
-4.07
-6.03
-7.89
-9.83
-12.10
-14.92
-18.33
-22.05
-25.59
-28.28
-29.43
-28.64
-25.79
-21.14
-15.26
-8.84
-2.57
3.01
7.56
10.98
13.30
14.61
14.99
14.53
13.40
11.82
10.14
8.70
7.81
7.59
7.95
8.68
9.46
10.02
10.19
9.89
9.14
8.03
6.66
5.18
3.69
2.25
0.85
-0.58
-2.16
-4.01
-6.21
-8.81
-11.71
-14.77
-17.75
-20.31
-22.07
-22.63
-21.70
-19.20
-15.32
-10.43
-5.06
0.22
4.92
8.67
11.25
12.63
12.88
12.25
11.02
9.50
7.98
6.68
5.75
5.25
5.18
5.46
5.98
6.58
7.05
7.19
6.78
5.69
3.96
1.76
-0.58
-2.75
-4.55
-5.97
-7.16
-8.33
-9.69
-11.37
-13.43
-15.91
-18.83
-22.12
-25.61
-28.97
-31.73
-33.34
-33.32
-31.40
-27.58
-22.22
-15.93
-9.51
-3.65
1.20
4.92
7.65
9.64
11.05
11.93
12.28
12.15
11.74
11.36
11.30
11.67
12.36
13.10
13.58
13.57
13.08
12.20
11.07
9.80
8.41
6.90
5.24
3.37
1.31
-0.97
-3.43
-6.00
-8.62
-11.23
-13.91
