1706518105.00
64.000000
-0.00
-0.00
-0.00
-0.00
-0.00
-0.00
-0.00
-0.00
-0.00
-0.00
0.00
0.01
0.01
-0.00
-0.03
-0.05
-0.05
0.00
0.13
0.36
0.66
1.01
1.37
1.72
2.06
2.40
2.79
3.24
3.80
4.42
5.06
5.66
6.20
6.68
7.15
7.68
8.31
9.14
10.09
11.04
11.88
12.56
13.14
13.76
14.65
15.96
17.91
20.32
22.90
25.38
27.58
29.57
31.68
34.32
37.81
42.54
48.15
54.10
59.83
64.97
69.58
74.14
79.34
85.71
93.76
103.00
112.62
121.73
129.77
136.75
143.30
150.75
157.77
166.64
177.95
191.79
206.97
220.57
228.25
225.36
208.53
176.87
132.76
80.05
23.07
-34.95
-92.44
-149.16
-205.23
-260.37
-313.73
-363.86
-409.80
-450.86
-486.43
-515.63
-537.08
-549.03
-549.73
-538.08
-513.86
-478.27
-433.41
-381.91
-326.41
-269.16
-211.88
-155.83
-102.04
-51.38
-4.82
36.77
72.72
102.76
127.04
146.06
160.53
171.17
178.59
183.19
185.27
185.04
182.78
178.85
173.65
167.59
161.01
154.18
147.22
140.21
133.19
126.21
119.33
112.61
106.13
99.95
94.10
88.58
83.42
78.62
74.19
70.13
66.46
63.20
60.35
57.89
55.82
54.10
52.70
51.52
50.46
49.38
48.14
46.54
44.42
41.64
38.11
33.79
28.73
22.98
16.71
10.14
3.52
-2.89
-8.83
-14.10
-18.53
-22.00
-24.48
-25.98
-26.56
-26.33
-25.43
-23.98
-22.12
-19.96
-17.61
-15.12
-12.55
-9.94
-7.33
-4.74
-2.16
0.41
2.98
5.57
8.21
10.96
13.78
16.67
19.62
22.66
25.81
29.09
32.54
36.17
40.08
44.16
48.35
52.62
56.97
61.38
65.89
70.53
75.37
80.50
85.81
91.21
96.68
102.18
107.72
113.28
118.88
124.51
130.23
135.73
140.79
145.19
148.69
151.01
151.80
150.58
146.66
141.37
135.18
128.44
121.36
114.09
106.77
99.52
92.44
85.65
79.31
73.27
67.47
61.89
56.53
51.44
46.65
42.21
38.20
34.69
31.53
28.64
25.93
23.35
20.85
18.37
15.88
13.41
11.00
8.63
6.31
4.08
1.94
-0.10
-2.09
-4.10
-6.18
-8.32
-10.57
-12.91
-15.34
-17.89
-20.66
-23.77
-27.35
-31.48
-36.07
-40.99
-45.99
-50.91
-55.70
-60.52
-65.65
-71.46
-78.16
-85.74
-93.97
-102.48
-111.00
-119.57
-128.56
-138.62
-150.35
-163.99
-179.07
-194.48
-208.68
-220.16
-227.96
-231.80
-232.06
-229.31
-223.95
-215.83
-204.53
-189.81
-172.17
-153.25
-135.71
-122.64
-116.84
-120.25
-133.62
-156.37
-186.32
-219.65
-251.28
-275.79
-288.96
-289.08
-277.38
-257.14
-232.17
-204.98
-176.09
-144.60
-109.32
-70.03
-28.20
12.97
49.39
77.58
96.19
106.92
114.22
123.47
138.61
160.29
185.84
210.89
231.91
247.88
260.10
270.64
280.34
288.03
291.18
287.66
276.97
260.40
239.97
217.15
192.20
164.39
132.64
96.55
56.98
16.05
-23.40
-58.56
-87.42
-109.24
-124.44
-134.26
-140.08
-142.98
-143.79
-143.21
-142.08
-141.30
-141.39
-142.11
-142.34
-140.30
-134.39
-123.94
-109.56
-92.91
-76.15
-61.16
-49.09
-40.34
-34.80
-32.18
-32.11
-34.12
-37.46
-41.03
-43.58
-44.05
-41.90
-37.34
-31.20
-24.63
-18.61
-13.68
-9.77
-6.50
-3.50
-0.75
1.34
2.21
1.46
-0.89
-4.36
-8.26
-12.00
-15.35
-18.46
-21.75
-25.67
-30.53
-36.34
-42.69
-48.80
-53.61
-55.89
-54.61
-49.28
-40.14
-28.04
-14.35
-0.41
12.62
23.96
33.10
39.73
43.61
44.64
43.03
39.32
34.41
29.38
25.20
22.54
21.56
21.93
23.04
24.17
24.76
24.55
23.54
21.86
19.64
16.83
13.32
9.03
4.04
-1.28
-6.38
-10.70
-13.87
-15.91
-17.22
-18.47
-20.51
-24.06
-29.45
-36.42
-44.00
-50.62
-54.45
-53.99
-48.50
-38.34
-24.82
-9.78
4.94
18.00
28.54
36.25
40.99
42.83
42.01
39.14
35.23
31.47
28.89
28.06
28.90
30.79
32.89
34.50
35.25
35.18
34.53
33.61
32.53
31.17
29.21
26.24
21.99
16.46
10.04
3.46
-2.53
-7.35
-10.84
-13.34
-15.41
-17.72
-20.82
-25.02
-30.31
-36.30
-42.22
-46.92
-49.01
-47.27
-41.05
-30.55
-16.97
-2.09
12.18
24.33
33.56
39.73
43.12
44.15
43.20
40.60
36.76
32.23
27.72
24.01
21.66
20.88
21.39
22.58
23.70
24.16
23.74
22.55
20.94
19.16
17.27
15.08
12.36
9.03
5.26
1.40
-2.19
-5.33
-8.00
-10.30
-12.29
-14.00
-15.54
-17.28
-19.79
-23.61
-28.87
-34.92
-40.26
-42.98
-41.45
-34.93
-23.92
-10.00
4.70
18.17
28.99
36.47
40.53
41.42
39.55
35.48
30.01
24.12
18.94
15.42
14.09
14.85
17.06
19.83
22.24
23.73
24.13
23.63
22.50
20.94
19.00
16.59
13.62
10.06
6.04
1.74
-2.64
-6.97
-11.12
-14.91
-18.13
-20.70
-22.78
-24.86
-27.63
-31.51
-36.36
-41.19
-44.39
-44.32
-39.97
-31.39
-19.68
-6.57
6.24
17.52
26.59
33.25
37.41
38.98
37.92
34.46
29.34
23.78
19.23
16.82
17.07
19.58
23.29
26.93
29.42
30.19
29.22
26.81
23.33
19.08
14.15
8.59
2.54
-3.64
-9.46
-14.45
-18.35
-21.22
-23.42
-25.50
-27.95
-31.15
-35.21
-40.03
-45.13
-49.70
-52.55
-52.42
-48.26
-39.76
-27.63
-13.46
0.70
13.01
22.20
27.87
30.31
30.11
27.97
24.48
20.21
15.83
12.12
9.83
9.45
10.96
13.79
16.99
19.58
20.92
20.92
19.90
18.31
16.39
13.99
10.74
6.31
0.76
-5.45
-11.58
-16.92
-21.10
-24.10
-26.19
-27.78
-29.36
-31.52
-34.91
-39.98
-46.65
-53.98
-60.19
-63.08
-60.88
-52.97
-40.16
-24.54
-8.65
5.36
16.29
23.98
28.94
31.83
33.11
32.96
31.51
29.03
26.11
23.53
21.97
21.76
22.75
24.43
26.09
27.14
27.25
26.33
24.53
22.12
19.31
16.25
12.92
9.21
5.02
0.40
-4.40
-8.95
-12.76
-15.53
-17.22
-18.15
-18.95
-20.33
-22.88
-26.95
-32.54
-39.23
-46.24
-52.43
-56.49
-57.11
-53.38
-45.00
-32.56
-17.40
-1.36
13.71
26.33
35.67
41.53
44.21
44.22
42.17
38.68
34.44
30.18
26.62
24.34
23.58
24.20
25.72
27.48
28.82
29.25
28.57
26.88
24.46
21.61
18.56
15.28
11.56
7.22
2.19
-3.30
-8.72
-13.39
-16.78
-18.72
-19.52
-19.90
-20.67
-22.57
-25.96
-30.73
-36.32
-41.70
-45.59
-46.62
-43.76
-36.61
-25.64
-12.10
2.23
15.57
26.50
34.26
38.70
40.08
38.93
35.82
31.40
26.31
21.25
16.88
13.70
12.02
11.78
12.63
13.93
14.95
15.09
13.96
11.55
8.10
4.02
-0.41
-4.93
-9.51
-14.16
-18.92
-23.73
-28.46
-32.96
-37.01
-40.40
-42.88
-44.29
-44.67
-44.37
-44.11
-44.78
-47.16
-51.38
-56.63
-61.17
-62.78
-59.57
-50.77
-37.02
-20.23
-2.83
13.07
26.14
35.97
42.72
46.76
48.36
47.82
45.55
42.24
38.73
35.80
33.95
33.24
33.45
34.20
35.14
36.06
36.80
37.28
37.39
37.01
36.05
34.42
32.10
29.04
25.25
20.78
15.84
10.70
5.74
1.29
-2.52
-5.81
-8.84
-11.91
-15.28
-19.11
-23.53
-28.78
-35.09
-42.51
-50.57
-58.13
-63.45
-64.59
-60.18
-49.92
-34.83
-17.04
0.88
16.66
28.77
36.62
40.36
40.55
37.95
33.45
28.00
22.55
18.00
15.02
13.91
14.58
16.65
19.51
22.52
25.08
26.72
27.16
26.33
24.32
21.37
17.77
13.78
9.71
5.79
2.25
-0.81
-3.35
-5.46
-7.27
-8.95
-10.60
-12.28
-13.92
-15.45
-16.86
-18.30
-20.17
-23.04
-27.42
-33.53
-40.98
-48.72
-55.24
-58.85
-58.28
-52.99
-43.35
-30.65
-16.68
-3.31
7.93
16.18
21.14
23.03
22.21
19.08
14.16
8.21
2.35
-1.97
-3.32
-0.81
5.57
14.85
25.35
35.31
43.30
48.63
51.35
51.96
51.02
48.92
45.77
41.49
36.09
29.67
22.59
15.24
8.03
1.25
-4.93
-10.36
-14.91
-18.60
-21.66
-24.60
-28.18
-33.05
-39.37
-46.49
-52.96
-56.89
-56.54
-50.99
-40.54
-26.61
-11.33
3.17
15.31
24.27
29.88
32.40
32.15
29.55
25.13
19.74
14.39
10.15
7.81
7.53
8.97
11.37
13.93
16.01
17.33
17.88
17.75
17.11
15.99
14.34
12.10
9.15
5.45
1.06
-3.92
-9.26
-14.69
-19.89
-24.53
-28.39
-31.45
-34.04
-36.77
-40.48
-45.86
-52.98
-61.07
-68.45
-72.96
-72.60
-66.19
-53.81
-36.83
-17.47
1.76
18.72
31.92
40.72
45.17
45.82
43.50
39.19
33.95
28.73
24.31
21.19
19.45
18.85
18.90
19.06
18.93
18.35
17.44
16.48
15.73
15.32
15.18
15.04
14.51
13.24
11.01
7.83
3.97
-0.20
-4.31
-8.08
-11.39
-14.30
-16.95
-19.63
-22.74
-26.78
-32.22
-39.28
-47.59
-56.03
-62.82
-65.97
-63.93
-56.17
-43.35
-27.21
-9.98
6.23
19.83
29.89
36.18
38.90
38.58
35.99
31.98
27.49
23.41
20.44
19.02
19.31
21.08
23.91
27.15
30.21
32.54
33.82
33.89
32.78
30.64
27.63
23.98
19.91
15.56
11.02
6.36
1.63
-3.01
-7.36
-11.19
-14.37
-16.93
-19.12
-21.32
-23.96
-27.51
-32.30
-38.52
-46.02
-54.10
-61.49
-66.43
-67.18
-62.50
-52.16
-37.20
-19.52
-1.48
14.77
27.71
36.53
41.09
41.78
39.34
34.80
29.37
24.25
20.47
18.69
19.06
21.23
24.48
27.94
30.85
32.72
33.37
32.93
31.69
29.92
27.77
25.20
22.13
18.40
13.97
8.93
3.59
-1.60
-6.16
-9.69
-12.09
-13.55
-14.65
-16.11
-18.60
-22.54
-27.92
-34.19
-40.31
-44.97
-46.83
-44.87
-38.68
-28.57
-15.58
-1.20
12.88
25.19
34.62
40.57
42.87
41.78
37.92
32.28
26.08
20.51
16.56
14.63
14.58
15.82
17.58
19.22
20.36
20.95
21.08
20.86
20.27
19.15
17.29
14.50
10.72
6.12
1.11
-3.84
-8.34
-12.27
-15.80
-19.34
-23.41
-28.42
-34.57
-41.62
-48.89
-55.18
-59.01
-59.00
-54.24
-44.72
-31.39
-15.89
-0.08
14.35
26.20
34.79
39.72
40.88
38.38
32.84
25.35
17.41
10.65
6.38
5.20
6.88
10.48
14.67
18.16
20.11
20.32
19.14
17.22
15.12
13.07
10.85
8.09
4.51
0.18
-4.49
-8.98
-12.90
-16.18
-19.05
-21.95
-25.28
-29.45
-34.76
-41.32
-48.90
-56.72
-63.38
-67.14
-66.37
-60.11
-48.50
-32.87
-15.35
1.66
16.20
27.15
34.28
38.05
39.18
38.29
35.88
32.26
27.87
23.26
19.12
16.01
14.17
13.34
12.88
12.12
10.55
8.08
4.94
1.58
-1.68
-4.78
-7.96
-11.60
-16.05
-21.49
-27.86
-34.92
-42.30
-49.59
-56.40
-62.55
-68.11
-73.54
-79.67
-87.32
-97.04
-108.64
-121.11
-132.77
-141.78
-146.58
-146.34
-140.96
-130.96
-117.35
-101.44
-84.74
-68.85
-55.22
-44.84
-38.00
-34.15
-32.08
-30.17
-26.76
-20.52
-10.55
3.54
21.75
43.50
67.61
92.10
114.34
131.65
142.03
145.03
141.93
135.19
127.10
118.36
107.52
91.80
68.91
38.87
4.76
-28.27
-55.12
-72.92
-81.95
-84.88
-85.06
-84.92
-85.42
-86.68
-89.05
-93.61
-101.65
-113.48
-127.40
-139.68
-145.67
-141.44
-125.25
-98.16
-63.81
-27.34
5.67
30.39
43.47
43.93
33.44
16.29
-1.64
-14.18
-16.53
-6.45
15.25
45.15
78.18
109.07
133.57
149.26
155.77
154.49
147.75
138.05
127.44
117.32
108.45
101.07
95.02
89.82
84.54
78.16
69.90
59.64
48.10
36.47
25.93
16.91
8.87
0.45
-9.78
-22.55
-37.27
-51.99
-63.98
-70.53
-69.80
-61.27
-45.82
-25.31
-2.06
21.69
44.18
64.48
82.58
99.28
115.79
132.92
150.51
167.27
181.14
190.23
193.51
190.90
182.84
169.41
149.79
122.38
85.66
39.32
-14.73
-72.39
-128.12
-176.44
-213.30
-236.94
-247.88
-248.30
-241.02
-228.82
-214.04
-198.60
-184.18
-172.26
-164.04
-160.16
-160.67
-165.01
-172.23
-180.97
-189.40
-195.19
-195.71
-188.54
-172.21
-146.80
-114.24
-78.00
-42.31
-11.07
13.08
29.20
37.95
41.08
40.61
38.22
34.99
31.57
28.51
26.51
26.34
28.69
34.02
42.39
53.54
66.96
81.86
97.22
111.81
124.46
134.24
140.70
143.87
144.05
141.70
137.28
131.38
124.70
117.95
111.45
104.92
97.41
87.79
75.41
60.63
44.84
29.81
16.81
6.14
-2.39
-8.52
-10.80
-6.91
4.91
24.28
48.06
71.37
89.72
100.93
105.81
107.01
107.11
107.17
106.59
104.15
99.43
93.36
87.70
84.03
82.80
83.19
83.52
82.17
78.31
72.31
65.73
60.68
58.95
61.20
66.53
72.86
77.75
79.54
77.80
73.22
66.95
59.94
52.72
45.68
39.47
34.86
32.45
32.16
33.20
34.52
35.39
35.81
36.37
37.80
40.49
44.32
48.87
53.63
58.14
62.00
64.83
66.48
67.25
67.93
69.58
72.90
77.79
83.32
88.22
91.59
93.30
93.83
93.71
93.09
91.56
88.47
83.34
76.10
66.99
56.21
43.64
28.78
11.14
-9.46
-32.44
-56.35
-79.02
-98.03
-111.30
-117.58
-116.94
-110.64
-100.89
-90.24
-81.12
-75.38
-74.05
-77.01
-82.87
-89.19
-92.89
-91.03
-81.52
-63.71
-38.59
-8.54
23.12
52.79
77.11
93.56
100.69
98.36
87.75
71.11
51.35
31.47
14.03
0.70
-7.88
-12.03
-12.80
-11.44
-9.11
-6.70
-4.80
-3.89
-4.31
-6.24
-9.54
-13.71
-18.06
-21.97
-25.14
-27.65
-29.81
-32.01
-34.48
-37.23
-40.09
-42.67
-44.43
-44.68
-42.75
-38.30
-31.43
-22.81
-13.44
-4.31
3.90
10.94
16.80
21.49
24.85
26.66
26.80
25.51
23.36
21.12
19.44
18.62
18.60
19.06
19.65
20.18
20.59
20.86
20.88
20.38
19.04
16.72
13.59
10.11
6.81
3.93
1.29
-1.80
-6.12
-12.22
-20.07
-28.96
-37.63
-44.62
-48.61
-48.71
-44.71
-37.05
-26.76
-15.16
-3.64
6.56
14.50
19.55
21.45
20.30
16.45
10.47
3.01
-5.31
-13.90
-22.11
-29.25
-34.63
-37.73
-38.51
-37.43
-35.41
-33.44
-32.28
-32.19
-33.08
-34.70
-36.80
-39.31
-42.13
-45.04
-47.60
-49.29
-49.86
-49.49
-48.98
-49.42
-51.56
-55.36
-59.75
-62.97
-63.23
-59.41
-51.49
-40.48
-27.95
-15.47
-4.08
5.69
13.71
19.93
24.18
26.22
25.98
23.77
20.29
16.54
13.46
11.62
11.00
11.11
11.22
10.77
9.59
7.98
6.41
5.27
4.61
4.00
2.74
0.21
-3.86
-9.21
-15.20
-21.07
-26.26
-30.58
-34.33
-38.08
-42.47
-47.90
-54.26
-60.82
-66.32
-69.30
-68.50
-63.34
-54.07
-41.73
-27.71
-13.43
-0.05
11.65
21.09
27.87
31.76
32.87
31.80
29.54
27.21
25.56
24.75
24.39
23.83
22.64
20.77
18.62
16.68
15.36
14.90
15.53
17.59
21.43
26.99
33.47
39.28
42.43
41.48
36.13
27.50
17.64
8.71
2.14
-1.87
-4.18
-6.09
-8.73
-12.54
-17.04
-21.00
-22.70
-20.43
-13.02
-0.22
17.20
37.63
58.99
79.06
95.85
107.68
113.37
112.56
106.03
95.78
84.82
76.41
73.09
75.79
83.39
93.11
101.35
104.80
101.20
89.89
71.66
48.34
22.30
-3.96
-28.23
-48.77
-64.51
-75.26
-81.69
-85.19
-87.50
-90.24
-94.49
-100.49
-107.57
-114.29
-118.78
-119.28
-114.65
-104.78
-90.71
-74.33
-57.73
-42.56
-29.61
-18.92
-10.18
-3.27
1.57
3.85
3.36
0.61
-3.19
-6.48
-7.98
-7.26
-4.76
-1.53
1.43
3.62
5.14
6.37
7.56
8.46
8.33
6.33
2.00
-4.38
-11.77
-18.73
-23.94
-26.73
-27.31
-26.58
-25.76
-25.91
-27.67
-31.12
-35.85
-41.06
-45.66
-48.39
-48.04
-43.85
-35.79
-24.73
-12.27
-0.26
9.77
16.92
21.07
22.52
21.73
19.06
14.77
9.23
3.01
-3.13
-8.38
-12.12
-14.12
-14.59
-14.01
-12.92
-11.69
-10.47
-9.21
-7.84
-6.46
-5.33
-4.84
-5.31
-6.80
-9.05
-11.60
-14.01
-16.05
-17.74
-19.29
-20.90
-22.63
-24.47
-26.41
-28.58
-31.13
-33.96
-36.41
-37.28
-35.13
-28.94
-18.66
-5.47
8.59
21.31
31.06
37.20
39.97
40.07
38.19
34.80
30.29
25.33
20.92
18.22
17.94
19.82
22.45
23.68
21.53
15.06
4.77
-7.54
-19.57
-29.33
-35.73
-38.65
-38.74
-37.06
-34.72
-32.62
-31.36
-31.14
-31.75
-32.70
-33.44
-33.65
-33.35
-32.97
-33.18
-34.76
-38.19
-43.54
-50.11
-56.37
-60.23
-59.60
-53.18
-41.12
-25.22
-8.37
6.38
16.88
22.39
23.58
21.88
18.74
15.07
11.32
7.70
4.48
2.12
1.09
1.55
3.30
5.81
8.51
11.02
13.29
15.48
17.77
20.27
22.80
25.05
26.63
27.20
26.53
24.53
21.21
16.71
11.35
5.70
0.41
-3.86
-6.85
-8.84
-10.64
-13.24
-17.26
-22.44
-27.62
-31.11
-31.29
-27.34
-19.47
-8.83
2.93
14.04
22.96
28.53
30.09
27.55
21.30
12.15
1.07
-11.09
-23.65
-36.17
-48.24
-59.34
-68.73
-75.48
-78.55
-77.01
-70.46
-59.24
-44.62
-28.35
-12.06
3.47
18.45
33.78
50.30
68.18
86.65
104.39
119.99
132.49
141.29
145.94
145.87
140.33
128.71
110.95
87.81
60.90
32.40
4.84
-19.25
-37.64
-48.85
-52.45
-49.24
-41.06
-30.22
-18.88
-8.54
0.11
6.99
12.20
15.80
17.68
17.67
15.77
12.20
7.31
1.44
-5.22
-12.59
-20.60
-29.10
-37.78
-46.31
-54.36
-61.65
-67.92
-73.00
-76.69
-78.88
-79.51
-78.60
-76.20
-72.42
-67.33
-60.97
-53.33
-44.44
-34.57
-24.28
-14.46
-6.08
0.10
3.78
5.33
5.63
5.91
7.45
11.19
17.59
26.39
36.66
46.92
55.59
61.44
63.99
63.51
60.78
56.67
51.64
45.73
38.72
30.57
21.69
13.02
5.68
0.54
-2.18
-2.95
-2.67
-2.23
-2.17
-2.50
-2.95
-3.23
-3.26
-3.26
-3.66
-4.86
-7.09
-10.25
-13.99
-17.73
-20.95
-23.28
-24.64
-25.33
-25.80
-26.52
-27.82
-29.85
-32.54
-35.70
-38.81
-41.17
-41.90
-40.25
-35.98
-29.50
-21.85
-14.27
-7.78
-2.82
0.68
2.95
4.19
4.31
3.12
0.65
-2.62
-5.86
-8.04
-8.44
-6.94
-4.07
-0.85
1.69
2.91
2.82
2.01
1.28
1.27
2.21
4.02
6.50
9.58
13.20
17.06
20.39
21.92
20.23
14.35
4.24
-9.05
-23.64
-37.30
-48.16
-55.03
-57.69
-56.97
-54.52
-52.70
-54.36
-62.73
-80.95
-110.97
-152.23
-200.62
-248.56
-286.91
-307.90
-308.17
-289.99
-260.30
-227.75
-199.55
-179.37
-167.46
-162.13
-161.65
-165.15
-172.32
-182.60
-194.42
-205.42
-213.27
-216.62
-215.53
-211.31
-205.77
-200.28
-195.27
-190.13
-183.75
-175.14
-164.02
-151.04
-137.48
-124.71
-113.57
-104.11
-95.62
-87.03
-77.50
-66.76
-55.21
-43.70
-33.09
-23.78
-15.57
-7.74
0.60
10.06
20.72
32.10
43.41
54.00
63.72
73.00
82.74
93.89
106.99
121.94
138.06
154.42
170.25
185.30
199.88
214.75
230.94
249.56
271.54
297.24
325.80
354.78
380.26
397.82
403.96
397.45
379.76
354.45
325.69
296.83
269.60
244.32
220.72
198.66
178.37
160.21
144.11
129.42
114.99
99.71
82.96
64.96
46.82
30.41
17.86
11.02
10.90
17.25
28.61
42.75
57.30
70.26
80.28
86.50
88.41
85.65
78.27
66.87
52.83
38.03
24.39
13.37
5.54
0.68
-1.95
-3.18
-3.64
-3.56
-2.89
-1.35
1.30
5.09
9.65
14.25
17.95
19.92
19.66
17.20
13.05
8.00
2.90
-1.62
-5.30
-8.30
-11.17
-14.67
-19.40
-25.51
-32.40
-38.75
-42.83
-43.04
-38.57
-29.67
-17.66
-4.40
8.27
18.99
27.11
32.58
35.60
36.35
34.87
31.21
25.74
19.25
12.89
7.76
4.57
3.31
3.34
3.75
3.79
3.22
2.26
1.34
0.71
0.19
-0.73
-2.60
-5.70
-9.85
-14.43
-18.71
-22.07
-24.26
-25.45
-26.14
-26.93
-28.41
-31.03
-35.01
-40.24
-46.16
-51.74
-55.48
-55.91
-51.98
-43.55
-31.60
-17.96
-4.73
6.46
14.79
20.35
23.75
25.61
26.24
25.69
24.02
21.61
19.18
17.60
17.54
19.20
22.19
25.67
28.71
30.58
31.03
30.27
28.88
27.56
26.84
26.89
27.52
28.19
28.31
27.40
25.36
22.58
19.92
18.74
20.68
27.22
39.06
55.41
73.79
90.55
102.04
106.20
103.46
96.81
90.52
88.41
92.38
101.87
114.47
127.21
137.85
145.40
149.83
151.42
150.00
144.70
134.11
116.62
90.59
54.53
7.39
-50.65
-117.15
-186.81
-251.91
-304.13
-337.17
-348.85
-341.73
-321.81
-295.99
-269.57
-244.99
-222.04
-199.04
-174.26
-146.83
-117.11
-86.47
-56.89
-30.47
-8.91
6.99
17.36
23.06
25.24
25.05
23.43
21.23
19.25
18.03
17.57
17.15
15.68
12.45
7.87
3.64
2.23
5.73
14.95
28.95
45.42
61.57
75.01
84.34
89.13
89.58
86.19
79.53
70.30
59.38
47.93
37.19
28.19
21.46
16.99
14.33
12.81
11.83
10.98
10.06
8.92
7.53
5.81
3.80
1.57
-0.72
-2.95
-5.10
-7.23
-9.47
-11.91
-14.56
-17.34
-20.17
-22.92
-25.44
-27.58
-29.13
-30.07
-30.61
-31.24
-32.52
-34.80
-37.80
-40.50
-41.48
-39.45
-33.89
-25.38
-15.45
-5.91
1.76
6.91
9.67
10.61
10.30
9.05
7.02
4.38
1.56
-0.88
-2.40
-2.77
-2.15
-1.07
-0.11
0.33
0.19
-0.26
-0.58
-0.42
0.36
1.52
2.61
3.10
2.64
1.15
-1.07
-3.55
-5.81
-7.50
-8.62
-9.36
-10.06
-10.97
-12.27
-14.03
-16.30
-19.09
-22.30
-25.55
-28.10
-29.08
-27.73
-23.80
-17.64
-10.18
-2.52
4.39
9.99
14.12
16.82
18.15
18.20
17.09
15.04
12.37
9.38
6.27
3.14
0.06
-2.84
-5.34
-7.24
-8.49
-9.26
-9.88
-10.66
-11.67
-12.74
-13.56
-13.87
-13.60
-12.84
-11.67
-9.97
-7.52
-4.02
0.52
5.64
10.56
14.27
15.97
15.22
12.05
6.86
0.33
-6.62
-12.91
-17.29
-18.64
-16.25
-10.07
-0.78
10.38
21.99
32.78
41.87
48.75
53.17
55.09
54.69
52.48
49.34
46.38
44.64
44.78
46.84
50.28
54.20
57.73
60.43
62.47
64.68
68.29
74.65
84.51
97.54
112.03
125.15
133.80
135.77
130.76
120.69
109.04
99.55
94.77
95.21
99.44
104.92
109.24
110.98
109.96
106.61
101.35
93.95
83.43
68.50
47.83
20.20
-15.74
-61.37
-117.35
-182.19
-251.16
-316.38
-368.72
-400.89
-410.05
-398.84
-373.97
-343.28
-312.78
-285.25
-260.67
-237.78
-215.49
-193.35
-170.95
-147.17
-120.01
-87.41
-48.84
-6.24
35.97
72.03
97.06
108.95
109.05
101.42
90.99
81.54
74.65
69.81
65.54
60.65
54.88
48.79
43.17
38.41
34.25
30.03
24.97
18.63
11.06
2.86
-5.02
-11.48
-15.59
-16.78
-15.06
-10.96
-5.40
0.70
6.59
11.84
16.27
19.81
22.30
23.58
23.46
21.97
19.40
16.32
13.42
11.30
10.34
10.65
12.16
14.64
17.79
21.18
24.30
26.66
27.89
27.97
27.17
25.95
24.60
23.18
21.47
19.20
16.37
13.28
10.44
8.21
6.54
4.97
2.81
-0.46
-5.05
-10.79
-17.30
-24.12
-30.76
-36.58
-40.80
-42.51
-40.93
-35.75
-27.32
-16.59
-4.95
6.18
15.68
22.93
27.82
30.57
31.61
31.39
30.33
28.79
27.17
25.83
25.10
25.13
25.77
26.63
27.14
26.77
25.21
22.52
19.12
15.60
12.56
10.33
8.87
7.87
6.82
5.30
3.14
0.40
-2.58
-5.44
-7.92
-9.95
-11.61
-13.13
-14.85
-17.10
-20.14
-23.92
-28.01
-31.49
-33.19
-32.04
-27.49
-19.79
-9.97
0.51
10.22
18.21
24.13
28.10
30.40
31.30
31.01
29.77
27.96
26.10
24.72
24.21
24.60
25.62
26.76
27.50
27.47
26.54
24.77
22.31
19.22
15.42
10.81
5.30
-0.95
-7.54
-13.86
-19.28
-23.40
-26.15
-27.84
-28.95
-30.01
-31.46
-33.62
-36.74
-40.99
-46.27
-52.08
-57.42
-60.93
-61.28
-57.64
-49.96
-39.14
-26.63
-14.10
-3.02
5.61
11.31
14.04
14.19
12.47
9.78
7.06
5.05
4.15
4.34
5.32
6.65
8.01
9.23
10.32
11.30
12.14
12.70
12.82
12.35
11.33
9.89
8.29
6.76
5.48
4.51
3.82
3.17
2.23
0.48
-2.56
-7.16
-13.13
-19.64
-25.30
-28.53
-28.03
-23.24
-14.64
-3.54
8.19
18.77
26.91
32.01
34.12
33.73
31.53
28.19
24.31
20.39
16.86
14.00
11.96
10.72
10.09
9.79
9.48
8.83
7.55
5.43
2.46
-1.25
-5.41
-9.72
-13.93
-18.02
-22.09
-26.38
-31.10
-36.39
-42.29
-48.74
-55.46
-61.86
-67.04
-69.90
-69.43
-65.09
-57.00
-45.90
-32.94
-19.37
-6.30
5.35
14.85
21.56
24.99
24.98
21.83
16.42
10.05
4.12
-0.30
-2.89
-4.14
-5.21
-7.39
-11.51
-17.56
-24.66
-31.58
-37.28
-41.56
-45.17
-49.41
-55.67
-64.79
-76.74
-90.65
-104.99
-117.63
-126.03
-127.84
-121.82
-108.78
-91.80
-75.38
-63.54
-58.00
-57.22
-57.19
-53.50
-43.45
-27.29
-7.77
11.44
27.44
39.18
47.25
53.04
57.80
62.13
66.06
69.34
71.80
73.50
74.81
76.11
77.46
78.49
78.41
76.33
71.77
65.00
57.00
49.06
42.26
36.88
32.45
28.02
22.62
15.74
7.41
-1.90
-11.67
-21.55
-31.65
-42.43
-54.54
-68.44
-83.99
-100.15
-115.13
-126.83
-133.54
-134.58
-130.45
-122.63
-112.93
-102.99
-93.98
-86.73
-81.95
-80.23
-81.92
-86.76
-93.69
-100.89
-106.25
-107.98
-105.16
-97.98
-87.68
-76.12
-65.03
-55.42
-47.21
-39.34
-30.50
-19.91
-8.04
3.46
12.51
17.54
18.37
16.35
13.74
12.86
15.30
21.77
32.36
46.69
63.98
82.35
98.68
109.10
110.45
101.98
86.11
67.83
52.63
44.39
44.05
50.13
60.16
72.43
86.64
103.38
122.78
143.43
162.48
176.68
183.86
183.91
178.73
171.29
164.30
159.26
156.24
154.42
152.89
151.55
151.22
153.34
159.10
168.66
180.68
192.53
201.06
203.46
198.23
185.49
166.80
144.52
120.92
97.74
75.99
56.21
38.76
24.06
12.31
3.29
-3.95
-10.90
-19.13
-29.56
-41.93
-54.69
-65.61
-72.63
-74.75
-72.32
-66.88
-60.40
-54.71
-50.89
-49.37
-49.98
-52.34
-55.98
-60.41
-65.05
-69.15
-71.70
-71.40
-66.87
-57.10
-41.93
-22.52
-1.33
18.47
33.89
43.06
45.63
42.64
35.86
27.09
17.64
8.26
-0.61
-8.51
-14.87
-19.08
-20.81
-20.17
-17.80
-14.67
-11.84
-10.31
-10.91
-14.20
-20.34
-28.88
-38.58
-47.44
-53.14
-53.70
-48.13
-36.77
-21.16
-3.48
14.00
29.50
41.75
50.15
54.62
55.60
54.01
51.21
48.74
47.94
49.61
53.79
59.82
66.59
73.02
78.22
81.65
83.04
82.36
79.68
75.20
69.29
62.38
54.94
47.37
39.91
32.72
25.95
19.77
14.31
9.60
5.45
1.45
-2.89
-7.92
-13.68
-19.80
-25.55
-30.07
-32.54
-32.40
-29.51
-24.21
-17.24
-9.64
-2.57
2.98
6.42
7.69
7.30
6.02
4.54
3.16
1.61
-0.71
-4.32
-9.13
-14.19
-17.82
-18.11
-13.63
-4.07
9.65
25.59
41.39
54.93
64.99
71.55
75.84
79.84
85.76
95.18
108.25
123.34
136.90
144.19
140.63
123.60
93.94
56.45
18.84
-10.67
-26.11
-25.69
-11.87
10.07
34.26
55.92
71.84
79.96
78.65
66.66
43.50
10.05
-31.60
-78.75
-128.95
-180.30
-230.89
-278.08
-318.29
-347.63
-363.27
-364.63
-353.93
-335.70
-315.52
-298.65
-288.48
-285.64
-287.75
-290.08
-287.19
-274.98
-252.28
-221.32
-186.90
-154.77
-130.18
-117.14
-118.10
-133.68
-161.99
-198.09
-234.42
-262.46
-275.44
-270.63
-249.95
-218.62
-182.56
-146.06
-110.88
-77.08
-44.34
-12.92
16.32
42.85
67.28
91.38
117.58
148.02
183.88
224.99
269.85
315.62
358.50
394.44
420.19
434.18
437.29
432.15
422.02
409.34
394.89
378.13
358.35
336.22
314.60
298.00
290.63
294.10
305.94
319.72
327.24
321.41
298.93
261.48
214.80
166.55
123.76
91.07
70.30
60.93
61.01
67.91
78.68
90.26
99.77
105.00
104.83
99.10
88.64
74.80
59.03
42.65
26.57
11.40
-2.65
-15.61
-27.70
-39.16
-50.16
-60.81
-71.29
-82.23
-94.79
-110.42
-130.04
-153.16
-177.50
-199.35
-214.97
-222.00
-220.46
-212.52
-201.47
-190.31
-180.84
-173.50
-167.91
-163.42
-159.40
-155.13
-149.71
-142.08
-131.50
-118.05
-102.81
-87.64
-74.63
-65.39
-60.55
-59.58
-61.05
-63.15
-64.19
-63.13
-59.75
-54.65
-48.82
-43.25
-38.58
-35.00
-32.39
-30.53
-29.23
-28.35
-27.67
-26.83
-25.48
-23.50
-21.20
-19.41
-19.17
-21.34
-26.17
-33.11
-40.82
-47.60
-51.74
-51.96
-47.64
-38.88
-26.45
-11.65
3.92
18.66
31.19
40.56
46.45
48.96
48.63
46.19
42.43
38.16
34.08
30.74
28.48
27.34
27.03
26.98
26.60
25.41
23.31
20.50
17.34
14.15
11.00
7.68
3.86
-0.73
-6.19
-12.45
-19.38
-26.85
-34.63
-42.21
-48.58
-52.34
-52.01
-46.69
-36.49
-22.75
-7.65
6.49
17.87
25.71
30.14
31.89
31.74
30.34
28.16
25.61
23.16
21.32
20.47
20.69
21.70
22.94
23.82
23.74
22.34
19.48
15.26
10.02
4.22
-1.75
-7.60
-13.27
-18.91
-24.69
-30.77
-37.22
-43.96
-50.75
-57.08
-62.10
-64.73
-63.91
-58.94
-49.91
-37.74
-24.01
-10.49
1.36
10.73
17.43
21.69
23.88
24.26
23.06
20.55
17.22
13.79
11.03
9.51
9.43
10.51
12.11
13.56
14.26
13.93
12.56
10.31
7.37
3.91
-0.02
-4.39
-9.19
-14.44
-20.17
-26.42
-33.17
-40.16
-46.76
-51.95
-54.49
-53.24
-47.64
-37.97
-25.36
-11.59
1.47
12.32
20.12
24.77
26.67
26.43
24.68
21.92
18.63
15.31
12.54
10.84
10.48
11.36
12.95
14.53
15.35
14.96
13.25
10.45
6.89
2.94
-1.23
-5.58
-10.19
-15.14
-20.57
-26.54
-33.10
-40.16
-47.39
-54.05
-59.02
-60.97
-58.71
-51.60
-39.93
-24.88
-8.26
8.04
22.48
34.19
42.90
48.76
52.05
53.12
52.39
50.45
48.02
45.85
44.56
44.40
45.24
46.53
47.55
47.57
46.12
43.09
38.82
33.90
28.99
24.57
20.78
17.46
14.30
10.95
7.08
2.46
-3.06
-9.37
-15.88
-21.42
-24.41
-23.35
-17.48
-7.24
5.78
19.28
31.08
39.72
44.71
46.33
45.20
41.94
36.97
30.71
23.65
16.48
9.95
4.67
0.87
-1.71
-3.77
-6.11
-9.41
-14.02
-19.86
-26.56
-33.64
-40.64
-47.33
-53.69
-59.89
-66.22
-72.98
-80.42
-88.68
-97.57
-106.48
-114.25
-119.22
-119.64
-114.09
-102.07
-84.27
-62.59
-39.60
-17.91
0.57
14.92
25.18
32.00
36.10
38.09
38.28
36.91
34.27
30.85
27.16
23.72
20.73
18.15
15.71
13.11
10.16
6.80
3.11
-0.82
-4.90
-9.17
-13.67
-18.49
-23.62
-29.05
-34.74
-40.78
-47.38
-54.77
-63.00
-71.66
-79.72
-85.64
-87.82
-85.12
-77.37
-65.53
-51.37
-37.00
-24.20
-14.17
-7.40
-3.95
-3.58
-5.90
-10.38
-16.27
-22.65
-28.52
-33.03
-35.67
-36.39
-35.53
-33.68
-31.48
-29.45
-27.82
-26.65
-25.85
-25.38
-25.32
-25.83
-26.96
-28.55
-30.06
-30.64
-29.34
-25.41
-18.67
-9.71
0.18
9.48
17.13
23.05
28.41
35.28
45.92
61.98
83.80
110.22
138.75
166.29
189.84
207.18
217.21
219.90
215.85
206.05
191.52
173.47
153.29
132.60
112.97
95.53
80.69
68.11
57.16
47.32
38.41
30.46
23.35
16.57
9.24
0.55
-9.83
-21.58
-33.77
-45.29
-55.19
-62.91
-68.48
-72.41
-75.51
-78.77
-82.95
-88.35
-94.51
-100.23
-103.74
-103.19
-97.20
-85.29
-68.10
-47.25
-25.01
-3.87
14.01
27.13
34.87
37.62
36.53
33.24
29.50
26.80
26.18
28.16
32.79
39.58
47.55
55.22
60.77
62.50
59.30
51.11
39.03
24.96
11.02
-1.12
-10.64
-17.61
-22.65
-26.72
-30.64
-35.09
-40.43
-46.80
-53.94
-61.22
-67.60
-71.85
-72.80
-69.67
-62.38
-51.53
-38.31
-24.19
-10.63
1.23
10.67
17.46
21.73
23.90
24.49
24.11
23.28
22.45
21.88
21.68
21.80
22.06
22.28
22.27
21.96
21.32
20.36
19.12
17.64
15.99
14.33
12.79
11.39
9.93
7.94
4.81
0.08
-6.29
-13.64
-20.66
-25.66
-27.09
-23.96
-16.25
-4.94
8.29
21.49
33.02
41.90
47.95
51.55
53.39
54.11
54.16
53.82
53.32
52.86
52.59
52.46
52.11
50.96
48.40
44.10
38.20
31.26
24.09
17.41
11.59
6.57
1.98
-2.63
-7.62
-13.22
-19.58
-26.86
-35.17
-44.38
-53.90
-62.64
-69.21
-72.29
-71.18
-66.03
-57.83
-47.94
-37.73
-28.30
-20.40
-14.57
-11.22
-10.59
-12.59
-16.57
-21.42
-25.75
-28.33
-28.47
-26.25
-22.49
-18.46
-15.37
-13.98
-14.40
-16.11
-18.31
-20.30
-21.79
-22.94
-24.24
-26.23
-29.22
-33.22
-37.81
-42.24
-45.42
-46.06
-42.99
-35.47
-23.65
-8.65
7.60
22.92
35.56
44.54
49.75
51.61
50.78
47.84
43.33
37.81
31.96
26.58
22.28
19.33
17.54
16.49
15.71
14.90
13.93
12.67
10.86
8.10
4.00
-1.62
-8.55
-16.22
-23.90
-30.93
-36.89
-41.73
-45.65
-49.09
-52.54
-56.33
-60.32
-63.75
-65.28
-63.33
-56.74
-45.22
-29.62
-11.71
6.40
22.88
36.58
47.09
54.44
58.86
60.54
59.60
56.30
51.15
45.00
38.80
33.39
29.21
26.20
23.92
21.85
19.68
17.39
15.20
13.28
11.49
9.44
6.54
2.39
-3.08
-9.49
-16.26
-22.74
-28.48
-33.23
-37.08
-40.39
-43.81
-48.08
-53.71
-60.57
-67.71
-73.35
-75.42
-72.28
-63.41
-49.63
-32.86
-15.45
0.57
13.93
24.20
31.56
36.30
38.65
38.67
36.46
32.37
27.15
21.89
17.68
15.32
14.97
16.08
17.71
18.82
18.78
17.52
15.43
13.10
10.89
8.82
6.54
3.62
-0.15
-4.64
-9.45
-14.10
-18.22
-21.57
-23.93
-25.01
-24.54
-22.60
-19.92
-17.93
-18.42
-22.82
-31.38
-42.74
-54.13
-62.22
-64.23
-58.76
-46.27
-28.69
-8.75
10.89
28.19
42.06
52.12
58.55
61.85
62.78
62.30
61.51
61.30
62.05
63.35
64.15
63.17
59.49
53.04
44.56
35.34
26.55
18.92
12.53
7.02
1.99
-2.77
-7.19
-11.06
-14.17
-16.46
-18.02
-19.01
-19.61
-19.96
-20.16
-20.32
-20.63
-21.37
-22.96
-25.83
-30.35
-36.62
-44.30
-52.46
-59.63
-64.06
-64.17
-59.13
-49.18
-35.58
-20.24
-5.15
8.13
18.68
26.20
30.83
32.88
32.75
30.92
28.02
24.82
22.13
20.61
20.64
22.09
24.46
26.97
28.92
29.93
30.03
29.58
28.89
28.09
26.96
25.16
22.48
19.00
15.18
11.60
8.77
6.91
5.92
5.47
5.12
4.48
3.27
1.39
-1.19
-4.38
-8.15
-12.45
-17.36
-22.96
-29.31
-36.22
-43.10
-48.93
-52.33
-51.89
-46.65
-36.49
-22.36
-6.10
10.04
24.05
34.67
41.54
45.04
45.89
44.84
42.53
39.60
36.85
35.20
35.51
38.21
42.96
48.71
53.95
57.20
57.36
53.92
46.89
36.60
23.65
8.85
-6.64
-21.44
-34.22
-44.01
-50.48
-54.02
-55.47
-55.86
-56.08
-56.62
-57.67
-59.10
-60.59
-61.70
-62.03
-61.40
-59.98
-58.38
-57.42
-57.84
-59.82
-62.70
-64.92
-64.52
-59.76
-49.76
-34.97
-16.98
1.86
19.27
33.53
43.79
49.96
52.35
51.35
47.36
40.91
32.90
24.65
17.71
13.42
12.55
15.04
20.12
26.64
33.53
40.04
45.82
50.75
54.71
57.42
58.46
57.41
54.01
48.35
40.87
32.30
23.50
15.22
7.96
1.84
-3.22
-7.44
-11.02
-14.06
-16.64
-18.81
-20.82
-23.03
-25.94
-29.81
-34.46
-39.04
-42.13
-42.11
-37.78
-28.88
-16.28
-1.76
12.43
24.16
31.78
34.35
31.67
24.20
13.01
-0.35
-14.15
-26.64
-36.40
-42.45
-44.21
-41.57
-34.94
-25.28
-14.19
-3.64
4.46
8.85
9.24
6.35
1.53
-3.75
-8.35
-11.68
-13.61
-14.29
-13.95
-12.86
-11.29
-9.60
-8.16
-7.30
-7.23
-7.97
-9.48
-11.72
-14.76
-18.75
-23.75
-29.47
-35.19
-39.81
-42.18
-41.48
-37.53
-30.90
-22.69
-14.21
-6.61
-0.73
2.94
4.23
3.12
-0.21
-5.38
-11.75
-18.49
-24.67
-29.51
-32.43
-33.28
-32.37
-30.31
-27.81
-25.41
-23.25
-21.09
-18.46
-15.00
-10.67
-5.80
-0.86
3.75
7.92
11.69
15.10
17.86
19.43
19.11
16.38
11.11
3.64
-5.44
-15.48
-25.82
-35.82
-44.66
-51.21
-54.19
-52.44
-45.40
-33.42
-17.84
-0.69
15.76
29.61
39.66
45.54
47.54
46.34
42.74
37.50
31.40
25.22
19.82
16.04
14.51
15.46
18.51
22.86
27.39
31.12
33.45
34.21
33.63
31.98
29.51
26.25
22.27
17.71
12.96
8.52
4.86
2.27
0.68
-0.33
-1.39
-3.26
-6.46
-11.05
-16.42
-21.27
-23.97
-23.06
-17.84
-8.66
3.17
15.83
27.61
37.43
44.85
49.98
53.09
54.40
54.06
52.27
49.45
46.32
43.71
42.36
42.74
45.01
49.12
54.84
61.72
68.91
74.98
78.02
76.11
67.99
53.65
34.54
13.20
-7.50
-25.28
-38.95
-48.52
-54.87
-59.26
-62.84
-66.47
-70.51
-74.86
-78.84
-81.36
-81.10
-76.93
-68.41
-56.03
-41.29
-26.30
-13.20
-3.57
1.95
3.62
2.34
-0.79
-4.77
-8.86
-12.49
-15.16
-16.45
-16.06
-13.99
-10.55
-6.29
-1.83
2.30
5.72
8.23
9.65
9.79
8.55
5.92
2.14
-2.32
-6.82
-10.80
-13.93
-16.28
-18.31
-20.76
-24.33
-29.33
-35.48
-41.79
-46.73
-48.63
-46.19
-38.90
-27.21
-12.55
3.14
17.92
30.30
39.46
45.24
47.85
47.60
44.79
39.71
32.82
24.83
16.58
8.98
2.70
-1.89
-4.74
-6.04
-6.12
-5.37
-4.29
-3.41
-3.24
-4.17
-6.33
-9.59
-13.62
-18.01
-22.36
-26.33
-29.69
-32.42
-34.73
-37.12
-40.30
-44.81
-50.69
-57.10
-62.35
-64.36
-61.39
-52.75
-39.13
-22.44
-5.11
10.62
23.25
32.14
37.35
39.26
38.42
35.39
30.89
25.79
21.05
17.48
15.57
15.28
16.15
17.43
18.39
18.59
17.91
16.60
15.00
13.34
11.62
9.60
6.95
3.41
-0.95
-5.83
-10.73
-15.16
-18.86
-21.88
-24.57
-27.47
-31.19
-36.20
-42.58
-49.84
-56.80
-61.80
-63.04
-59.22
-50.02
-36.29
-19.84
-2.85
12.67
25.42
34.83
41.00
44.32
45.26
44.29
41.89
38.65
35.29
32.57
31.16
31.40
33.22
36.01
38.89
40.92
41.46
40.33
37.86
34.70
31.49
28.61
26.06
23.50
20.52
16.86
12.60
8.06
3.69
-0.16
-3.40
-6.26
-9.17
-12.67
-17.25
-23.23
-30.67
-39.30
-48.38
-56.65
-62.45
-64.04
-60.09
-50.30
-35.53
-17.74
0.59
17.20
30.52
39.94
45.58
48.00
47.84
45.80
42.63
39.16
36.28
34.73
34.83
36.42
38.96
41.72
44.13
45.95
47.19
47.97
48.26
47.81
46.21
43.24
39.01
34.05
29.13
24.90
21.65
19.21
17.13
14.95
12.46
9.72
6.95
4.37
1.97
-0.47
-3.36
-7.23
-12.57
-19.77
-29.03
-39.98
-51.57
-61.95
-68.71
-69.57
-63.10
-49.41
-30.23
-8.40
12.90
31.09
44.67
53.29
57.47
58.11
56.26
52.95
49.21
46.04
44.23
44.14
45.52
47.49
48.76
48.10
44.76
38.70
30.61
21.57
12.76
5.02
-1.23
-6.09
-9.89
-13.10
-16.17
-19.33
-22.64
-25.96
-29.15
-32.05
-34.64
-37.08
-39.59
-42.49
-46.05
-50.47
-55.71
-61.45
-66.94
-70.97
-72.03
-68.61
-59.74
-45.34
-26.53
-5.41
15.40
33.44
47.07
55.70
59.69
59.90
57.31
52.77
47.06
41.00
35.53
31.61
29.84
30.25
32.18
34.49
36.00
35.94
34.23
31.33
27.97
24.76
21.89
19.13
16.03
12.20
7.53
2.29
-2.96
-7.67
-11.50
-14.44
-16.85
-19.33
-22.49
-26.78
-32.32
-38.71
-45.04
-49.97
-52.07
-50.22
-44.06
-34.15
-21.95
-9.34
1.86
10.40
15.69
17.76
17.01
13.97
9.23
3.53
-2.22
-6.95
-9.71
-9.92
-7.63
-3.50
1.45
6.21
10.15
13.06
14.96
15.80
15.32
13.11
8.81
2.44
-5.46
-13.96
-21.99
-28.69
-33.61
-36.75
-38.39
-38.98
-39.08
-39.28
-40.18
-42.30
-45.81
-50.34
-54.84
-57.72
-57.30
-52.35
-42.60
-28.93
-13.18
2.38
15.67
25.23
30.41
31.31
28.64
23.38
16.74
9.92
3.99
-0.23
-2.26
-2.07
0.05
3.46
7.42
11.18
14.17
16.13
17.13
17.42
17.30
16.89
16.08
14.63
12.41
9.51
6.32
3.30
0.68
-1.65
-4.17
-7.52
-12.19
-18.37
-25.95
-34.57
-43.65
-52.39
-59.68
-64.13
-64.42
-59.77
-50.33
-37.42
-23.16
-9.87
0.66
7.55
10.98
11.71
10.69
8.67
6.15
3.50
1.05
-0.81
-1.74
-1.60
-0.53
1.14
3.02
4.83
6.51
8.12
9.72
11.21
12.35
12.73
11.96
9.87
6.53
2.23
-2.58
-7.47
-12.22
-16.87
-21.65
-26.86
-32.49
-38.08
-42.54
-44.44
-42.38
-35.58
-24.25
-9.60
6.50
22.02
35.41
45.82
53.12
57.55
59.47
59.21
57.05
53.48
49.17
45.00
41.76
39.90
39.35
39.67
40.17
40.09
38.87
36.01
31.19
24.29
15.46
5.28
-5.30
-15.13
-23.22
-29.06
-32.80
-35.18
-37.25
-40.02
-44.08
-49.42
-55.22
-60.13
-62.48
-60.84
-54.42
-43.33
-28.59
-11.87
4.91
20.00
32.13
40.68
45.56
47.18
46.20
43.43
39.76
36.11
33.45
32.66
34.44
39.11
46.44
55.50
64.74
72.33
76.57
76.38
71.58
62.96
51.94
40.10
28.76
18.71
10.31
3.66
-1.12
-3.96
-4.92
-4.43
-3.27
-2.26
-1.88
-2.13
-2.63
-3.00
-3.18
-3.43
-4.13
-5.45
-7.22
-9.09
-10.86
-12.70
-15.01
-18.05
-21.62
-24.96
-27.13
-27.44
-25.86
-22.95
-19.58
-16.47
-13.94
-11.90
-10.13
-8.47
-7.06
-6.28
-6.54
-8.13
-11.03
-14.96
-19.36
-23.72
-27.63
-30.95
-33.87
-36.73
-39.81
-43.04
-45.78
-46.80
-44.56
-37.77
-25.98
-9.94
8.39
26.33
41.22
51.19
55.50
54.60
49.67
42.16
33.40
24.41
15.96
8.65
3.02
-0.55
-1.89
-1.20
0.91
3.50
5.62
6.54
6.11
4.65
2.74
0.78
-1.34
-4.28
-8.91
-15.80
-24.83
-35.23
-45.89
-55.80
-64.27
-70.87
-75.08
-76.08
-72.92
-64.99
-52.55
-36.92
-20.29
-5.15
6.43
13.19
14.93
12.19
6.03
-2.37
-11.88
-21.61
-30.81
-38.84
-45.18
-49.35
-51.11
-50.55
-48.21
-45.02
-41.95
-39.77
-38.75
-38.72
-39.24
-39.86
-40.38
-40.87
-41.59
-42.92
-45.18
-48.67
-53.54
-59.65
-66.32
-72.20
-75.33
-73.64
-65.57
-50.72
-30.14
-6.26
17.86
39.30
56.05
67.31
73.36
75.19
73.88
70.43
65.68
60.35
55.22
51.01
48.26
47.13
47.30
48.14
48.90
48.99
48.04
45.92
42.63
38.24
32.84
26.55
19.52
11.90
3.83
-4.59
-13.33
-22.45
-32.10
-42.51
-53.77
-65.56
-76.87
-85.94
-90.58
-88.82
-79.77
-64.10
-43.96
-22.41
-2.43
13.81
25.38
32.44
35.84
36.55
35.41
33.07
30.10
27.07
24.63
23.29
23.27
24.47
26.46
28.71
30.78
32.43
33.61
34.41
34.85
34.77
33.85
31.68
27.98
22.75
16.34
9.43
2.74
-3.10
-7.89
-11.91
-15.87
-20.65
-27.03
-35.27
-44.86
-54.51
-62.25
-65.97
-64.02
-55.75
-41.81
-23.96
-4.55
14.14
30.44
43.48
53.12
59.62
63.36
64.71
64.06
61.89
58.85
55.74
53.34
52.26
52.74
54.53
56.99
59.24
60.52
60.36
58.79
56.21
53.13
50.03
47.08
44.07
40.59
36.16
30.45
23.36
15.11
6.11
-3.10
-12.04
-20.39
-28.06
-35.20
-42.19
-49.57
-57.86
-67.31
-77.66
-87.82
-95.90
-99.68
-97.19
-87.46
-71.02
-49.81
-26.64
-4.39
14.73
29.44
39.46
45.13
47.13
46.35
43.80
40.58
37.73
36.06
35.91
37.13
39.16
41.33
43.07
44.11
44.42
44.09
43.13
41.44
38.82
35.13
30.42
24.99
19.32
13.85
8.79
4.09
-0.48
-5.20
-10.22
-15.44
-20.62
-25.41
-29.57
-33.02
-35.95
-38.73
-41.92
-46.16
-51.89
-59.14
-67.21
-74.59
-79.24
-79.10
-72.83
-60.27
-42.59
-21.91
-0.78
18.52
34.35
45.86
52.86
55.59
54.68
51.05
45.88
40.45
35.96
33.24
32.63
33.88
36.31
39.10
41.51
43.07
43.62
43.17
41.80
39.51
36.21
31.95
26.92
21.50
16.16
11.33
7.18
3.62
0.37
-2.94
-6.60
-10.66
-14.94
-19.12
-22.86
-25.99
-28.57
-30.94
-33.62
-37.23
-42.27
-48.94
-56.84
-64.85
-71.15
-73.61
-70.44
-60.82
-45.28
-25.65
-4.48
15.60
32.59
45.30
53.40
57.10
56.98
53.83
48.61
42.43
36.39
31.45
28.27
27.08
27.70
29.56
31.88
33.82
34.76
34.41
32.90
30.54
27.66
24.43
20.82
16.77
12.36
7.86
3.64
-0.03
-3.18
-6.06
-9.06
-12.36
-15.90
-19.37
-22.42
-24.93
-27.03
-29.16
-31.84
-35.57
-40.66
-47.02
-53.99
-60.30
-64.23
-64.00
-58.35
-47.07
-31.19
-12.77
5.70
21.95
34.51
42.80
46.98
47.64
45.43
40.99
35.00
28.34
22.04
17.15
14.43
14.10
15.71
18.33
20.84
22.37
22.60
21.66
20.06
18.22
16.39
14.42
12.01
8.89
5.01
0.63
-3.80
-7.84
-11.26
-14.11
-16.61
-19.07
-21.72
-24.73
-28.28
-32.58
-37.83
-43.98
-50.46
-56.10
-59.26
-58.26
-52.06
-40.67
-25.28
-7.95
8.98
23.57
34.65
41.86
45.41
45.71
43.22
38.48
32.20
25.46
19.43
15.15
13.13
13.16
14.47
16.08
17.19
17.44
16.87
15.74
14.30
12.60
10.49
7.76
4.22
-0.19
-5.34
-10.91
-16.46
-21.55
-25.91
-29.52
-32.67
-35.86
-39.74
-44.84
-51.36
-58.96
-66.51
-72.32
-74.39
-71.06
-61.65
-46.74
-28.18
-8.49
9.80
24.82
35.63
42.17
44.90
44.50
41.66
37.14
31.73
26.32
21.82
18.90
17.93
18.78
20.84
23.33
25.43
26.59
26.64
25.75
24.18
22.22
19.93
17.10
13.36
8.30
1.73
-6.16
-14.77
-23.18
-30.50
-36.12
-40.06
-42.90
-45.69
-49.62
-55.52
-63.54
-72.93
-82.04
-88.65
-90.48
-85.90
-74.38
-56.84
-35.39
-12.76
8.45
26.32
39.90
49.06
54.21
55.95
54.99
52.11
48.16
44.05
40.61
38.39
37.60
38.00
39.11
40.29
40.97
40.78
39.59
37.50
34.76
31.64
28.28
24.59
20.29
15.07
8.79
1.64
-5.86
-13.04
-19.29
-24.36
-28.46
-32.14
-36.14
-41.09
-47.38
-55.03
-63.68
-72.49
-80.10
-84.78
-84.65
-78.32
-65.40
-46.85
-24.91
-2.44
17.80
33.95
45.27
52.11
55.34
55.91
54.51
51.64
47.68
43.25
39.17
36.35
35.41
36.40
38.69
41.14
42.55
42.15
39.83
36.11
31.78
27.48
23.40
19.32
14.80
9.49
3.40
-3.13
-9.51
-15.18
-19.84
-23.50
-26.49
-29.32
-32.51
-36.53
-41.74
-48.36
-56.34
-65.07
-73.20
-78.77
-79.61
-74.04
-61.61
-43.40
-21.80
0.19
19.84
35.27
45.75
51.46
53.14
51.75
48.29
43.77
39.16
35.37
33.00
32.29
32.99
34.50
36.05
36.92
36.72
35.39
33.20
30.49
27.55
24.47
21.09
17.22
12.73
7.69
2.34
-2.94
-7.86
-12.21
-15.94
-19.08
-21.74
-24.03
-26.23
-28.69
-31.94
-36.55
-42.88
-50.71
-59.06
-66.13
-69.65
-67.56
-58.72
-43.46
-23.54
-1.65
19.36
37.29
50.94
60.07
65.01
66.38
64.80
60.89
55.43
49.36
43.69
39.30
36.66
35.66
35.71
35.87
35.22
33.20
29.75
25.29
20.49
15.95
11.91
8.25
4.49
0.16
-4.99
-10.85
-16.92
-22.62
-27.43
-31.09
-33.67
-35.45
-36.84
-38.32
-40.44
-43.70
-48.37
-54.19
-60.05
-64.15
-64.45
-59.36
-48.45
-32.76
-14.47
3.77
19.66
31.77
39.64
43.49
43.81
41.16
36.14
29.61
22.67
16.69
12.84
11.80
13.48
17.12
21.54
25.57
28.40
29.68
29.52
28.23
26.11
23.32
19.78
15.32
9.82
3.38
-3.62
-10.56
-16.78
-21.87
-25.77
-28.86
-31.79
-35.32
-40.09
-46.40
-54.15
-62.67
-70.71
-76.54
-78.33
-74.62
-64.86
-49.63
-30.70
-10.48
8.56
24.49
36.26
43.63
47.03
47.17
44.84
40.84
36.02
31.28
27.47
25.27
24.96
26.27
28.49
30.59
31.68
31.17
29.05
25.74
21.90
18.08
14.49
10.97
7.09
2.46
-3.09
-9.34
-15.83
-21.98
-27.37
-31.87
-35.64
-39.08
-42.63
-46.81
-52.09
-58.85
-67.05
-76.02
-84.25
-89.51
-89.50
-82.62
-68.68
-49.10
-26.57
-4.16
15.49
30.83
41.41
47.66
50.39
50.45
48.64
45.72
42.50
39.87
38.59
39.07
41.26
44.56
48.13
51.08
52.80
53.00
51.63
48.85
44.80
39.67
33.72
27.27
20.67
14.16
7.82
1.52
-4.85
-11.28
-17.54
-23.27
-28.16
-32.16
-35.57
-38.92
-42.90
-48.10
-54.84
-63.10
-72.27
-81.09
-87.66
-89.81
-85.63
-74.18
-56.01
-33.16
-8.66
14.33
33.31
46.95
55.09
58.36
57.85
54.75
50.21
45.34
41.09
38.15
36.87
37.20
38.69
40.77
42.84
44.44
45.30
45.28
44.29
42.27
39.24
35.26
30.53
25.35
20.07
14.95
10.08
5.32
0.47
-4.65
-10.03
-15.44
-20.48
-24.82
-28.39
-31.41
-34.47
-38.29
-43.58
-50.69
-59.38
-68.65
-76.75
-81.43
-80.48
-72.52
-57.45
-36.75
-13.11
10.17
30.13
44.83
53.56
56.76
55.59
51.46
45.77
39.71
34.31
30.34
28.23
28.03
29.38
31.65
34.14
36.29
37.80
38.59
38.68
38.09
36.77
34.65
31.63
27.75
23.19
18.27
13.31
8.61
4.24
0.07
-4.16
-8.68
-13.53
-18.49
-23.18
-27.27
-30.64
-33.56
-36.62
-40.63
-46.28
-53.85
-62.85
-71.99
-79.29
-82.57
-80.04
-70.89
-55.59
-35.82
-14.03
7.17
25.55
39.62
48.70
52.90
52.90
49.75
44.66
38.84
33.35
29.00
26.31
25.46
26.32
28.47
31.30
34.11
36.25
37.30
37.06
35.62
33.14
29.78
25.68
20.98
15.82
10.41
4.98
-0.29
-5.33
-10.15
-14.80
-19.24
-23.34
-26.94
-29.93
-32.42
-34.77
-37.51
-41.25
-46.32
-52.59
-59.18
-64.56
-66.81
-64.21
-55.84
-42.01
-24.32
-5.11
13.12
28.43
39.73
46.78
49.88
49.56
46.49
41.35
35.01
28.51
22.92
19.18
17.80
18.77
21.49
25.04
28.36
30.57
31.13
29.97
27.40
23.89
19.90
15.72
11.39
6.82
1.87
-3.49
-9.12
-14.73
-19.95
-24.51
-28.23
-31.19
-33.60
-35.87
-38.49
-41.99
-46.78
-52.98
-60.17
-67.25
-72.53
-74.12
-70.43
-60.79
-45.72
-26.91
-6.74
12.31
28.30
40.07
47.29
50.28
49.71
46.44
41.45
35.77
30.38
26.10
23.48
22.66
23.44
25.34
27.70
29.87
31.27
31.54
30.54
28.30
25.07
21.08
16.58
11.66
6.38
0.75
-5.22
-11.41
-17.59
-23.45
-28.64
-32.92
-36.27
-38.93
-41.48
-44.64
-49.06
-55.11
-62.54
-70.50
-77.44
-81.50
-80.84
-74.24
-61.51
-43.64
-22.72
-1.29
18.14
33.76
44.65
50.74
52.59
51.03
46.97
41.33
35.03
29.01
24.24
21.41
20.89
22.44
25.34
28.60
31.30
32.85
33.10
32.25
30.62
28.42
25.60
21.99
17.38
11.75
5.35
-1.39
-7.95
-13.91
-19.01
-23.28
-26.91
-30.26
-33.71
-37.59
-42.19
-47.64
-53.82
-60.16
-65.42
-67.81
-65.34
-56.42
-40.51
-18.54
7.28
34.00
58.76
79.29
94.23
102.88
104.97
100.69
90.65
76.25
59.51
42.78
28.28
17.46
10.83
8.01
7.93
9.32
10.95
11.88
11.56
9.94
7.33
4.19
0.90
-2.48
-6.19
-10.52
-15.58
-21.10
-26.52
-31.22
-34.82
-37.37
-39.32
-41.33
-44.09
-48.13
-53.78
-61.06
-69.58
-78.30
-85.51
-89.11
-87.11
-78.40
-63.27
-43.49
-21.78
-1.03
16.56
29.80
38.46
42.89
43.61
41.17
36.26
29.84
23.13
17.52
14.17
13.71
16.14
20.75
26.39
31.76
35.78
37.88
38.11
36.94
35.06
32.91
30.56
27.69
23.85
18.79
12.62
5.88
-0.76
-6.69
-11.63
-15.73
-19.43
-23.34
-28.07
-34.05
-41.40
-49.80
-58.32
-65.44
-69.27
-68.04
-60.66
-47.28
-29.30
-9.08
10.74
27.91
40.99
49.47
53.44
53.42
50.15
44.54
37.74
31.01
25.53
22.13
21.09
22.11
24.44
27.18
29.50
30.89
31.27
30.86
30.08
29.22
28.21
26.59
23.73
19.05
12.47
4.41
-4.28
-12.64
-19.91
-25.82
-30.59
-34.78
-39.12
-44.28
-50.72
-58.47
-67.06
-75.39
-81.87
-84.77
-82.60
-74.64
-61.22
-43.72
-24.24
-5.16
11.43
24.07
32.12
35.59
35.08
31.57
26.28
20.54
15.64
12.60
11.98
13.68
17.10
21.25
25.15
28.09
29.78
30.31
29.90
28.76
26.86
24.02
20.02
14.79
8.59
1.99
-4.29
-9.63
-13.79
-16.99
-19.81
-23.08
-27.52
-33.57
-41.16
-49.60
-57.58
-63.34
-65.03
-61.30
-51.76
-37.28
-19.78
-1.74
14.55
27.52
36.50
41.55
43.05
41.42
37.17
30.97
23.87
17.18
12.17
9.67
9.81
12.00
15.14
18.16
20.30
21.32
21.42
20.97
20.21
19.10
17.34
14.50
10.40
5.11
-0.81
-6.69
-11.89
-16.03
-19.20
-21.93
-25.00
-29.28
-35.46
-43.71
-53.40
-63.03
-70.39
-73.15
-69.57
-59.23
-43.21
-23.86
-4.02
13.77
27.90
37.79
43.64
45.98
45.38
42.42
37.73
32.25
27.09
23.38
21.92
22.84
25.61
29.18
32.36
34.24
34.53
33.43
31.56
29.55
27.65
25.70
23.22
19.73
15.00
9.26
3.05
-3.02
-8.43
-13.00
-16.87
-20.45
-24.40
-29.43
-36.12
-44.59
-54.25
-63.59
-70.50
-72.72
-68.68
-58.01
-41.79
-22.18
-1.82
16.99
32.68
44.55
52.56
57.02
58.33
56.96
53.59
49.14
44.81
41.83
41.08
42.81
46.49
51.03
55.11
57.78
58.63
57.99
56.52
54.90
53.47
52.08
50.28
47.56
43.67
38.76
33.37
28.27
24.16
21.51
20.33
20.06
19.52
17.19
11.45
1.14
-13.97
-32.81
-53.05
-71.53
-84.97
-90.90
-88.28
-77.82
-61.61
-42.46
-23.17
-5.96
7.79
17.41
22.78
24.17
22.20
17.88
12.51
7.48
3.98
2.72
3.74
6.53
10.20
13.76
16.42
17.75
17.76
16.78
15.27
13.50
11.50
8.98
5.60
1.14
-4.33
-10.43
-16.66
-22.55
-27.85
-32.56
-36.91
-41.28
-46.08
-51.79
-58.72
-66.95
-75.97
-84.68
-91.40
-94.21
-91.51
-82.55
-67.80
-48.88
-28.14
-8.01
9.55
23.38
33.04
38.62
40.53
39.33
35.83
31.05
26.19
22.42
20.59
21.02
23.33
26.60
29.73
31.73
32.07
30.81
28.50
25.78
23.13
20.54
17.66
14.00
9.24
3.47
-2.82
-8.96
-14.39
-18.79
-22.27
-25.27
-28.43
-32.50
-38.15
-45.73
-54.99
-64.88
-73.49
-78.45
-77.60
-69.71
-55.01
-35.20
-13.07
8.41
26.83
40.84
50.15
55.24
56.86
55.78
52.67
48.21
43.26
38.77
35.63
34.42
35.15
37.24
39.72
41.53
41.91
40.62
37.91
34.32
30.41
26.46
22.43
18.01
12.88
6.91
0.35
-6.30
-12.43
-17.59
-21.62
-24.69
-27.26
-29.88
-33.18
-37.66
-43.75
-51.50
-60.39
-69.17
-75.85
-78.17
-74.24
-63.27
-45.93
-24.27
-1.12
20.73
39.17
53.15
62.58
67.96
70.06
69.71
67.80
65.22
62.93
61.76
62.29
64.63
68.37
72.54
75.85
77.09
75.36
70.48
62.85
53.42
43.18
32.98
23.18
13.83
4.83
-3.88
-12.17
-19.73
-26.26
-31.63
-35.88
-39.27
-42.10
-44.62
-46.98
-49.41
-52.30
-56.21
-61.57
-68.21
-75.00
-79.84
-80.24
-74.30
-61.48
-43.01
-21.47
0.09
19.13
34.25
45.21
52.53
56.98
59.32
60.12
60.02
59.63
59.55
60.17
61.67
63.97
66.85
70.10
73.51
76.89
79.90
82.09
83.00
82.34
80.19
77.03
73.45
69.94
66.59
63.08
58.98
54.11
48.79
43.88
40.42
39.32
41.03
45.41
51.59
57.92
61.93
60.62
51.26
32.52
5.43
-26.39
-57.66
-83.15
-99.53
-106.37
-106.04
-102.32
-98.88
-98.02
-100.21
-104.60
-109.77
-114.33
-117.33
-118.15
-116.28
-111.18
-102.48
-90.22
-75.27
-59.41
-45.08
-34.67
-29.68
-30.11
-34.50
-40.46
-45.68
-48.77
-49.62
-49.13
-48.52
-48.60
-49.42
-50.29
-50.31
-48.87
-46.01
-42.44
-39.23
-37.44
-37.69
-39.98
-43.58
-47.20
-49.20
-47.95
-42.25
-31.65
-16.59
1.66
21.30
40.37
57.13
70.29
79.13
83.52
83.90
81.20
76.64
71.49
66.84
63.35
61.13
59.86
58.87
57.39
54.78
50.64
44.83
37.46
28.65
18.53
7.14
-5.39
-18.72
-32.16
-44.75
-55.47
-63.52
-68.59
-70.99
-71.59
-71.67
-72.65
-75.69
-81.30
-88.90
-96.76
-102.26
-102.67
-95.96
-81.58
-60.63
-35.54
-9.42
14.82
34.96
49.77
58.91
62.75
62.16
58.31
52.61
46.44
41.07
37.42
35.95
36.58
38.85
42.06
45.54
48.79
51.40
52.99
52.99
50.65
45.32
36.65
24.97
11.24
-3.13
-16.75
-28.67
-38.55
-46.61
-53.37
-59.43
-65.28
-71.30
-77.62
-83.97
-89.46
-92.54
-91.22
-83.57
-68.51
-46.37
-19.16
9.89
37.18
59.71
75.83
85.51
89.90
90.87
90.19
89.19
88.57
88.57
89.14
90.15
91.51
93.16
95.17
97.82
101.66
107.44
115.60
125.53
134.91
139.78
135.51
118.49
88.02
46.94
1.04
-43.00
-79.90
-107.31
-125.93
-138.31
-147.25
-154.56
-160.78
-165.46
-167.76
-166.75
-161.58
-151.54
-136.21
-115.90
-91.81
-66.14
-41.55
-20.64
-5.26
3.76
6.73
4.79
-0.37
-6.91
-13.15
-17.79
-20.14
-20.13
-18.18
-15.06
-11.51
-8.12
-5.10
-2.44
-0.05
2.08
3.79
4.76
4.64
3.18
0.31
-3.78
-8.66
-13.75
-18.41
-22.23
-25.13
-27.52
-30.20
-34.14
-40.09
-48.29
-58.13
-68.18
-76.41
-80.60
-79.03
-70.88
-56.64
-37.97
-17.33
2.68
19.86
32.87
41.20
45.09
45.24
42.55
38.09
32.92
28.15
24.66
23.01
23.22
24.84
27.12
29.25
30.73
31.44
31.57
31.42
31.07
30.33
28.79
26.07
22.01
16.82
10.97
5.10
-0.26
-4.82
-8.60
-12.04
-15.82
-20.66
-27.02
-34.70
-42.66
-49.05
-51.74
-48.95
-39.98
-25.54
-7.66
10.98
27.80
40.96
49.67
54.01
54.60
52.19
47.62
41.74
35.53
30.05
26.21
24.54
24.99
27.01
29.71
32.16
33.68
33.86
32.55
29.75
25.57
20.22
14.04
7.45
0.90
-5.28
-10.91
-16.08
-21.10
-26.49
-32.78
-40.35
-49.06
-57.99
-65.36
-68.89
-66.48
-57.03
-41.11
-20.85
0.57
20.06
35.39
45.69
51.19
52.69
51.04
46.96
41.16
34.55
28.33
23.73
21.54
21.83
23.90
26.65
29.03
30.44
30.81
30.32
29.16
27.26
24.36
20.16
14.64
8.16
1.39
-5.04
-10.74
-15.76
-20.59
-25.88
-32.26
-40.07
-49.25
-59.15
-68.55
-75.61
-78.32
-74.96
-64.80
-48.48
-27.98
-6.10
14.37
31.38
43.96
52.09
56.29
57.23
55.57
52.07
47.67
43.43
40.34
38.89
39.01
40.06
41.25
41.93
41.81
40.94
39.45
37.39
34.58
30.77
25.79
19.60
12.48
4.87
-2.60
-9.37
-15.04
-19.55
-23.30
-27.05
-31.77
-38.23
-46.48
-55.59
-63.62
-68.01
-66.40
-57.44
-41.31
-19.76
4.43
28.29
49.52
66.80
79.87
89.09
95.08
98.43
99.65
99.15
97.21
93.90
89.11
82.73
74.83
65.84
56.41
47.22
38.63
30.58
22.68
14.43
5.55
-4.01
-14.05
-24.21
-34.04
-42.95
-50.29
-55.50
-58.38
-59.19
-58.75
-58.18
-58.55
-60.45
-63.70
-67.26
-69.41
-68.25
-62.40
-51.55
-36.80
-20.44
-5.28
6.28
12.95
14.75
12.79
8.53
3.31
-1.99
-6.87
-10.87
-13.52
-14.28
-12.82
-9.24
-4.20
1.27
6.13
9.65
11.62
12.28
12.02
11.18
9.80
7.72
4.77
0.92
-3.52
-7.98
-11.82
-14.57
-16.13
-16.83
-17.37
-18.54
-21.03
-25.19
-30.85
-37.21
-42.89
-46.06
-44.96
-38.29
-25.65
-7.78
13.61
36.27
57.94
76.77
91.50
101.42
106.16
105.73
100.50
91.38
79.84
67.77
56.97
48.75
43.41
40.34
38.30
35.90
32.19
26.76
19.75
11.53
2.52
-6.93
-16.43
-25.47
-33.44
-39.74
-44.06
-46.58
-47.97
-49.26
-51.49
-55.46
-61.33
-68.55
-75.68
-80.72
-81.53
-76.47
-64.98
-47.90
-27.44
-6.49
12.04
26.04
34.41
37.06
34.64
28.09
18.61
7.58
-3.37
-12.61
-18.75
-21.15
-20.03
-16.41
-11.68
-7.14
-3.56
-1.14
0.29
0.96
0.95
0.02
-2.19
-5.93
-11.11
-17.21
-23.43
-29.00
-33.52
-37.08
-40.36
-44.28
-49.80
-57.45
-67.02
-77.37
-86.47
-91.85
-91.26
-83.40
-68.45
-48.01
-24.75
-1.55
19.14
35.73
47.47
54.28
56.44
54.56
49.56
42.76
35.62
29.53
25.41
23.50
23.40
24.22
24.99
25.01
24.08
22.48
20.74
19.26
18.04
16.59
14.17
10.15
4.39
-2.55
-9.65
-15.80
-20.31
-23.21
-25.20
-27.40
-30.91
-36.50
-44.30
-53.77
-63.59
-71.83
-76.24
-74.80
-66.41
-51.29
-31.16
-8.76
12.97
31.67
46.06
55.88
61.49
63.47
62.38
58.79
53.51
47.53
42.08
38.21
36.47
36.84
38.64
40.92
42.71
43.37
42.69
40.88
38.31
35.31
31.96
28.06
23.27
17.32
10.25
2.49
-5.24
-12.18
-17.82
-22.09
-25.37
-28.33
-31.76
-36.37
-42.61
-50.42
-59.06
-66.99
-72.05
-72.00
-65.22
-51.47
-32.10
-9.70
12.69
32.50
48.16
59.18
65.74
68.29
67.33
63.39
57.38
50.55
44.33
39.97
38.15
38.75
40.98
43.72
45.91
46.85
46.33
44.51
41.78
38.49
34.77
30.52
25.49
19.53
12.71
5.43
-1.62
-7.82
-12.74
-16.44
-19.42
-22.41
-26.21
-31.39
-38.17
-46.28
-54.83
-62.44
-67.32
-67.67
-62.18
-50.56
-33.74
-13.81
6.49
24.55
38.40
47.17
50.88
50.21
46.16
39.79
32.22
24.63
18.23
14.04
12.55
13.55
16.17
19.21
21.57
22.69
22.60
21.67
20.31
18.66
16.50
13.43
9.19
3.88
-2.02
-7.88
-13.13
-17.59
-21.49
-25.42
-30.09
-36.04
-43.50
-52.09
-60.78
-67.96
-71.71
-70.25
-62.52
-48.70
-30.20
-9.44
10.85
28.27
41.32
49.42
52.77
52.00
47.97
41.68
34.31
27.17
21.49
18.16
17.47
18.95
21.69
24.51
26.48
27.08
26.31
24.47
21.94
18.93
15.31
10.78
5.09
-1.79
-9.43
-17.09
-23.95
-29.46
-33.58
-36.80
-39.96
-43.98
-49.58
-57.06
-66.08
-75.62
-83.93
-88.87
-88.36
-81.07
-66.93
-47.31
-24.74
-2.16
17.86
33.66
44.65
50.98
53.20
51.99
48.07
42.38
36.07
30.41
26.51
24.98
25.73
28.05
30.84
33.06
34.01
33.52
31.85
29.50
26.85
24.01
20.75
16.67
11.43
5.01
-2.22
-9.60
-16.42
-22.17
-26.76
-30.45
-33.88
-37.82
-43.01
-49.99
-58.71
-68.35
-77.26
-83.19
-83.81
-77.46
-63.83
-44.16
-21.03
2.47
23.47
40.10
51.66
58.45
61.28
61.05
58.52
54.35
49.27
44.12
39.86
37.22
36.52
37.50
39.38
41.17
41.99
41.37
39.36
36.42
33.11
29.81
26.55
22.99
18.68
13.26
6.66
-0.80
-8.54
-15.97
-22.65
-28.46
-33.52
-38.23
-43.12
-48.76
-55.65
-63.90
-73.01
-81.61
-87.70
-89.09
-84.10
-72.24
-54.42
-32.81
-10.11
11.08
28.87
42.22
50.80
54.82
54.77
51.50
46.07
39.76
33.91
29.61
27.49
27.57
29.33
31.87
34.22
35.64
35.77
34.69
32.75
30.32
27.55
24.26
20.10
14.72
8.07
0.51
-7.28
-14.49
-20.54
-25.27
-28.99
-32.36
-36.16
-41.04
-47.37
-55.04
-63.43
-71.34
-77.20
-79.36
-76.47
-67.91
-54.08
-36.30
-16.61
2.77
19.83
33.11
41.86
45.94
45.75
42.16
36.31
29.59
23.36
18.71
16.29
16.12
17.68
20.08
22.49
24.24
25.07
24.94
23.88
21.81
18.56
13.97
8.16
1.56
-5.16
-11.35
-16.60
-20.96
-24.87
-28.97
-33.85
-39.89
-47.08
-54.98
-62.65
-68.70
-71.54
-69.67
-62.24
-49.33
-32.19
-12.92
5.98
22.28
34.44
41.77
44.41
43.12
38.95
33.14
26.90
21.32
17.24
15.04
14.65
15.58
17.12
18.62
19.60
19.87
19.39
18.18
16.15
13.18
9.18
4.21
-1.42
-7.22
-12.67
-17.37
-21.23
-24.48
-27.65
-31.44
-36.50
-43.13
-51.04
-59.17
-65.81
-69.00
-67.10
-59.32
-46.09
-28.97
-10.19
7.96
23.68
35.85
44.03
48.26
48.88
46.49
42.00
36.57
31.49
27.85
26.28
26.76
28.70
31.14
33.18
34.23
34.12
33.02
31.25
28.98
26.10
22.29
17.21
10.78
3.38
-4.27
-11.32
-17.19
-21.82
-25.63
-29.38
-33.93
-39.94
-47.68
-56.86
-66.51
-74.99
-80.23
-80.26
-73.84
-60.97
-42.96
-22.17
-1.30
17.32
32.15
42.55
48.63
50.90
50.09
47.00
42.59
37.93
34.02
31.63
31.05
32.00
33.68
35.19
35.82
35.31
33.87
31.88
29.63
27.05
23.75
19.33
13.62
6.92
-0.03
-6.38
-11.49
-15.28
-18.27
-21.39
-25.63
-31.71
-39.73
-49.16
-58.72
-66.64
-70.94
-69.94
-62.76
-49.59
-31.82
-11.71
8.16
25.52
38.82
47.43
51.49
51.69
49.01
44.55
39.46
34.88
31.78
30.79
32.02
35.03
38.96
42.80
45.74
47.32
47.49
46.44
44.39
41.49
37.81
33.48
28.77
24.08
19.89
16.54
14.08
12.18
10.21
7.40
3.23
-2.30
-8.34
-13.28
-15.06
-11.78
-2.44
12.64
31.76
52.33
71.64
87.61
99.21
106.40
109.78
110.08
107.99
104.08
99.02
93.74
89.38
87.05
87.49
90.92
96.86
104.16
111.02
115.01
113.31
103.18
82.68
51.57
11.69
-33.15
-78.16
-118.73
-151.64
-175.66
-191.31
-200.34
-204.80
-206.57
-207.11
-207.45
-208.13
-208.99
-208.80
-205.17
-194.96
-175.32
-144.85
-104.48
-57.52
-8.80
36.57
74.48
102.51
119.87
127.02
125.06
115.45
99.97
80.82
60.52
41.59
26.01
14.74
7.59
3.46
0.90
-1.25
-3.52
-5.82
-7.93
-9.99
-12.78
-17.59
-25.57
-37.13
-51.56
-67.06
-81.28
-92.10
-98.25
-99.70
-97.54
-93.57
-89.72
-87.52
-87.60
-89.59
-92.03
-92.72
-89.26
-79.79
-63.59
-41.44
-15.41
11.72
37.32
59.54
77.55
91.36
101.26
107.37
109.54
107.51
101.39
91.81
79.98
67.36
55.16
44.04
33.93
24.26
14.26
3.46
-8.16
-20.12
-31.73
-42.45
-52.17
-61.21
-70.07
-79.01
-87.71
-95.26
-100.45
-102.39
-100.92
-96.73
-91.09
-85.49
-81.13
-78.80
-78.81
-81.02
-84.70
-88.42
-90.05
-87.14
-77.72
-61.06
-38.12
-11.44
15.67
40.09
59.73
73.72
82.15
85.65
85.02
81.21
75.45
69.31
64.49
62.34
63.38
67.07
72.04
76.61
79.42
79.85
78.10
74.84
70.82
66.46
61.78
56.53
50.45
43.53
36.11
28.71
21.90
16.01
11.09
6.85
2.84
-1.49
-6.68
-13.14
-21.03
-30.02
-39.07
-46.46
-50.06
-47.95
-39.13
-23.95
-4.11
17.75
38.85
56.88
70.39
78.82
82.31
81.57
77.74
72.35
67.05
63.36
62.30
64.13
68.33
73.85
79.51
84.40
88.04
90.48
92.01
92.82
92.74
91.11
86.95
79.36
67.96
53.16
36.11
18.36
1.33
-14.18
-28.27
-41.76
-55.85
-71.41
-88.36
-105.38
-120.08
-129.68
-131.98
-126.24
-113.52
-96.35
-77.90
-61.00
-47.48
-38.01
-32.42
-30.17
-30.64
-33.16
-36.77
-40.20
-41.94
-40.66
-35.67
-27.25
-16.57
-5.36
4.78
12.85
18.74
23.04
26.59
29.87
32.72
34.30
33.57
29.92
23.51
15.37
7.04
-0.13
-5.51
-9.35
-12.65
-16.67
-22.46
-30.53
-40.62
-51.57
-61.35
-67.34
-66.90
-58.24
-41.22
-17.62
9.22
35.49
58.07
75.35
87.32
94.89
99.12
100.59
99.49
95.99
90.78
85.22
81.02
79.67
81.88
87.16
93.90
99.66
101.62
97.42
85.67
66.54
41.76
14.20
-13.04
-37.44
-57.67
-73.56
-85.51
-94.00
-99.16
-101.03
-99.95
-97.00
-93.98
-92.90
-95.30
-101.67
-111.34
-122.70
-133.63
-141.93
-145.52
-142.71
-132.42
-114.54
-90.16
-61.64
-32.18
-5.08
16.90
32.11
40.06
41.27
36.81
28.09
16.67
4.30
-7.10
-15.66
-19.83
-18.93
-13.30
-4.35
5.80
15.02
21.69
25.10
25.35
23.11
19.13
13.85
7.37
-0.48
-9.72
-20.03
-30.58
-40.29
-48.12
-53.46
-56.34
-57.37
-57.55
-57.91
-59.41
-62.71
-68.07
-75.18
-82.84
-89.02
-91.12
-86.73
-74.51
-54.82
-29.76
-2.55
23.45
45.68
62.73
74.34
80.90
83.09
81.71
77.76
72.46
67.32
63.69
62.48
63.80
66.98
70.81
74.07
75.92
76.09
74.91
72.94
70.67
68.19
65.24
61.42
56.50
50.68
44.56
38.99
34.65
31.83
30.26
29.19
27.57
24.36
18.83
10.79
0.89
-9.33
-17.72
-22.04
-20.64
-13.08
-0.36
15.37
31.35
44.99
54.38
58.54
57.41
51.65
42.40
31.14
19.53
9.06
0.87
-4.53
-7.36
-8.36
-8.55
-8.91
-10.07
-12.29
-15.50
-19.51
-24.12
-29.23
-34.75
-40.55
-46.44
-52.13
-57.31
-61.83
-65.70
-69.16
-72.69
-76.92
-82.44
-89.54
-97.98
-106.72
-113.92
-117.28
-114.66
-104.85
-88.07
-66.00
-41.46
-17.46
3.46
19.70
30.70
36.68
38.34
36.68
32.89
28.29
24.17
21.59
21.09
22.62
25.56
28.99
32.01
33.95
34.47
33.56
31.35
28.02
23.75
18.68
12.96
6.76
0.39
-5.87
-11.74
-17.07
-22.05
-27.16
-33.13
-40.59
-49.56
-59.08
-67.15
-71.24
-69.12
-59.73
-43.69
-23.10
-0.93
19.89
37.20
49.85
57.56
60.62
59.60
55.28
48.59
40.69
32.83
26.18
21.60
19.48
19.65
21.48
24.07
26.49
27.95
28.05
26.70
24.13
20.74
16.94
13.03
9.06
4.95
0.49
-4.59
-10.56
-17.70
-26.15
-35.81
-45.99
-55.27
-61.62
-62.84
-57.28
-44.55
-25.88
-3.89
18.11
37.11
51.03
59.14
61.71
59.69
54.21
46.40
37.38
28.24
20.10
13.99
10.53
9.79
11.22
13.74
16.11
17.27
16.57
13.94
9.77
4.67
-0.78
-6.23
-11.61
-17.00
-22.61
-28.64
-35.35
-42.98
-51.68
-61.05
-69.96
-76.47
-78.24
-73.31
-60.97
-42.19
-19.51
3.72
24.39
40.31
50.61
55.50
55.79
52.44
46.37
38.50
29.93
21.88
15.61
12.02
11.40
13.24
16.42
19.54
21.35
21.13
18.76
14.61
9.31
3.50
-2.34
-7.95
-13.29
-18.49
-23.76
-29.41
-35.80
-43.22
-51.73
-60.79
-69.06
-74.46
-74.63
-67.82
-53.65
-33.61
-10.70
11.46
29.86
42.90
50.49
53.54
53.19
50.29
45.39
39.04
32.14
25.90
21.51
19.68
20.29
22.53
25.21
27.21
27.83
26.76
23.98
19.66
14.04
7.47
0.40
-6.61
-13.05
-18.65
-23.48
-28.01
-32.95
-39.07
-46.82
-55.94
-65.31
-72.89
-76.21
-73.13
-62.55
-45.09
-22.90
0.83
22.89
40.86
53.51
60.79
63.33
62.07
57.98
52.05
45.31
38.88
33.76
30.66
29.78
30.76
32.81
34.89
36.11
35.81
33.73
30.00
24.99
19.18
13.02
6.88
0.98
-4.55
-9.71
-14.64
-19.68
-25.34
-32.16
-40.35
-49.44
-58.07
-64.12
-65.39
-60.28
-48.57
-31.58
-11.84
7.71
24.55
37.12
44.92
48.17
47.53
43.78
37.71
30.32
22.69
15.95
11.06
8.65
8.73
10.78
13.79
16.54
17.90
17.11
14.00
8.96
2.73
-3.85
-10.19
-16.06
-21.60
-27.08
-32.78
-38.88
-45.52
-52.80
-60.71
-68.88
-76.40
-81.75
-83.12
-78.99
-68.81
-53.38
-34.74
-15.66
1.15
13.64
20.77
22.43
19.30
12.56
3.78
-5.31
-13.08
-18.32
-20.61
-20.36
-18.70
-17.11
-16.89
-18.66
-21.93
-25.11
-25.84
-21.84
-11.83
3.79
22.95
42.54
59.54
72.03
79.53
82.68
82.49
79.57
74.03
65.88
55.74
45.20
36.64
32.45
34.12
41.59
53.32
66.82
79.54
89.65
96.33
99.69
100.22
98.38
94.25
87.70
78.63
67.38
54.82
42.18
30.74
21.33
14.22
8.98
4.94
1.38
-2.18
-6.02
-10.27
-15.15
-20.90
-27.67
-35.30
-43.32
-50.99
-57.64
-62.87
-66.78
-69.96
-73.30
-77.74
-83.86
-91.63
-100.07
-107.34
-111.04
-108.96
-99.76
-83.65
-62.42
-38.96
-16.38
2.89
17.53
27.37
32.98
35.22
34.96
33.04
30.34
27.84
26.42
26.67
28.64
31.86
35.46
38.54
40.44
40.88
39.85
37.56
34.18
29.79
24.43
18.18
11.28
4.13
-2.73
-8.90
-14.13
-18.48
-22.40
-26.54
-31.59
-38.04
-45.79
-54.00
-60.98
-64.59
-62.79
-54.46
-39.89
-20.85
-0.13
19.31
35.06
45.86
51.47
52.43
49.71
44.38
37.64
30.71
24.79
20.79
19.11
19.54
21.41
23.77
25.75
26.68
26.16
24.04
20.29
15.10
8.83
1.99
-4.85
-11.18
-16.74
-21.49
-25.64
-29.53
-33.54
-38.17
-43.88
-50.93
-59.07
-67.34
-73.87
-76.40
-72.87
-62.30
-45.35
-24.23
-2.05
18.08
33.98
44.68
50.24
51.37
49.01
44.12
37.83
31.39
26.10
22.96
22.41
24.08
27.01
30.01
32.08
32.73
32.00
30.18
27.61
24.33
20.18
14.86
8.27
0.67
-7.34
-14.96
-21.51
-26.67
-30.56
-33.73
-36.99
-41.24
-47.20
-55.17
-64.72
-74.45
-82.14
-85.19
-81.50
-70.24
-52.34
-30.21
-7.09
14.02
31.09
43.28
50.78
54.29
54.61
52.53
48.82
44.36
40.16
37.10
35.72
36.03
37.49
39.25
40.43
40.42
39.08
36.65
33.63
30.42
27.17
23.67
19.50
14.29
8.00
1.00
-5.98
-12.23
-17.23
-20.97
-23.82
-26.45
-29.58
-33.92
-40.03
-48.17
-58.00
-68.29
-76.91
-81.16
-78.70
-68.46
-51.23
-29.49
-6.63
14.22
31.02
43.07
50.62
54.27
54.61
52.12
47.45
41.65
36.09
32.09
30.44
31.10
33.28
35.83
37.70
38.26
37.47
35.63
33.18
30.47
27.66
24.68
21.36
17.44
12.78
7.38
1.50
-4.39
-9.69
-13.95
-17.00
-19.20
-21.24
-24.08
-28.61
-35.36
-44.33
-54.64
-64.63
-72.00
-74.39
-70.12
-58.84
-41.77
-21.45
-0.91
17.19
31.18
40.52
45.46
46.59
44.57
40.09
34.00
27.48
21.90
18.40
17.60
19.32
22.72
26.55
29.63
31.16
30.85
28.86
25.65
21.70
17.36
12.79
7.94
2.63
-3.26
-9.64
-16.16
-22.33
-27.61
-31.76
-34.88
-37.45
-40.15
-43.68
-48.63
-55.36
-63.79
-73.25
-82.30
-88.86
-90.67
-85.91
-73.98
-55.87
-33.97
-11.37
9.05
25.31
36.61
43.12
45.47
44.46
40.90
35.70
29.98
25.00
21.84
21.15
22.82
26.11
29.84
32.86
34.38
34.10
32.26
29.37
25.98
22.47
18.90
15.08
10.66
5.41
-0.62
-7.06
-13.33
-18.85
-23.29
-26.72
-29.54
-32.29
-35.59
-39.92
-45.67
-52.97
-61.51
-70.32
-77.62
-81.10
-78.63
-69.02
-52.67
-31.58
-8.83
12.51
30.18
43.18
51.59
56.02
57.15
55.51
51.68
46.46
41.02
36.67
34.49
34.86
37.37
40.91
44.11
45.86
45.59
43.45
40.07
36.23
32.51
29.03
25.44
21.20
15.88
9.49
2.55
-4.12
-9.70
-13.81
-16.59
-18.69
-20.96
-24.15
-28.74
-34.87
-42.26
-50.16
-57.27
-61.85
-62.05
-56.51
-44.93
-28.26
-8.57
11.51
29.55
43.80
53.43
58.41
59.29
56.97
52.57
47.39
42.71
39.62
38.76
40.18
43.41
47.74
52.43
57.04
61.39
65.42
68.95
71.51
72.50
71.49
68.62
64.79
61.45
60.15
61.75
66.01
71.61
76.53
78.95
77.92
73.90
68.76
65.45
67.29
76.86
94.82
119.13
145.06
166.32
177.17
174.37
158.18
131.91
100.18
66.94
34.07
1.22
-33.42
-71.90
-115.11
-162.05
-209.36
-251.92
-284.00
-301.03
-301.13
-285.87
-259.77
-228.62
-197.80
-171.01
-150.10
-135.70
-127.72
-125.59
-127.97
-132.65
-136.78
-137.85
-134.68
-128.02
-120.24
-114.41
-112.80
-115.78
-121.31
-125.47
-123.82
-113.02
-92.15
-63.06
-29.67
3.39
32.29
54.94
71.01
81.35
87.14
89.37
88.73
85.86
81.64
77.16
73.53
71.47
71.08
71.88
73.07
73.91
73.97
73.22
71.80
69.67
66.44
61.33
53.59
42.90
29.71
15.21
0.92
-11.84
-22.45
-31.18
-38.94
-46.95
-56.19
-67.05
-79.04
-90.67
-99.68
-103.47
-99.83
-87.71
-67.71
-42.14
-14.32
12.26
34.90
52.11
63.62
69.97
72.03
70.72
66.92
61.60
55.86
50.76
47.14
45.32
45.04
45.54
45.93
45.51
44.04
41.62
38.56
35.01
30.85
25.72
19.27
11.46
2.69
-6.28
-14.55
-21.48
-26.94
-31.36
-35.63
-40.81
-47.79
-56.84
-67.31
-77.54
-85.07
-87.29
-82.28
-69.52
-50.19
-26.88
-2.85
18.85
36.10
47.89
54.26
55.90
53.91
49.51
44.02
38.69
34.54
32.20
31.77
32.92
34.99
37.26
39.13
40.22
40.33
39.38
37.32
34.07
29.58
23.89
17.22
10.05
3.01
-3.32
-8.58
-12.88
-16.69
-20.82
-26.12
-33.10
-41.64
-50.70
-58.49
-62.77
-61.47
-53.44
-38.88
-19.41
2.34
23.47
41.62
55.29
63.99
67.92
67.62
63.81
57.34
49.27
40.75
32.93
26.66
22.32
19.76
18.46
17.77
17.09
16.02
14.35
11.94
8.64
4.26
-1.43
-8.47
-16.60
-25.29
-33.75
-41.29
-47.48
-52.35
-56.44
-60.58
-65.74
-72.62
-81.27
-90.77
-99.24
-104.08
-102.78
-93.82
-77.25
-54.89
-29.73
-5.03
16.56
33.52
45.42
52.49
55.26
54.36
50.58
45.02
39.08
34.22
31.55
31.53
33.69
36.95
39.94
41.59
41.40
39.59
36.77
33.55
30.15
26.34
21.61
15.55
8.21
0.17
-7.66
-14.48
-19.95
-24.29
-28.24
-32.71
-38.56
-46.37
-56.20
-67.47
-78.70
-87.73
-92.03
-89.48
-79.13
-61.63
-39.20
-14.90
8.24
27.99
43.23
53.76
59.89
62.12
61.05
57.51
52.67
47.92
44.56
43.35
44.32
46.70
49.31
51.03
51.21
49.85
47.44
44.64
41.87
39.05
35.66
31.00
24.65
16.73
7.97
-0.49
-7.70
-13.16
-17.09
-20.29
-23.84
-28.74
-35.63
-44.63
-55.10
-65.61
-73.98
-77.82
-75.11
-65.00
-48.14
-26.64
-3.52
18.12
35.88
48.32
55.12
56.70
54.05
48.48
41.48
34.58
29.13
26.05
25.61
27.42
30.58
34.04
36.89
38.63
39.10
38.36
36.49
33.46
29.13
23.46
16.60
8.98
1.20
-6.15
-12.60
-18.00
-22.50
-26.54
-30.83
-36.17
-43.15
-51.80
-61.31
-69.95
-75.43
-75.58
-69.11
-56.13
-38.20
-17.90
2.04
19.35
32.69
41.58
46.13
46.74
43.98
38.64
31.87
25.11
19.88
17.30
17.75
20.71
24.98
29.06
31.71
32.33
31.00
28.30
24.90
21.18
17.10
12.35
6.51
-0.51
-8.41
-16.46
-23.85
-29.94
-34.56
-38.06
-41.28
-45.21
-50.80
-58.62
-68.63
-79.97
-90.93
-99.10
-102.00
-97.74
-85.67
-66.75
-43.33
-18.49
4.83
24.52
39.54
49.79
55.64
57.65
56.51
53.06
48.43
43.96
40.88
39.94
41.15
43.79
46.68
48.64
48.93
47.43
44.56
41.01
37.36
33.83
30.23
26.14
21.11
14.94
7.86
0.38
-6.84
-13.26
-18.61
-22.96
-26.76
-30.65
-35.49
-42.10
-50.98
-61.88
-73.53
-83.72
-89.72
-89.13
-80.77
-65.13
-44.32
-21.41
0.53
19.19
33.43
43.21
49.10
51.82
52.04
50.33
47.33
43.90
41.06
39.66
40.09
42.05
44.68
46.95
48.02
47.62
45.98
43.67
41.25
39.01
36.89
34.53
31.39
27.05
21.36
14.55
7.26
0.32
-5.46
-9.73
-12.69
-15.10
-18.02
-22.46
-29.02
-37.70
-47.74
-57.63
-65.34
-68.75
-66.11
-56.60
-40.63
-19.78
3.58
26.86
47.85
64.99
77.41
84.83
87.48
86.12
82.10
77.33
73.88
73.43
76.72
83.27
91.57
99.74
106.35
110.88
113.91
116.58
120.03
124.90
131.23
138.47
145.61
151.21
153.42
150.26
140.11
122.24
97.11
66.17
30.96
-7.67
-49.80
-95.72
-144.52
-192.96
-235.37
-265.20
-277.40
-270.46
-247.14
-213.41
-176.28
-141.50
-112.38
-89.80
-73.33
-62.22
-55.93
-53.98
-55.28
-57.84
-59.09
-56.61
-48.96
-36.29
-20.26
-3.39
11.97
24.43
33.93
41.48
48.50
55.99
64.01
71.66
77.41
79.77
77.88
71.85
62.71
52.13
41.86
33.16
26.51
21.42
16.70
10.79
2.26
-9.67
-24.77
-41.62
-57.76
-70.14
-75.90
-73.21
-61.91
-43.66
-21.64
0.34
18.79
31.31
36.96
36.11
30.01
20.37
8.93
-2.67
-12.92
-20.57
-24.73
-25.06
-21.94
-16.45
-10.07
-4.33
-0.34
1.44
1.19
-0.57
-3.31
-6.80
-11.17
-16.79
-23.88
-32.31
-41.47
-50.33
-57.87
-63.44
-67.16
-69.85
-72.94
-77.89
-85.76
-96.84
-110.40
-124.74
-137.38
-145.56
-146.89
-140.05
-125.26
-104.29
-80.00
-55.47
-33.20
-14.61
-0.10
10.59
17.99
22.63
25.10
26.17
26.86
28.20
31.09
35.87
42.28
49.52
56.46
62.03
65.54
66.77
65.96
63.59
60.08
55.64
50.20
43.57
35.70
26.93
17.92
9.56
2.60
-2.64
-6.44
-9.55
-13.06
-17.99
-24.95
-33.82
-43.67
-52.74
-58.78
-59.67
-54.04
-41.82
-24.33
-4.02
16.29
34.12
47.83
56.72
60.81
60.58
56.76
50.34
42.61
35.04
29.03
25.52
24.83
26.49
29.57
32.98
35.81
37.52
37.85
36.77
34.25
30.26
24.81
18.11
10.51
2.54
-5.27
-12.52
-19.06
-25.09
-31.00
-37.38
-44.75
-53.34
-62.71
-71.58
-77.89
-79.28
-73.90
-61.18
-42.24
-19.69
3.13
23.20
38.54
48.47
53.29
53.78
50.73
44.91
37.18
28.71
20.89
15.04
11.91
11.51
13.05
15.28
17.10
17.84
17.40
16.01
13.88
10.98
6.99
1.56
-5.36
-13.37
-21.61
-29.09
-35.06
-39.34
-42.36
-45.15
-48.93
-54.76
-63.08
-73.33
-83.90
-92.31
-95.83
-92.37
-81.22
-63.32
-41.00
-17.29
4.97
23.78
38.15
47.96
53.58
55.56
54.61
51.62
47.73
44.16
41.98
41.78
43.43
46.26
49.18
51.25
51.89
51.04
49.10
46.44
43.32
39.62
35.03
29.29
22.44
14.86
7.22
0.22
-5.70
-10.53
-14.73
-19.07
-24.47
-31.62
-40.69
-51.02
-61.02
-68.35
-70.55
-65.82
-53.78
-35.77
-14.51
6.78
25.28
39.31
48.48
53.24
54.45
52.96
49.48
44.81
39.83
35.54
32.78
31.99
33.10
35.55
38.52
41.17
42.92
43.43
42.62
40.59
37.46
33.31
28.21
22.24
15.57
8.60
1.75
-4.60
-10.29
-15.55
-20.92
-27.14
-34.81
-44.02
-53.97
-62.96
-68.67
-68.84
-62.10
-48.53
-29.82
-8.80
11.36
28.04
39.71
45.98
47.38
44.89
39.70
33.03
26.11
20.08
15.89
14.02
14.50
16.82
20.16
23.60
26.41
28.08
28.37
27.16
24.39
20.05
14.19
7.06
-0.88
-9.00
-16.67
-23.48
-29.41
-34.87
-40.57
-47.26
-55.43
-64.90
-74.66
-82.90
-87.41
-86.18
-78.11
-63.50
-44.02
-22.31
-1.16
17.09
31.06
40.26
44.81
45.22
42.23
36.82
30.31
24.19
19.85
18.16
19.25
22.38
26.29
29.65
31.56
31.71
30.46
28.35
25.77
22.70
18.70
13.27
6.22
-2.11
-10.92
-19.23
-26.31
-31.93
-36.46
-40.65
-45.42
-51.58
-59.60
-69.42
-80.18
-90.15
-96.99
-98.29
-92.35
-78.96
-59.52
-36.74
-13.79
6.66
23.02
34.86
42.62
47.02
48.69
48.12
45.85
42.65
39.53
37.47
37.19
38.78
41.70
44.98
47.64
49.03
49.00
47.92
46.32
44.57
42.62
40.00
36.03
30.26
22.69
13.92
4.95
-3.18
-9.76
-14.65
-18.30
-21.61
-25.63
-31.29
-39.13
-49.00
-59.93
-70.15
-77.38
-79.46
-75.01
-63.92
-47.47
-27.97
-8.07
9.92
24.53
35.22
42.17
45.92
47.02
45.99
43.36
39.85
36.38
33.94
33.39
35.03
38.49
42.80
46.75
49.29
49.93
48.81
46.53
43.77
40.89
37.85
34.20
29.44
23.32
16.09
8.40
1.10
-5.06
-9.71
-13.01
-15.52
-18.07
-21.57
-26.73
-33.89
-42.74
-52.21
-60.44
-65.22
-64.47
-57.02
-42.98
-23.78
-1.74
20.61
41.13
58.36
71.53
80.29
84.64
84.94
82.10
77.60
73.33
71.12
72.18
76.75
84.10
92.84
101.47
108.82
114.37
118.26
121.15
124.00
127.90
133.58
141.04
149.04
155.15
156.17
149.16
132.42
105.97
71.33
30.82
-13.26
-59.00
-104.70
-148.39
-187.49
-218.93
-239.81
-248.17
-243.61
-227.47
-202.59
-172.66
-141.66
-113.13
-89.64
-72.59
-62.21
-57.81
-58.16
-61.69
-66.73
-71.51
-74.36
-73.95
-69.62
-61.51
-50.61
-38.42
-26.59
-16.46
-8.75
-3.56
-0.43
1.34
2.40
3.15
3.61
3.56
2.64
0.67
-2.31
-5.92
-9.71
-13.24
-16.31
-19.02
-21.64
-24.62
-28.53
-34.01
-41.61
-51.51
-63.07
-74.55
-83.28
-86.30
-81.40
-67.95
-47.32
-22.45
3.09
26.14
44.71
58.08
66.51
70.72
71.50
69.55
65.64
60.66
55.68
51.75
49.63
49.57
51.16
53.53
55.59
56.51
55.86
53.74
50.61
46.99
43.26
39.41
35.20
30.25
24.36
17.53
10.14
2.72
-4.20
-10.29
-15.50
-20.10
-24.53
-29.33
-35.07
-42.32
-51.44
-62.28
-73.90
-84.41
-91.33
-92.22
-85.58
-71.45
-51.52
-28.56
-5.61
14.90
31.49
43.62
51.23
54.54
53.92
50.06
44.15
37.75
32.56
29.83
30.06
32.80
36.88
40.83
43.44
44.11
42.98
40.71
38.09
35.64
33.35
30.69
26.97
21.72
15.04
7.62
0.46
-5.57
-10.12
-13.46
-16.31
-19.62
-24.23
-30.63
-38.84
-48.14
-57.12
-63.73
-65.82
-61.76
-51.13
-34.93
-15.38
4.79
23.14
37.98
48.52
54.63
56.52
54.65
49.67
42.62
34.81
27.71
22.56
20.12
20.45
22.94
26.56
30.15
32.75
33.83
33.29
31.30
28.05
23.53
17.56
9.94
0.73
-9.60
-20.16
-29.94
-38.14
-44.41
-49.04
-52.76
-56.56
-61.41
-68.04
-76.61
-86.56
-96.37
-103.78
-106.26
-101.74
-89.36
-69.93
-45.79
-20.07
4.11
24.50
39.98
50.39
56.17
57.96
56.41
52.32
46.73
40.99
36.52
34.47
35.30
38.61
43.15
47.26
49.45
48.85
45.47
40.08
33.74
27.34
21.21
15.20
8.86
1.92
-5.49
-12.84
-19.48
-24.90
-28.98
-31.96
-34.35
-36.77
-39.89
-44.40
-50.85
-59.38
-69.32
-79.04
-86.04
-87.68
-82.03
-68.69
-49.07
-25.96
-2.61
18.15
34.67
46.46
53.79
57.30
57.59
55.27
51.07
46.05
41.44
38.36
37.49
38.80
41.61
44.84
47.38
48.50
47.97
46.08
43.34
40.24
36.95
33.24
28.66
22.75
15.40
6.97
-1.81
-10.09
-17.24
-23.08
-27.97
-32.60
-37.87
-44.54
-53.09
-63.46
-74.80
-85.45
-93.12
-95.41
-90.53
-77.96
-58.82
-35.57
-11.37
10.81
28.88
41.82
49.57
52.60
51.60
47.44
41.19
34.25
28.18
24.32
23.44
25.35
29.07
33.17
36.39
37.99
37.91
36.54
34.34
31.58
28.14
23.72
18.01
11.01
3.05
-5.17
-12.82
-19.25
-24.22
-28.07
-31.55
-35.71
-41.38
-48.86
-57.62
-66.20
-72.49
-74.26
-69.84
-58.78
-42.06
-21.90
-1.11
17.71
32.75
43.12
48.77
50.01
47.43
41.76
34.11
25.99
19.06
14.73
13.69
15.72
19.70
24.18
27.83
29.88
30.22
29.12
26.94
23.82
19.65
14.19
7.35
-0.64
-9.20
-17.60
-25.18
-31.58
-36.89
-41.53
-46.25
-51.91
-59.20
-68.30
-78.52
-88.15
-94.68
-95.50
-88.74
-74.05
-52.86
-28.00
-2.85
19.59
37.37
49.76
56.90
59.44
58.21
54.16
48.39
42.25
37.11
34.09
33.64
35.38
38.26
40.96
42.43
42.21
40.54
37.97
35.07
31.95
28.31
23.62
17.39
9.59
0.69
-8.46
-16.96
-24.16
-29.93
-34.65
-39.13
-44.38
-51.36
-60.64
-72.01
-84.24
-95.06
-101.59
-101.22
-92.44
-75.55
-52.57
-26.70
-1.31
20.83
38.07
49.75
55.97
57.29
54.56
48.99
42.08
35.48
30.65
28.52
29.32
32.50
36.99
41.52
44.97
46.73
46.75
45.42
43.26
40.67
37.61
33.75
28.68
22.19
14.57
6.50
-1.16
-7.68
-12.79
-16.74
-20.19
-24.11
-29.47
-36.97
-46.64
-57.48
-67.45
-73.83
-74.03
-66.47
-51.31
-30.41
-6.79
16.48
37.10
53.94
66.85
76.03
81.63
83.68
82.41
78.71
74.21
70.99
70.93
74.95
82.64
92.37
101.99
109.64
114.44
116.65
117.37
117.87
119.09
121.46
125.05
129.75
135.34
141.15
145.71
146.81
141.94
129.14
107.80
78.64
43.18
2.83
-41.62
-89.40
-138.64
-185.54
-224.50
-249.74
-257.65
-248.47
-226.41
-198.09
-169.93
-146.08
-127.73
-113.81
-102.62
-93.11
-85.19
-79.10
-74.61
-70.58
-65.29
-57.43
-46.76
-34.43
-22.55
-13.18
-7.55
-5.69
-6.57
-8.75
-11.13
-13.29
-15.57
-18.70
-23.23
-29.18
-35.98
-42.63
-48.21
-52.31
-55.17
-57.71
-61.23
-66.96
-75.60
-86.92
-99.50
-110.78
-117.64
-117.31
-108.37
-91.34
-68.56
-43.40
-19.07
2.23
19.60
33.06
42.91
49.35
52.45
52.56
50.60
48.01
46.35
46.70
49.27
53.41
57.96
61.77
64.14
64.92
64.41
63.07
61.21
58.84
55.66
51.20
45.13
37.47
28.72
19.74
11.50
4.75
-0.39
-4.36
-8.15
-12.96
-19.84
-29.36
-41.29
-54.40
-66.62
-75.34
-78.11
-73.42
-61.19
-42.96
-21.43
0.30
19.63
34.98
45.83
52.44
55.39
55.36
52.98
49.04
44.55
40.66
38.39
38.24
40.09
43.14
46.23
48.30
48.70
47.38
44.77
41.50
38.01
34.34
30.13
24.88
18.31
10.62
2.51
-5.07
-11.36
-16.08
-19.54
-22.47
-25.75
-30.15
-36.24
-44.19
-53.65
-63.53
-72.03
-76.89
-76.05
-68.35
-54.05
-34.84
-13.33
7.73
26.15
40.55
50.35
55.52
56.39
53.61
48.25
41.73
35.63
31.28
29.41
29.96
32.19
35.02
37.44
38.85
39.10
38.32
36.72
34.25
30.67
25.69
19.21
11.55
3.45
-4.17
-10.58
-15.58
-19.56
-23.37
-28.01
-34.30
-42.56
-52.44
-62.93
-72.36
-78.68
-79.92
-74.75
-62.98
-45.76
-25.34
-4.44
14.46
29.65
40.34
46.50
48.48
46.87
42.42
36.19
29.50
23.84
20.40
19.78
21.74
25.29
29.14
32.13
33.63
33.59
32.38
30.46
28.08
25.13
21.28
16.12
9.48
1.61
-6.91
-15.27
-22.71
-28.78
-33.45
-37.16
-40.70
-45.05
-51.10
-59.33
-69.44
-80.08
-89.05
-93.72
-91.88
-82.48
-66.13
-44.86
-21.53
1.04
20.75
36.49
47.97
55.39
59.17
59.85
58.21
55.33
52.47
50.76
50.94
53.09
56.69
60.80
64.42
66.86
67.91
67.85
67.20
66.38
65.56
64.43
62.44
59.07
54.19
48.19
41.89
36.16
31.54
27.99
24.90
21.38
16.44
9.26
-0.73
-13.65
-28.87
-44.84
-59.18
-69.11
-72.34
-67.80
-56.15
-39.50
-20.75
-2.70
12.48
23.55
29.97
31.71
29.18
23.19
15.07
6.53
-0.67
-5.20
-6.53
-4.98
-1.60
2.29
5.51
7.38
7.73
6.85
5.13
2.83
-0.05
-3.82
-8.84
-15.26
-22.87
-31.02
-38.78
-45.26
-50.01
-53.12
-55.31
-57.65
-61.24
-66.69
-73.75
-81.07
-86.42
-87.16
-81.16
-67.46
-46.77
-21.22
6.31
33.08
57.15
77.56
94.01
106.43
114.72
118.80
119.05
116.64
113.48
111.75
113.21
118.71
128.10
140.56
154.87
169.58
182.81
192.13
194.84
188.54
171.98
145.53
110.92
70.40
25.94
-21.07
-69.33
-116.84
-160.48
-196.52
-222.03
-236.16
-240.77
-239.72
-237.20
-235.84
-235.66
-234.40
-228.87
-216.60
-196.99
-171.47
-142.85
-114.26
-88.26
-66.53
-49.84
-38.41
-32.16
-30.76
-33.58
-39.50
-46.91
-53.83
-58.29
-58.74
-54.46
-45.78
-33.97
-20.83
-8.14
2.84
11.62
18.41
23.75
28.09
31.55
33.79
34.30
32.69
28.96
23.71
17.85
12.37
7.93
4.62
2.01
-0.63
-4.15
-9.28
-16.64
-26.49
-38.55
-51.58
-63.33
-70.84
-71.25
-62.87
-45.94
-22.79
2.91
27.31
47.53
62.28
71.71
76.77
78.53
77.77
74.98
70.77
65.98
61.70
58.95
58.24
59.34
61.36
63.09
63.53
62.23
59.37
55.56
51.52
47.68
44.01
40.07
35.26
29.13
21.65
13.29
4.81
-2.91
-9.29
-14.22
-18.05
-21.50
-25.46
-30.75
-38.00
-47.43
-58.61
-70.25
-80.30
-86.25
-85.88
-78.06
-63.17
-43.10
-20.65
1.34
20.67
36.06
47.06
53.69
56.17
54.97
50.89
45.14
39.25
34.71
32.53
32.95
35.41
38.80
41.91
43.80
44.12
43.07
41.15
38.82
36.18
32.99
28.76
23.20
16.44
9.10
2.05
-3.93
-8.51
-11.88
-14.62
-17.56
-21.50
-27.02
-34.32
-42.98
-51.80
-58.93
-62.17
-59.65
-50.53
-35.34
-15.96
5.00
24.99
42.10
55.34
64.42
69.48
70.86
69.10
65.06
60.05
55.69
53.54
54.60
59.01
65.93
73.87
81.32
87.28
91.56
94.64
97.26
99.87
102.37
104.23
104.81
103.93
102.00
99.93
98.73
99.14
101.44
105.66
111.74
119.57
128.66
137.67
144.34
145.79
139.44
123.94
99.56
67.83
30.69
-10.27
-53.88
-98.68
-142.18
-180.62
-209.91
-227.13
-232.02
-227.19
-217.08
-206.09
-196.89
-189.91
-183.91
-177.32
-169.26
-159.88
-149.91
-139.91
-129.80
-119.01
-107.00
-93.76
-80.18
-67.70
-57.82
-51.39
-48.35
-47.70
-47.94
-47.64
-45.97
-42.92
-39.31
-36.44
-35.69
-38.14
-44.19
-53.18
-63.29
-71.65
-75.01
-70.59
-57.15
-35.43
-7.99
21.57
49.76
74.03
93.10
106.72
115.19
118.96
118.54
114.65
108.36
101.09
94.34
89.27
86.37
85.41
85.46
85.35
84.01
80.85
75.89
69.68
63.00
56.51
50.41
44.45
38.07
30.72
22.22
12.86
3.33
-5.62
-13.49
-20.19
-26.08
-31.72
-37.78
-44.89
-53.58
-64.18
-76.51
-89.56
-101.33
-109.14
-110.32
-103.13
-87.56
-65.41
-39.77
-14.07
8.83
27.17
40.31
48.32
51.68
51.06
47.30
41.49
34.94
28.90
24.38
21.83
21.17
21.83
23.02
23.98
24.19
23.46
21.84
19.53
16.69
13.39
9.64
5.46
0.94
-3.79
-8.58
-13.39
-18.24
-23.23
-28.34
-33.42
-38.24
-42.46
-45.89
-48.54
-50.71
-53.04
-56.38
-61.61
-69.17
-78.58
-88.16
-95.17
-96.61
-90.19
-75.29
-53.19
-26.68
0.88
26.51
48.17
64.80
75.99
81.66
81.96
77.44
69.27
59.19
49.23
41.22
36.31
34.75
35.98
38.89
42.29
45.16
46.86
47.07
45.71
42.90
38.92
34.09
28.78
23.27
17.66
11.95
6.08
0.07
-5.93
-11.67
-16.90
-21.45
-25.35
-28.83
-32.27
-36.21
-41.36
-48.29
-57.27
-67.75
-78.18
-86.17
-89.01
-84.60
-72.21
-52.87
-29.10
-4.24
18.50
36.80
49.52
56.52
58.42
56.18
50.93
43.96
36.59
30.07
25.39
23.09
23.23
25.42
28.94
32.99
36.75
39.48
40.62
39.81
36.97
32.32
26.35
19.73
13.15
7.13
1.89
-2.69
-7.00
-11.45
-16.29
-21.41
-26.43
-30.87
-34.39
-37.05
-39.39
-42.23
-46.54
-52.99
-61.67
-71.83
-81.70
-88.77
-90.34
-84.41
-70.37
-49.50
-24.59
0.86
23.63
41.66
54.18
61.53
64.47
63.83
60.38
54.96
48.64
42.67
38.28
36.27
36.86
39.56
43.45
47.47
50.69
52.47
52.51
50.81
47.54
42.99
37.51
31.42
25.02
18.53
12.11
5.80
-0.36
-6.35
-12.10
-17.46
-22.24
-26.33
-29.72
-32.59
-35.39
-38.74
-43.38
-49.84
-58.07
-67.07
-74.84
-78.79
-76.54
-66.81
-50.05
-28.37
-4.89
17.20
35.57
49.02
57.38
61.04
60.50
56.36
49.34
40.58
31.60
24.14
19.56
18.48
20.53
24.46
28.69
31.76
32.87
31.99
29.60
26.37
22.68
18.53
13.62
7.62
0.50
-7.33
-15.11
-22.01
-27.40
-31.19
-33.77
-36.00
-38.87
-43.29
-49.76
-58.19
-67.72
-76.75
-83.20
-84.95
-80.51
-69.42
-52.54
-31.86
-9.95
10.64
27.94
40.79
48.79
52.09
51.14
46.62
39.49
31.02
22.76
16.26
12.75
12.78
15.94
21.04
26.43
30.64
32.77
32.72
31.00
28.34
25.21
21.64
17.23
11.50
4.21
-4.37
-13.52
-22.33
-30.02
-36.25
-41.22
-45.54
-50.06
-55.56
-62.68
-71.62
-82.03
-92.81
-102.15
-107.70
-107.22
-99.26
-83.74
-62.13
-37.12
-11.82
11.04
29.66
43.29
51.99
56.20
56.54
53.81
49.01
43.45
38.61
35.72
35.46
37.63
41.31
45.18
47.98
49.01
48.27
46.33
43.91
41.56
39.26
36.51
32.54
26.72
18.95
9.82
0.39
-8.15
-14.96
-19.87
-23.41
-26.50
-30.19
-35.29
-42.22
-50.82
-60.33
-69.23
-75.50
-77.01
-72.14
-60.43
-42.89
-21.81
-0.07
19.67
35.56
46.79
53.31
55.51
54.02
49.62
43.45
36.90
31.44
28.12
27.27
28.39
30.49
32.51
33.81
34.24
34.06
33.55
32.72
31.26
28.67
24.58
18.97
12.23
5.06
-1.80
-7.86
-12.98
-17.42
-21.71
-26.51
-32.41
-39.70
-48.09
-56.60
-63.57
-67.03
-65.29
-57.58
-44.44
-27.61
-9.62
7.04
20.47
29.71
34.65
35.73
33.63
29.10
22.98
16.26
10.04
5.39
3.10
3.41
5.98
9.93
14.19
17.79
20.01
20.47
19.05
15.77
10.85
4.63
-2.37
-9.56
-16.39
-22.61
-28.27
-33.74
-39.56
-46.24
-54.07
-62.87
-71.83
-79.46
-83.83
-83.03
-75.83
-62.24
-43.58
-22.31
-1.20
17.29
31.61
41.18
46.28
47.64
46.10
42.57
37.94
33.14
29.01
26.25
25.20
25.78
27.52
29.75
31.82
33.25
33.78
33.31
31.77
28.94
24.64
18.80
11.62
3.67
-4.33
-11.70
-18.07
-23.51
-28.45
-33.62
-39.82
-47.67
-57.25
-67.91
-78.07
-85.50
-87.88
-83.59
-72.32
-55.31
-34.98
-14.11
4.83
20.29
31.66
39.02
42.80
43.65
42.28
39.53
36.40
33.81
32.44
32.51
33.78
35.64
37.36
38.37
38.43
37.63
36.19
34.29
31.94
28.90
24.87
19.67
13.39
6.44
-0.58
-7.12
-12.89
-17.93
-22.67
-27.71
-33.73
-41.20
-50.04
-59.51
-68.06
-73.70
-74.40
-68.86
-56.95
-39.92
-20.06
-0.05
17.75
31.87
41.76
47.63
50.02
49.61
47.07
43.18
38.92
35.31
33.23
33.04
34.49
36.78
38.92
40.16
40.22
39.31
37.87
36.21
34.30
31.82
28.36
23.73
18.14
12.17
6.55
1.81
-1.93
-4.99
-8.01
-11.78
-17.04
-24.28
-33.50
-44.00
-54.32
-62.38
-65.99
-63.55
-54.64
-40.27
-22.59
-4.21
12.50
25.93
35.33
40.68
42.36
41.02
37.54
32.98
28.51
25.22
23.80
24.39
26.57
29.49
32.21
33.94
34.29
33.29
31.26
28.60
25.56
22.09
17.97
12.91
6.87
0.11
-6.78
-13.15
-18.52
-22.81
-26.42
-30.08
-34.63
-40.78
-48.80
-58.30
-68.04
-76.09
-80.19
-78.47
-70.06
-55.52
-36.74
-16.43
2.68
18.52
30.07
37.23
40.54
40.77
38.71
35.14
30.89
26.87
23.96
22.80
23.62
26.11
29.53
32.91
35.34
36.23
35.43
33.16
29.95
26.35
22.79
19.38
15.96
12.20
7.76
2.55
-3.18
-8.95
-14.16
-18.42
-21.72
-24.48
-27.47
-31.60
-37.65
-45.96
-56.22
-67.33
-77.48
-84.46
-86.24
-81.52
-70.23
-53.61
-33.88
-13.64
4.87
20.15
31.55
39.17
43.49
45.16
44.90
43.45
41.56
39.97
39.21
39.53
40.90
43.01
45.38
47.52
48.99
49.49
48.85
47.07
44.27
40.69
36.61
32.27
27.82
23.30
18.68
13.92
9.03
4.10
-0.72
-5.31
-9.61
-13.62
-17.44
-21.27
-25.43
-30.43
-36.84
-45.07
-55.06
-65.93
-75.90
-82.66
-83.99
-78.50
-66.20
-48.57
-28.10
-7.59
10.61
25.01
35.17
41.34
44.25
44.71
43.54
41.53
39.47
38.01
37.65
38.58
40.57
43.14
45.67
47.65
48.80
49.10
48.60
47.32
45.16
41.97
37.77
32.81
27.58
22.67
18.44
14.89
11.67
8.27
4.32
-0.23
-5.09
-9.83
-14.15
-18.04
-21.78
-25.84
-30.77
-37.05
-44.95
-54.31
-64.34
-73.54
-79.83
-81.12
-76.01
-64.37
-47.52
-27.86
-8.15
9.20
22.74
31.98
37.21
39.05
38.29
35.73
32.25
28.79
26.27
25.38
26.38
29.00
32.49
35.97
38.69
40.24
40.64
40.13
38.98
37.19
34.61
31.05
26.53
21.34
16.05
11.23
7.13
3.66
0.37
-3.24
-7.47
-12.24
-17.18
-21.78
-25.70
-29.01
-32.16
-35.94
-41.20
-48.58
-58.11
-69.00
-79.57
-87.50
-90.45
-86.75
-76.03
-59.37
-39.05
-17.87
1.68
17.88
29.98
38.03
42.41
43.69
42.44
39.41
35.52
31.86
29.39
28.70
29.79
32.05
34.52
36.30
36.85
36.23
34.88
33.39
32.11
30.94
29.46
27.07
23.34
18.34
12.65
7.15
2.70
-0.26
-1.91
-2.99
-4.42
-6.91
-10.61
-15.19
-19.98
-24.34
-28.03
-31.26
-34.59
-38.80
-44.63
-52.61
-62.73
-74.15
-85.12
-93.12
-95.51
-90.46
-77.64
-58.52
-35.90
-13.05
7.28
23.44
34.96
42.16
45.71
46.29
44.57
41.34
37.59
34.38
32.62
32.74
34.56
37.39
40.32
42.55
43.70
43.78
43.10
41.96
40.46
38.41
35.53
31.55
26.52
20.79
14.97
9.70
5.42
2.12
-0.52
-3.10
-6.14
-9.83
-14.01
-18.24
-22.02
-25.00
-27.22
-29.04
-31.12
-34.31
-39.41
-46.89
-56.62
-67.53
-77.62
-84.33
-85.24
-78.89
-65.25
-45.85
-23.30
-0.54
19.95
36.49
48.38
55.70
59.06
59.38
57.78
55.42
53.46
52.78
53.88
56.74
60.89
65.66
70.47
75.08
79.60
84.31
89.28
94.13
98.09
100.28
100.21
98.10
94.93
92.13
91.17
93.11
98.29
106.13
115.08
122.66
125.94
122.21
109.77
88.47
59.65
25.31
-12.89
-54.29
-99.09
-147.27
-197.34
-245.50
-286.15
-313.33
-322.80
-313.56
-288.24
-252.07
-211.16
-170.80
-134.42
-103.60
-78.65
-59.38
-45.47
-36.47
-31.45
-28.92
-27.00
-23.93
-18.60
-10.92
-1.74
7.58
15.77
22.06
26.43
29.45
31.92
34.36
36.78
38.67
39.27
38.01
34.83
30.28
25.32
20.89
17.55
15.30
13.60
11.74
9.11
5.47
1.03
-3.68
-8.05
-11.65
-14.44
-16.83
-19.70
-24.05
-30.71
-39.88
-50.80
-61.61
-69.71
-72.39
-67.76
-55.46
-36.86
-14.71
7.77
27.77
43.55
54.58
61.10
63.73
63.10
59.82
54.64
48.64
43.11
39.20
37.63
38.31
40.59
43.42
45.87
47.36
47.72
47.01
45.31
42.60
38.83
34.04
28.53
22.74
17.10
11.84
6.92
2.10
-2.84
-7.94
-12.99
-17.64
-21.61
-24.77
-27.32
-29.64
-32.29
-35.81
-40.68
-47.11
-54.86
-62.98
-69.84
-73.43
-71.84
-64.02
-50.19
-31.94
-11.82
7.49
23.79
35.88
43.47
46.85
46.65
43.53
38.27
31.82
25.35
20.12
17.10
16.75
18.80
22.40
26.33
29.50
31.21
31.32
30.14
28.14
25.66
22.72
19.07
14.38
8.53
1.75
-5.39
-12.15
-17.93
-22.50
-26.01
-28.92
-31.87
-35.43
-40.12
-46.15
-53.31
-60.78
-67.10
-70.47
-69.16
-62.19
-49.69
-32.99
-14.31
4.00
19.94
32.30
40.64
45.09
45.97
43.73
38.94
32.45
25.41
19.14
14.87
13.33
14.49
17.60
21.41
24.64
26.43
26.51
25.17
22.97
20.41
17.67
14.51
10.54
5.42
-0.80
-7.64
-14.33
-20.07
-24.42
-27.43
-29.67
-32.00
-35.33
-40.34
-47.31
-55.93
-65.13
-73.18
-77.90
-77.20
-69.75
-55.56
-36.08
-13.88
8.10
27.40
42.50
52.99
59.28
62.16
62.41
60.76
57.98
54.98
52.79
52.38
54.28
58.40
64.01
70.01
75.40
79.67
82.92
85.71
88.59
91.73
94.70
96.68
96.79
94.61
90.42
85.07
79.74
75.41
72.54
71.00
70.31
69.83
68.81
66.52
62.27
55.67
46.86
36.69
26.45
17.45
10.38
5.15
0.96
-3.09
-7.59
-12.57
-17.67
-22.65
-27.53
-32.64
-38.29
-44.39
-50.36
-55.31
-58.39
-59.10
-57.53
-54.28
-50.27
-46.41
-43.36
-41.43
-40.62
-40.83
-41.98
-44.01
-46.88
-50.42
-54.35
-58.36
-62.20
-65.78
-69.27
-73.02
-77.60
-83.58
-91.33
-100.78
-110.98
-120.20
-126.10
-126.42
-119.83
-106.45
-87.95
-66.97
-46.32
-28.19
-13.79
-3.32
3.65
7.83
9.95
10.69
10.67
10.52
10.87
12.38
15.70
21.27
29.27
39.24
50.09
60.19
67.77
71.55
71.17
67.41
61.94
56.91
54.31
55.51
60.84
69.28
78.27
83.92
81.63
67.43
39.61
-0.24
-47.02
-93.43
-132.21
-158.39
-170.55
-170.66
-162.66
-150.65
-137.71
-125.53
-114.93
-106.43
-100.51
-97.38
-96.58
-96.74
-95.92
-92.33
-85.02
-74.32
-61.57
-48.55
-36.76
-26.95
-19.12
-12.84
-7.73
-3.77
-1.32
-0.89
-2.75
-6.72
-12.08
-17.79
-22.88
-26.78
-29.61
-32.14
-35.54
-40.96
-48.87
-58.58
-68.25
-75.12
-76.47
-70.48
-56.91
-37.22
-14.04
9.59
31.13
48.92
62.33
71.41
76.64
78.68
78.32
76.49
74.17
72.24
71.27
71.41
72.32
73.35
73.87
73.49
72.15
70.09
67.56
64.60
60.96
56.20
49.92
42.00
32.77
22.95
13.43
4.95
-2.15
-8.03
-13.30
-18.81
-25.44
-33.77
-43.74
-54.49
-64.34
-71.13
-72.84
-68.29
-57.53
-41.96
-23.82
-5.48
11.19
25.19
36.28
44.68
50.67
54.37
55.82
55.28
53.33
50.87
48.91
48.16
48.83
50.47
52.26
53.35
53.23
51.85
49.56
46.85
44.01
41.05
37.65
33.43
28.15
21.92
15.14
8.40
2.25
-2.99
-7.32
-11.03
-14.58
-18.49
-23.29
-29.44
-37.21
-46.50
-56.61
-66.13
-73.09
-75.38
-71.55
-61.27
-45.67
-26.97
-7.85
9.37
23.29
33.49
40.28
44.18
45.69
45.19
43.13
40.24
37.49
35.89
36.13
38.34
41.95
46.03
49.55
51.78
52.42
51.59
49.57
46.66
43.05
38.90
34.33
29.54
24.62
19.63
14.46
9.01
3.27
-2.54
-8.11
-13.22
-17.80
-22.05
-26.34
-31.13
-36.83
-43.78
-52.13
-61.52
-70.87
-78.34
-81.70
-79.05
-69.50
-53.65
-33.51
-11.84
8.63
25.91
39.00
47.79
52.74
54.55
54.05
52.11
49.65
47.60
46.72
47.48
49.94
53.70
58.08
62.33
65.80
68.09
68.98
68.42
66.34
62.73
57.69
51.55
44.80
38.01
31.58
25.59
19.76
13.61
6.68
-1.27
-10.10
-19.36
-28.42
-36.66
-43.69
-49.49
-54.43
-59.22
-64.79
-71.98
-81.15
-91.87
-102.63
-111.10
-114.67
-111.24
-100.02
-81.89
-59.21
-35.04
-12.25
7.17
22.34
33.30
40.57
44.74
46.43
46.24
44.98
43.60
42.97
43.70
45.87
49.04
52.48
55.48
57.51
58.46
58.47
57.72
56.33
54.20
51.16
47.13
42.26
36.96
31.75
27.04
22.99
19.49
16.26
13.04
9.72
6.30
2.80
-0.85
-4.80
-9.29
-14.57
-20.91
-28.64
-38.07
-49.26
-61.68
-73.92
-83.75
-88.64
-86.60
-76.94
-60.65
-40.15
-18.51
1.41
17.66
29.42
36.77
40.29
40.74
38.89
35.52
31.49
27.77
25.23
24.50
25.74
28.64
32.46
36.34
39.46
41.32
41.76
40.84
38.78
35.77
32.00
27.58
22.63
17.24
11.56
5.70
-0.26
-6.23
-12.12
-17.81
-23.18
-28.05
-32.36
-36.19
-39.88
-44.02
-49.35
-56.40
-65.05
-74.22
-81.91
-85.63
-83.28
-73.93
-58.25
-38.35
-17.14
2.58
18.82
30.65
38.05
41.52
41.65
39.11
34.63
29.16
23.85
19.88
18.12
18.82
21.57
25.40
29.16
31.93
33.25
33.18
32.11
30.48
28.52
26.12
22.89
18.42
12.54
5.55
-1.82
-8.66
-14.26
-18.36
-21.19
-23.44
-25.91
-29.33
-34.26
-40.86
-48.80
-57.03
-63.86
-67.24
-65.38
-57.34
-43.56
-25.73
-6.33
12.06
27.50
38.88
45.89
48.74
47.86
43.87
37.56
30.06
22.70
16.84
13.48
12.93
14.74
17.80
20.83
22.83
23.39
22.68
21.19
19.29
17.00
13.94
9.62
3.81
-3.24
-10.82
-18.06
-24.21
-28.98
-32.57
-35.57
-38.78
-42.99
-48.79
-56.34
-65.15
-73.95
-80.83
-83.60
-80.51
-70.80
-55.10
-35.24
-13.77
6.78
24.44
38.02
47.07
51.62
52.06
49.11
43.86
37.74
32.27
28.71
27.75
29.33
32.79
37.11
41.31
44.62
46.60
47.02
45.84
43.07
38.83
33.33
26.91
20.00
13.06
6.50
0.66
-4.35
-8.66
-12.65
-16.89
-22.03
-28.45
-35.99
-43.79
-50.23
-53.37
-51.51
-43.87
-30.89
-14.14
4.11
21.58
36.49
47.75
54.87
57.81
56.90
52.80
46.60
39.83
34.15
30.99
31.16
34.56
40.28
46.97
53.36
58.73
62.96
66.40
69.32
71.58
72.60
71.58
68.08
62.28
55.12
47.91
41.99
38.34
37.45
39.29
43.11
47.27
49.30
46.53
36.96
20.30
-1.66
-25.62
-48.04
-66.52
-80.43
-90.78
-99.04
-106.26
-112.45
-116.86
-118.60
-117.27
-113.20
-107.21
-100.22
-92.89
-85.56
-78.22
-70.75
-63.01
-54.95
-46.75
-38.74
-31.48
-25.54
-21.29
-18.84
-17.94
-18.14
-19.02
-20.24
-21.73
-23.60
-26.08
-29.50
-34.25
-40.64
-48.63
-57.42
-65.35
-70.04
-69.14
-61.14
-46.12
-25.80
-3.09
18.89
37.68
51.97
61.53
66.73
68.11
66.20
61.60
55.18
48.15
41.84
37.31
34.96
34.44
34.86
35.16
34.60
32.93
30.37
27.23
23.63
19.34
13.90
6.93
-1.54
-10.96
-20.40
-28.85
-35.65
-40.65
-44.29
-47.39
-50.98
-55.90
-62.58
-70.67
-78.89
-85.17
-87.13
-82.93
-71.94
-55.08
-34.55
-13.07
6.91
23.79
36.79
45.81
50.98
52.55
51.00
47.13
42.17
37.43
33.98
32.30
32.23
33.11
34.14
34.71
34.51
33.62
32.22
30.48
28.31
25.43
21.40
15.88
8.81
0.56
-8.12
-16.37
-23.43
-28.93
-33.02
-36.21
-39.32
-43.17
-48.50
-55.68
-64.47
-73.78
-81.68
-85.80
-84.04
-75.27
-59.95
-39.97
-18.17
2.62
20.24
33.61
42.50
47.24
48.30
46.26
41.84
36.14
30.47
26.18
24.23
24.80
27.36
30.82
34.02
36.15
36.92
36.52
35.24
33.26
30.46
26.57
21.44
15.19
8.30
1.44
-4.78
-10.00
-14.21
-17.71
-21.02
-24.79
-29.69
-36.14
-44.00
-52.32
-59.33
-62.83
-60.94
-52.83
-39.08
-21.59
-2.85
14.75
29.50
40.53
47.60
50.80
50.37
46.76
40.78
33.71
27.13
22.50
20.71
21.77
24.87
28.62
31.68
33.19
33.00
31.51
29.39
27.15
24.85
22.13
18.49
13.55
7.33
0.36
-6.59
-12.69
-17.44
-20.86
-23.47
-26.12
-29.72
-35.02
-42.27
-50.98
-59.82
-66.74
-69.42
-65.92
-55.36
-38.35
-16.84
6.34
28.38
47.11
61.31
70.65
75.23
75.37
71.49
64.32
54.98
45.00
36.08
29.51
25.82
24.59
24.67
24.65
23.44
20.57
16.25
11.10
5.74
0.51
-4.62
-9.95
-15.78
-22.24
-29.03
-35.61
-41.35
-45.76
-48.75
-50.58
-51.88
-53.43
-56.06
-60.46
-67.05
-75.59
-85.00
-93.27
-97.88
-96.49
-87.78
-72.07
-51.21
-28.04
-5.50
14.21
29.93
41.33
48.63
52.17
52.43
50.08
46.13
41.88
38.60
37.22
38.00
40.53
43.86
46.90
48.73
48.87
47.38
44.70
41.50
38.23
35.01
31.52
27.22
21.69
14.89
7.32
-0.18
-6.74
-11.89
-15.68
-18.66
-21.72
-25.74
-31.44
-39.11
-48.39
-58.21
-66.82
-72.06
-71.99
-65.52
-52.83
-35.40
-15.59
4.06
21.46
35.28
44.91
50.28
51.56
49.24
44.12
37.47
30.83
25.66
22.96
22.90
24.88
27.79
30.52
32.24
32.67
31.92
30.28
28.02
25.20
21.62
16.97
11.04
3.88
-4.08
-12.08
-19.30
-25.12
-29.45
-32.71
-35.78
-39.60
-44.99
-52.35
-61.37
-71.09
-79.81
-85.42
-85.93
-80.04
-67.65
-50.03
-29.46
-8.62
10.20
25.52
36.70
43.75
46.90
46.50
43.07
37.54
31.20
25.59
22.00
21.07
22.63
25.74
29.13
31.65
32.60
31.80
29.51
26.17
22.19
17.87
13.32
8.49
3.28
-2.31
-8.20
-14.10
-19.65
-24.52
-28.50
-31.63
-34.17
-36.52
-39.29
-43.14
-48.70
-56.33
-65.66
-75.44
-83.56
-87.52
-85.27
-75.90
-60.08
-39.82
-17.89
3.02
20.88
34.57
43.82
48.97
50.68
49.85
47.58
45.03
43.31
43.22
45.06
48.52
52.80
56.81
59.54
60.33
59.07
56.18
52.36
48.29
44.41
40.73
36.94
32.56
27.20
20.73
13.37
5.59
-2.01
-8.94
-14.91
-20.00
-24.49
-28.90
-33.85
-39.94
-47.49
-56.28
-65.29
-72.76
-76.50
-74.56
-65.94
-51.04
-31.65
-10.42
9.92
27.25
40.40
49.07
53.53
54.27
51.97
47.50
41.99
36.77
33.05
31.61
32.49
35.04
38.22
40.97
42.63
42.99
42.24
40.66
38.41
35.46
31.65
26.88
21.27
15.23
9.31
4.08
-0.16
-3.48
-6.23
-8.90
-11.99
-15.83
-20.52
-25.84
-31.10
-35.11
-36.30
-33.03
-24.11
-9.27
10.59
33.55
57.11
78.73
96.44
109.06
116.36
118.95
118.11
115.76
114.18
115.60
121.49
131.77
144.32
155.19
159.53
153.18
134.07
102.96
63.09
19.08
-24.59
-64.68
-99.47
-128.36
-151.12
-167.44
-177.02
-179.98
-177.43
-171.52
-165.06
-160.76
-160.48
-164.79
-172.86
-182.83
-192.10
-197.80
-197.25
-188.52
-170.97
-145.67
-115.16
-82.84
-52.03
-25.16
-3.52
12.62
23.53
29.70
31.79
30.77
28.02
25.18
23.76
24.59
27.61
31.91
36.20
39.27
40.50
39.93
38.05
35.48
32.63
29.50
25.76
20.95
14.80
7.40
-0.71
-8.77
-16.05
-22.13
-27.03
-31.27
-35.63
-40.95
-47.92
-56.83
-67.41
-78.54
-88.40
-94.61
-94.89
-87.86
-73.52
-53.42
-30.21
-6.82
14.33
31.79
45.08
54.37
60.10
62.76
62.83
60.93
57.94
54.88
52.73
52.11
53.06
54.99
57.00
58.16
57.99
56.54
54.28
51.76
49.28
46.69
43.51
39.24
33.71
27.16
20.28
13.82
8.38
4.14
0.84
-2.07
-5.34
-9.68
-15.64
-23.48
-32.94
-43.15
-52.55
-59.15
-61.03
-56.96
-46.90
-32.03
-14.49
3.35
19.49
32.70
42.51
48.94
52.19
52.54
50.38
46.32
41.34
36.60
33.24
31.95
32.85
35.36
38.51
41.27
42.84
42.91
41.66
39.44
36.57
33.12
28.95
23.85
17.78
11.08
4.35
-1.65
-6.37
-9.67
-11.89
-13.75
-16.18
-20.05
-25.92
-33.81
-42.97
-51.94
-58.71
-61.28
-58.22
-49.21
-35.21
-18.19
-0.52
15.62
28.69
37.92
43.14
44.54
42.56
37.95
31.75
25.29
19.93
16.74
16.17
17.94
21.16
24.68
27.54
29.18
29.47
28.60
26.76
24.04
20.37
15.63
9.83
3.18
-3.83
-10.57
-16.44
-21.07
-24.46
-27.06
-29.65
-33.22
-38.59
-46.15
-55.51
-65.40
-73.84
-78.54
-77.54
-69.84
-55.81
-37.15
-16.52
3.23
19.76
31.77
39.02
42.13
42.06
39.73
35.94
31.34
26.69
22.87
20.76
20.89
23.24
27.10
31.25
34.43
35.70
34.73
31.84
27.77
23.28
18.90
14.73
10.51
5.85
0.48
-5.59
-12.03
-18.31
-23.98
-28.82
-32.94
-36.75
-40.80
-45.73
-52.07
-60.05
-69.40
-79.08
-87.29
-91.86
-90.84
-83.24
-69.43
-51.15
-30.93
-11.35
5.65
19.01
28.57
34.65
37.75
38.49
37.54
35.68
33.76
32.50
32.42
33.66
36.01
38.97
41.90
44.20
45.43
45.42
44.30
42.39
40.06
37.53
34.84
31.82
28.25
24.02
19.19
14.04
8.92
4.13
-0.15
-3.96
-7.46
-10.95
-14.78
-19.39
-25.26
-32.66
-41.41
-50.64
-58.67
-63.42
-63.02
-56.47
-44.12
-27.55
-9.10
8.86
24.55
36.96
45.76
51.08
53.24
52.67
49.99
46.01
41.76
38.25
36.29
36.33
38.25
41.41
44.87
47.63
49.00
48.71
46.97
44.24
41.00
37.54
33.89
29.86
25.24
19.99
14.32
8.67
3.52
-0.73
-4.04
-6.68
-9.28
-12.61
-17.40
-24.11
-32.71
-42.52
-52.15
-59.76
-63.46
-61.85
-54.56
-42.38
-27.07
-10.82
4.32
16.91
26.19
31.93
34.19
33.24
29.57
23.96
17.52
11.58
7.36
5.67
6.69
9.90
14.25
18.50
21.60
22.93
22.45
20.61
18.00
15.19
12.38
9.46
6.06
1.82
-3.42
-9.46
-15.79
-21.74
-26.76
-30.53
-33.15
-35.03
-36.83
-39.33
-43.26
-49.16
-57.07
-66.27
-75.13
-81.28
-82.24
-76.28
-63.13
-44.24
-22.33
-0.48
18.72
33.78
44.25
50.41
52.80
52.05
48.83
44.02
38.72
34.06
30.97
29.91
30.79
33.04
35.80
38.19
39.51
39.41
37.88
35.19
31.73
27.83
23.69
19.31
14.59
9.35
3.47
-3.02
-9.87
-16.63
-22.75
-27.82
-31.72
-34.68
-37.28
-40.23
-44.21
-49.70
-56.82
-65.12
-73.43
-79.90
-82.25
-78.55
-67.86
-50.78
-29.41
-6.71
14.39
31.80
44.57
52.72
56.80
57.42
55.13
50.50
44.36
37.90
32.48
29.30
28.97
31.21
35.05
39.09
42.08
43.34
42.88
41.20
38.87
36.20
33.11
29.18
24.06
17.63
10.25
2.53
-4.78
-11.12
-16.21
-20.10
-23.15
-25.89
-29.03
-33.31
-39.31
-47.21
-56.48
-65.80
-73.19
-76.52
-74.17
-65.61
-51.61
-34.08
-15.50
1.79
16.00
26.17
32.08
33.99
32.53
28.55
23.20
17.77
13.59
11.70
12.66
16.32
21.93
28.35
34.39
39.19
42.37
44.06
44.59
44.31
43.31
41.40
38.38
34.18
29.03
23.37
17.72
12.38
7.32
2.15
-3.71
-10.86
-19.72
-30.35
-42.14
-53.76
-63.21
-68.25
-67.02
-58.76
-44.11
-25.04
-4.29
15.38
31.85
43.86
50.93
53.13
50.82
44.69
35.74
25.35
15.15
6.72
1.14
-1.20
-0.79
1.30
3.67
5.09
4.74
2.45
-1.53
-6.60
-12.25
-18.18
-24.45
-31.28
-38.84
-47.05
-55.44
-63.36
-70.18
-75.59
-79.73
-83.19
-86.82
-91.47
-97.75
-105.69
-114.49
-122.43
-127.10
-125.97
-117.18
-100.26
-76.49
-48.62
-20.10
5.94
27.33
43.17
53.54
59.13
60.72
59.16
55.31
50.31
45.43
41.94
40.67
41.76
44.55
47.84
50.36
51.22
50.21
47.72
44.52
41.27
38.28
35.36
32.00
27.67
22.08
15.41
8.24
1.34
-4.60
-9.25
-12.76
-15.73
-19.05
-23.71
-30.41
-39.33
-49.83
-60.39
-68.80
-72.66
-70.13
-60.55
-44.81
-25.09
-4.26
14.93
30.53
41.63
48.15
50.53
49.39
45.44
39.54
32.78
26.43
21.71
19.41
19.66
21.89
25.08
28.09
30.12
30.84
30.40
29.22
27.63
25.73
23.28
19.87
15.26
9.55
3.29
-2.73
-7.83
-11.78
-14.88
-17.91
-21.80
-27.30
-34.75
-43.80
-53.43
-62.01
-67.54
-68.18
-62.78
-51.33
-35.10
-16.31
2.51
19.13
32.11
40.84
45.39
46.16
43.76
38.95
32.72
26.25
20.77
17.26
16.20
17.42
20.21
23.61
26.70
28.90
29.93
29.74
28.36
25.79
22.01
17.11
11.38
5.37
-0.31
-5.11
-8.78
-11.48
-13.71
-16.24
-19.84
-25.03
-31.82
-39.55
-46.92
-52.17
-53.51
-49.75
-40.69
-27.32
-11.56
4.30
18.19
28.74
35.35
38.02
37.16
33.37
27.51
20.73
14.44
10.06
8.60
10.30
14.57
20.15
25.64
29.89
32.33
32.90
31.86
29.47
25.81
20.86
14.52
6.91
-1.59
-10.42
-18.94
-26.63
-33.23
-38.79
-43.69
-48.55
-54.06
-60.83
-69.14
-78.55
-87.76
-94.67
-96.92
-92.57
-80.92
-62.84
-40.63
-17.36
4.08
21.67
34.53
42.70
46.74
47.32
45.19
41.14
36.23
31.64
28.51
27.61
29.12
32.51
36.69
40.39
42.52
42.51
40.41
36.74
32.26
27.59
22.99
18.30
13.07
6.93
-0.22
-8.01
-15.73
-22.64
-28.21
-32.38
-35.52
-38.38
-41.78
-46.51
-53.10
-61.67
-71.70
-81.85
-90.03
-93.86
-91.30
-81.43
-64.92
-43.91
-21.39
-0.31
17.16
30.00
38.21
42.42
43.51
42.29
39.55
36.05
32.65
30.17
29.27
30.30
33.13
37.22
41.78
45.95
49.11
50.94
51.41
50.76
49.18
46.78
43.50
39.14
33.52
26.60
18.62
10.01
1.38
-6.64
-13.52
-18.89
-22.63
-24.89
-26.17
-27.29
-29.30
-33.22
-39.54
-47.83
-56.49
-63.04
-64.78
-59.76
-47.37
-28.74
-6.22
17.30
39.21
57.69
71.85
81.60
87.41
90.18
91.13
91.58
92.73
95.13
98.46
101.60
102.95
101.09
95.27
85.63
73.09
58.92
44.36
30.32
17.41
6.05
-3.45
-10.86
-16.18
-19.79
-22.38
-24.80
-27.78
-31.67
-36.36
-41.40
-46.23
-50.53
-54.34
-58.00
-62.08
-67.15
-73.60
-81.44
-90.09
-98.15
-103.65
-104.37
-98.58
-85.69
-66.53
-43.22
-18.57
4.64
24.27
39.05
48.49
52.72
52.28
48.13
41.56
34.09
27.22
22.14
19.54
19.58
21.86
25.60
29.75
33.29
35.42
35.78
34.55
32.26
29.49
26.57
23.39
19.54
14.61
8.47
1.49
-5.60
-12.04
-17.33
-21.37
-24.43
-26.99
-29.56
-32.61
-36.60
-41.86
-48.37
-55.50
-61.88
-65.61
-64.76
-58.15
-45.75
-28.85
-9.62
9.54
26.60
40.18
49.53
54.35
54.65
50.78
43.57
34.33
24.71
16.32
10.37
7.29
6.82
8.18
10.41
12.72
14.63
15.93
16.50
16.21
14.77
11.92
7.49
1.64
-5.17
-12.23
-18.80
-24.32
-28.59
-31.76
-34.40
-37.27
-41.11
-46.32
-52.65
-59.06
-63.86
-65.20
-61.64
-52.75
-39.30
-23.04
-6.20
9.18
21.70
30.71
36.15
38.22
37.21
33.46
27.50
20.21
12.79
6.47
2.23
0.50
1.10
3.35
6.44
9.57
12.15
13.73
13.96
12.57
9.48
4.81
-1.03
-7.49
-13.97
-20.06
-25.60
-30.80
-36.16
-42.30
-49.67
-58.13
-66.70
-73.56
-76.58
-73.99
-65.19
-51.02
-33.52
-15.25
1.57
15.53
26.04
33.01
36.50
36.49
33.11
26.87
18.83
10.47
3.38
-1.22
-2.79
-1.56
1.65
5.72
9.50
12.10
12.96
11.93
9.19
5.17
0.44
-4.44
-9.07
-13.29
-17.31
-21.67
-27.11
-34.22
-43.06
-52.82
-61.78
-67.66
-68.28
-62.32
-49.82
-32.28
-12.12
7.92
25.59
39.50
49.08
54.47
56.15
54.71
50.82
45.27
38.95
32.83
27.79
24.46
23.13
23.62
25.45
27.88
30.08
31.21
30.64
27.95
23.10
16.43
8.61
0.47
-7.18
-13.82
-19.27
-23.82
-28.11
-33.05
-39.42
-47.50
-56.64
-65.20
-70.83
-71.18
-64.74
-51.49
-33.02
-12.02
8.51
26.15
39.52
48.32
52.95
54.11
52.50
48.81
43.86
38.53
33.83
30.57
29.21
29.65
31.32
33.37
35.04
35.88
35.86
35.15
33.93
32.12
29.28
24.91
18.66
10.65
1.50
-7.85
-16.46
-23.75
-29.71
-34.83
-39.95
-46.02
-53.73
-63.28
-74.03
-84.49
-92.44
-95.55
-92.07
-81.50
-64.80
-44.23
-22.55
-2.40
14.41
27.01
35.38
40.04
41.70
41.12
39.05
36.27
33.54
31.51
30.66
31.16
32.87
35.40
38.28
40.96
43.00
44.00
43.63
41.70
38.17
33.24
27.30
20.88
14.40
8.13
2.12
-3.77
-9.66
-15.59
-21.41
-26.93
-31.92
-36.31
-40.16
-43.78
-47.70
-52.64
-59.38
-68.36
-79.29
-90.79
-100.46
-105.52
-103.67
-94.01
-77.42
-56.23
-33.43
-11.69
7.18
22.49
34.18
42.55
47.94
50.73
51.49
50.96
50.11
49.76
50.48
52.36
55.10
58.05
60.57
62.16
62.58
61.95
60.55
58.64
56.33
53.49
49.86
45.22
39.57
33.22
26.77
20.84
15.90
11.95
8.56
5.00
0.51
-5.25
-12.14
-19.53
-26.55
-32.53
-37.27
-41.18
-45.04
-49.77
-56.11
-64.42
-74.54
-85.71
-96.46
-104.73
-108.27
-105.25
-94.96
-78.23
-57.19
-34.73
-13.49
4.73
19.31
30.50
38.90
44.97
48.97
51.06
51.57
51.15
50.62
50.75
51.94
54.09
56.76
59.39
61.56
63.08
64.00
64.36
64.13
63.17
61.34
58.61
55.13
51.15
46.99
42.85
38.83
34.93
31.10
27.34
23.77
20.50
17.62
15.08
12.61
9.78
6.17
1.49
-4.16
-10.32
-16.31
-21.41
-25.27
-28.09
-30.62
-34.06
-39.72
-48.56
-60.74
-75.27
-90.02
-102.06
-108.45
-107.16
-97.71
-81.39
-60.82
-39.04
-18.66
-1.23
12.80
23.70
31.97
38.01
42.10
44.55
45.92
46.94
48.32
50.44
53.27
56.32
59.04
61.04
62.26
62.96
63.42
63.79
63.94
63.58
62.41
60.31
57.40
53.92
50.20
46.44
42.74
39.10
35.54
32.13
29.02
26.45
24.54
23.23
22.18
20.79
18.34
14.24
8.18
0.33
-8.77
-18.37
-27.67
-36.16
-43.68
-50.54
-57.40
-65.10
-74.24
-84.81
-95.83
-105.32
-110.67
-109.48
-100.41
-83.85
-61.83
-37.51
-14.11
5.88
21.28
31.96
38.49
41.67
42.20
40.78
38.23
35.52
33.67
33.41
35.01
38.16
42.10
46.00
49.27
51.71
53.50
54.89
56.00
56.71
56.72
55.78
53.85
51.31
48.78
46.90
46.11
46.32
46.97
47.21
46.24
43.65
39.62
34.82
30.21
26.64
24.57
23.91
24.19
24.78
25.16
25.17
25.01
25.06
25.76
27.42
30.15
33.72
37.50
40.39
41.05
38.24
31.35
20.73
7.63
-6.23
-19.33
-30.84
-40.77
-49.59
-57.76
-65.32
-71.86
-76.72
-79.40
-79.67
-77.67
-73.82
-68.65
-62.78
-56.69
-50.67
-44.78
-38.99
-33.36
-28.27
-24.37
-22.40
-22.85
-25.79
-30.82
-37.24
-44.35
-51.56
-58.39
-64.29
-68.69
-71.00
-70.82
-68.20
-63.62
-57.91
-51.91
-46.28
-41.26
-36.71
-32.21
-27.42
-22.20
-16.91
-12.27
-9.27
-8.89
-11.67
-17.41
-24.97
-32.29
-36.85
-36.33
-29.42
-16.30
1.18
20.17
37.59
51.04
59.32
62.40
61.02
56.19
48.86
39.89
30.15
20.66
12.49
6.59
3.46
3.00
4.51
6.92
9.17
10.55
10.82
10.26
9.38
8.64
8.18
7.82
7.15
5.79
3.67
1.09
-1.34
-3.06
-3.84
-3.95
-4.08
-4.96
-7.05
-10.29
-14.14
-17.82
-20.71
-22.61
-23.80
-24.92
-26.73
-29.97
-35.07
-42.03
-50.28
-58.52
-64.80
-67.04
-63.59
-53.90
-38.84
-20.48
-1.54
15.39
28.47
36.90
40.74
40.57
37.23
31.54
24.38
16.79
9.82
4.55
1.79
1.89
4.62
9.23
14.67
19.87
24.00
26.63
27.75
27.58
26.44
24.60
22.15
19.08
15.30
10.81
5.76
0.47
-4.63
-9.17
-12.94
-15.96
-18.39
-20.49
-22.54
-24.81
-27.57
-31.14
-35.77
-41.35
-47.20
-51.94
-53.76
-51.03
-42.96
-30.05
-14.02
2.72
17.87
29.88
38.11
42.70
44.09
42.73
38.99
33.32
26.51
19.62
13.87
10.20
9.04
10.16
12.83
16.03
18.86
20.72
21.47
21.26
20.42
19.15
17.46
15.13
11.88
7.58
2.43
-3.10
-8.40
-12.98
-16.68
-19.68
-22.43
-25.39
-28.96
-33.44
-38.95
-45.27
-51.68
-56.90
-59.22
-57.03
-49.45
-36.77
-20.55
-3.09
13.26
26.71
36.37
42.10
44.23
43.27
39.74
34.34
27.88
21.38
15.86
12.12
10.53
10.94
12.75
15.12
17.24
18.67
19.30
19.37
19.15
18.69
17.73
15.74
12.29
7.24
0.93
-5.93
-12.56
-18.32
-22.99
-26.71
-29.90
-33.14
-37.02
-42.06
-48.48
-55.95
-63.41
-69.12
-71.12
-67.80
-58.64
-44.44
-27.13
-9.22
7.03
20.10
29.37
34.94
37.23
36.79
34.17
30.03
25.20
20.63
17.18
15.39
15.34
16.67
18.64
20.55
21.83
22.30
22.07
21.44
20.64
19.68
18.31
16.11
12.75
8.20
2.84
-2.63
-7.44
-11.10
-13.52
-15.12
-16.58
-18.72
-22.23
-27.52
-34.53
-42.57
-50.31
-55.92
-57.48
-53.67
-44.19
-30.12
-13.58
2.94
17.23
27.98
34.84
38.18
38.70
37.14
34.15
30.40
26.64
23.59
21.86
21.67
22.82
24.73
26.70
28.15
28.81
28.73
28.10
27.10
25.65
23.48
20.20
15.59
9.76
3.22
-3.28
-9.05
-13.70
-17.30
-20.28
-23.24
-26.75
-31.18
-36.75
-43.27
-50.16
-56.25
-59.94
-59.58
-54.05
-43.32
-28.59
-11.97
4.19
17.98
28.38
35.23
38.88
39.85
38.57
35.44
30.98
25.96
21.31
17.92
16.32
16.55
18.13
20.26
22.20
23.46
23.90
23.61
22.72
21.23
18.95
15.64
11.21
5.77
-0.30
-6.42
-12.07
-16.86
-20.71
-23.90
-26.97
-30.63
-35.49
-41.74
-48.90
-55.76
-60.56
-61.44
-57.10
-47.31
-33.06
-16.30
0.61
15.60
27.31
35.22
39.46
40.46
38.82
35.22
30.52
25.69
21.66
19.09
18.13
18.49
19.60
20.92
22.05
22.85
23.23
23.10
22.21
20.30
17.15
12.76
7.36
1.40
-4.58
-10.06
-14.72
-18.54
-21.85
-25.15
-29.06
-34.07
-40.32
-47.46
-54.53
-60.06
-62.37
-60.00
-52.33
-39.76
-23.86
-6.88
8.91
21.73
30.74
35.90
37.73
36.95
34.23
30.19
25.44
20.67
16.59
13.84
12.83
13.65
15.96
19.15
22.45
25.09
26.49
26.34
24.63
21.56
17.52
12.88
8.02
3.24
-1.28
-5.51
-9.64
-14.04
-19.18
-25.40
-32.67
-40.30
-47.00
-51.06
-50.87
-45.51
-35.14
-21.04
-5.22
10.06
22.95
32.37
37.98
40.04
39.11
35.82
30.89
25.09
19.32
14.48
11.34
10.27
11.15
13.38
16.12
18.46
19.75
19.64
18.11
15.38
11.82
7.79
3.57
-0.64
-4.78
-8.89
-13.14
-17.75
-22.97
-29.03
-35.96
-43.40
-50.43
-55.60
-57.18
-53.76
-44.76
-30.83
-13.78
3.96
19.96
32.46
40.63
44.51
44.72
42.08
37.47
31.72
25.71
20.31
16.27
14.03
13.61
14.65
16.53
18.62
20.39
21.50
21.71
20.82
18.73
15.41
11.05
5.99
0.66
-4.53
-9.34
-13.75
-17.97
-22.36
-27.41
-33.44
-40.45
-47.77
-54.08
-57.63
-56.77
-50.59
-39.27
-24.16
-7.36
8.86
22.67
32.96
39.36
42.06
41.55
38.55
33.91
28.63
23.71
19.99
18.00
17.78
18.98
21.01
23.13
24.79
25.59
25.37
24.11
21.83
18.59
14.43
9.46
3.92
-1.79
-7.18
-11.79
-15.43
-18.31
-21.02
-24.32
-28.87
-34.80
-41.50
-47.69
-51.65
-51.67
-46.69
-36.55
-22.13
-5.18
12.21
28.13
41.13
50.49
56.08
58.22
57.45
54.50
50.26
45.73
41.91
39.61
39.27
40.84
43.96
48.08
52.64
57.23
61.50
65.12
67.70
68.91
68.62
66.97
64.41
61.58
59.07
57.34
56.61
56.83
57.70
58.67
58.98
57.87
54.89
50.26
45.00
40.77
39.15
41.00
45.86
52.07
57.28
59.38
57.13
50.42
40.06
27.26
13.19
-1.14
-14.87
-27.13
-37.16
-44.43
-48.86
-50.89
-51.39
-51.31
-51.46
-52.28
-53.90
-56.28
-59.42
-63.45
-68.57
-74.88
-82.25
-90.17
-97.96
-104.85
-110.39
-114.55
-117.81
-121.03
-125.11
-130.62
-137.43
-144.53
-150.13
-152.11
-148.69
-139.10
-123.93
-105.05
-85.01
-66.25
-50.44
-38.24
-29.41
-23.23
-18.93
-15.89
-13.58
-11.40
-8.65
-4.55
1.40
9.17
18.11
27.07
34.87
40.69
44.29
45.97
46.23
45.49
43.85
41.13
37.17
32.01
26.05
19.97
14.45
9.98
6.62
3.95
1.21
-2.55
-8.07
-15.59
-24.45
-33.00
-38.89
-39.73
-33.93
-21.34
-3.43
17.17
37.55
55.31
69.20
78.95
84.94
87.63
87.40
84.59
79.83
74.11
68.64
64.53
62.29
61.75
62.10
62.23
61.14
58.20
53.25
46.46
38.13
28.53
17.81
6.03
-6.68
-20.07
-33.70
-46.92
-59.08
-69.64
-78.36
-85.32
-90.91
-95.75
-100.62
-106.24
-112.99
-120.53
-127.51
-131.75
-130.70
-122.45
-106.49
-84.06
-57.87
-31.16
-6.78
13.57
29.31
40.71
48.28
52.49
53.79
52.83
50.60
48.36
47.27
48.03
50.57
54.12
57.55
59.83
60.38
59.25
56.91
53.99
50.84
47.40
43.28
37.99
31.29
23.41
15.04
7.05
0.21
-5.22
-9.49
-13.33
-17.68
-23.39
-30.94
-40.17
-50.16
-59.21
-65.22
-66.22
-61.02
-49.70
-33.59
-14.95
3.69
20.14
32.94
41.41
45.51
45.67
42.60
37.29
30.93
24.75
19.90
17.12
16.68
18.27
21.12
24.28
26.85
28.30
28.52
27.79
26.44
24.62
22.19
18.82
14.26
8.63
2.45
-3.50
-8.47
-12.09
-14.53
-16.38
-18.49
-21.70
-26.57
-33.19
-40.99
-48.62
-54.23
-55.83
-51.93
-42.11
-27.27
-9.38
9.11
25.90
39.36
48.64
53.59
54.43
51.69
46.17
38.95
31.38
24.81
20.29
18.31
18.73
20.87
23.81
26.66
28.71
29.50
28.84
26.64
22.92
17.90
11.92
5.50
-0.83
-6.62
-11.70
-16.20
-20.49
-25.08
-30.47
-36.92
-44.23
-51.59
-57.54
-60.29
-58.20
-50.47
-37.53
-21.01
-3.35
12.99
26.10
35.00
39.58
40.34
38.03
33.49
27.54
21.00
14.67
9.32
5.53
3.63
3.61
5.10
7.48
9.97
11.91
12.80
12.42
10.77
8.01
4.39
0.17
-4.30
-8.72
-12.83
-16.57
-20.17
-24.16
-29.12
-35.44
-42.90
-50.42
-56.15
-57.89
-53.89
-43.54
-27.84
-9.13
9.60
25.62
37.17
43.74
45.75
44.06
39.59
33.11
25.37
17.27
9.85
4.09
0.67
-0.30
0.76
3.06
5.66
7.78
8.82
8.43
6.44
2.87
-2.02
-7.87
-14.17
-20.50
-26.56
-32.31
-37.91
-43.69
-49.99
-56.90
-64.05
-70.39
-74.31
-74.02
-68.11
-56.29
-39.61
-20.32
-1.22
15.17
27.30
34.72
37.83
37.40
34.24
29.08
22.67
15.95
9.93
5.53
3.28
3.15
4.62
6.83
8.89
10.06
9.88
8.11
4.77
0.08
-5.62
-11.95
-18.55
-25.22
-31.91
-38.67
-45.68
-53.20
-61.47
-70.58
-80.18
-89.17
-95.76
-97.84
-93.71
-82.75
-65.83
-45.07
-23.31
-3.25
13.22
25.17
32.51
35.69
35.38
32.38
27.59
21.96
16.48
11.99
9.05
7.86
8.22
9.56
11.16
12.29
12.39
11.21
8.71
4.98
0.23
-5.32
-11.38
-17.59
-23.54
-28.90
-33.52
-37.63
-41.83
-46.91
-53.52
-61.69
-70.45
-77.81
-81.25
-78.49
-68.46
-51.76
-30.61
-8.05
13.00
30.56
43.83
52.93
58.41
60.81
60.59
58.28
54.66
50.67
47.26
45.08
44.26
44.48
45.14
45.68
45.75
45.23
44.18
42.63
40.49
37.57
33.63
28.61
22.65
16.17
9.68
3.65
-1.71
-6.50
-11.16
-16.37
-22.81
-30.93
-40.55
-50.68
-59.59
-65.13
-65.43
-59.52
-47.74
-31.63
-13.50
4.33
20.00
32.43
41.16
46.24
47.96
46.90
43.88
39.95
36.21
33.55
32.47
32.98
34.65
36.87
38.99
40.48
41.02
40.53
39.09
36.88
34.15
30.99
27.35
23.06
17.97
12.10
5.78
-0.44
-6.03
-10.69
-14.53
-18.03
-21.92
-26.94
-33.56
-41.70
-50.60
-58.76
-64.17
-64.89
-59.58
-48.15
-31.84
-12.97
5.79
22.13
34.67
43.02
47.52
48.88
47.85
45.12
41.45
37.68
34.76
33.46
34.20
36.76
40.35
43.89
46.31
47.02
45.94
43.53
40.43
37.14
33.86
30.43
26.47
21.70
16.08
9.99
4.01
-1.24
-5.35
-8.32
-10.50
-12.49
-15.07
-18.95
-24.70
-32.50
-41.87
-51.49
-59.34
-63.13
-61.01
-52.36
-38.01
-20.05
-1.16
16.27
30.64
41.33
48.36
52.02
52.66
50.73
46.90
42.21
37.87
35.01
34.29
35.73
38.75
42.37
45.60
47.62
48.03
46.84
44.34
40.97
37.11
32.95
28.42
23.35
17.55
11.02
4.07
-2.79
-8.98
-14.02
-17.78
-20.50
-22.78
-25.48
-29.51
-35.61
-44.04
-54.36
-65.26
-74.71
-80.30
-79.96
-72.63
-58.70
-39.98
-19.19
0.84
17.94
30.90
39.56
44.34
45.96
45.13
42.54
38.97
35.31
32.43
31.01
31.35
33.21
35.94
38.62
40.40
40.73
39.55
37.18
34.20
31.10
28.03
24.81
21.00
16.18
10.23
3.46
-3.49
-9.89
-15.23
-19.39
-22.65
-25.50
-28.54
-32.28
-37.10
-43.28
-50.81
-59.15
-67.05
-72.62
-73.75
-68.81
-57.39
-40.56
-20.66
-0.54
17.21
30.95
40.12
44.93
45.98
44.02
39.80
34.18
28.20
23.00
19.60
18.64
20.15
23.48
27.49
31.01
33.14
33.57
32.53
30.50
27.94
24.98
21.49
17.15
11.81
5.65
-0.84
-7.03
-12.37
-16.61
-19.88
-22.61
-25.39
-28.84
-33.39
-39.19
-45.96
-52.91
-58.75
-61.88
-60.72
-54.25
-42.33
-25.98
-7.07
12.06
29.22
42.80
51.95
56.50
56.77
53.47
47.64
40.59
33.88
28.92
26.71
27.48
30.71
35.28
39.97
43.86
46.56
48.19
49.12
49.66
49.79
49.13
47.08
43.12
37.09
29.28
20.49
11.64
3.51
-3.58
-9.92
-16.34
-23.86
-33.28
-44.74
-57.39
-69.52
-78.83
-83.14
-80.99
-72.28
-58.23
-41.08
-23.50
-7.80
4.48
12.63
16.66
16.93
13.92
8.23
0.67
-7.67
-15.46
-21.45
-24.75
-25.11
-22.99
-19.36
-15.34
-11.83
-9.27
-7.66
-6.70
-6.10
-5.77
-5.96
-7.10
-9.55
-13.40
-18.30
-23.49
-28.10
-31.47
-33.42
-34.33
-35.02
-36.52
-39.73
-45.14
-52.60
-61.11
-68.96
-73.90
-73.75
-67.04
-53.55
-34.54
-12.42
9.91
29.83
45.65
56.71
63.19
65.68
64.81
61.18
55.46
48.50
41.47
35.52
31.54
29.80
29.86
30.77
31.48
31.18
29.61
26.94
23.59
19.92
16.09
12.00
7.40
2.09
-3.95
-10.42
-16.80
-22.47
-27.00
-30.29
-32.71
-34.95
-37.84
-42.07
-47.96
-55.31
-63.32
-70.60
-75.36
-75.81
-70.67
-59.64
-43.59
-24.43
-4.53
13.85
29.05
40.11
46.74
49.04
47.44
42.69
35.90
28.54
22.11
17.77
16.10
16.91
19.43
22.63
25.61
27.78
28.97
29.22
28.60
27.09
24.54
20.82
15.93
10.09
3.69
-2.76
-8.77
-14.04
-18.48
-22.31
-25.95
-29.96
-34.84
-40.90
-47.99
-55.35
-61.58
-64.85
-63.52
-56.64
-44.44
-28.33
-10.51
6.77
21.69
33.19
40.91
44.78
44.91
41.54
35.27
27.24
19.04
12.35
8.42
7.66
9.55
12.89
16.28
18.63
19.38
18.59
16.70
14.17
11.25
7.84
3.64
-1.57
-7.73
-14.38
-20.86
-26.50
-30.95
-34.32
-37.17
-40.23
-44.22
-49.64
-56.65
-64.98
-73.87
-81.93
-87.33
-88.13
-82.89
-71.20
-54.01
-33.39
-11.98
7.76
24.07
36.11
43.74
47.23
47.12
44.05
39.01
33.23
28.06
24.59
23.38
24.29
26.53
29.01
30.71
31.03
29.88
27.60
24.71
21.57
18.24
14.43
9.75
3.94
-2.85
-10.08
-16.92
-22.63
-26.82
-29.69
-31.95
-34.54
-38.40
-44.06
-51.56
-60.20
-68.53
-74.54
-76.08
-71.44
-60.02
-42.69
-21.60
0.35
20.44
36.76
48.55
55.94
59.51
59.86
57.57
53.22
47.71
42.25
38.06
36.02
36.30
38.33
41.06
43.44
44.84
45.25
45.03
44.58
44.01
43.03
41.05
37.56
32.43
25.95
18.78
11.70
5.29
-0.17
-4.78
-9.00
-13.46
-18.89
-25.87
-34.61
-44.56
-54.40
-62.10
-65.51
-62.97
-53.99
-39.48
-21.58
-3.03
13.63
26.63
35.17
39.30
39.57
36.74
31.67
25.33
18.82
13.29
9.71
8.56
9.71
12.47
15.82
18.80
20.72
21.31
20.59
18.75
15.93
12.27
7.90
3.00
-2.18
-7.33
-12.20
-16.68
-20.81
-24.90
-29.44
-34.96
-41.90
-50.20
-59.08
-67.02
-72.09
-72.42
-66.94
-55.76
-40.20
-22.38
-4.61
11.16
23.57
31.98
36.19
36.42
33.23
27.55
20.70
14.17
9.32
6.96
7.13
9.17
12.00
14.59
16.27
16.89
16.62
15.71
14.17
11.77
8.15
3.15
-3.06
-9.83
-16.33
-21.71
-25.54
-27.88
-29.34
-30.92
-33.69
-38.37
-44.91
-52.18
-58.06
-59.86
-55.16
-42.75
-23.20
1.04
26.30
48.65
64.95
73.56
74.41
68.67
58.24
45.18
31.46
18.79
8.45
1.26
-2.51
-3.16
-1.42
1.67
5.08
7.96
9.78
10.31
9.59
7.77
4.97
1.27
-3.28
-8.54
-14.17
-19.68
-24.53
-28.40
-31.33
-33.82
-36.70
-40.84
-46.86
-54.72
-63.51
-71.44
-76.18
-75.56
-68.31
-54.59
-36.01
-15.18
5.11
22.65
36.18
45.43
50.73
52.65
51.81
48.93
44.89
40.81
37.77
36.52
37.22
39.36
42.06
44.38
45.71
45.90
45.10
43.60
41.52
38.80
35.32
31.00
26.05
20.87
16.02
11.95
8.88
6.63
4.72
2.51
-0.53
-4.70
-9.95
-15.85
-21.68
-26.32
-28.42
-26.49
-19.31
-6.28
12.21
34.74
59.13
82.86
103.72
120.10
131.29
137.48
139.72
139.78
139.92
142.67
150.16
163.40
181.59
201.77
219.30
229.21
227.79
213.93
189.38
157.75
122.86
87.03
50.44
11.81
-30.02
-74.62
-119.42
-160.41
-193.79
-217.54
-232.15
-240.22
-245.39
-250.95
-258.86
-269.32
-280.87
-290.97
-296.59
-295.00
-284.46
-264.70
-237.09
-204.19
-169.17
-134.96
-103.84
-77.29
-56.14
-40.59
-30.33
-24.39
-21.12
-18.57
-14.85
-8.75
0.05
10.85
22.28
32.81
41.25
47.14
50.74
52.83
54.24
55.44
56.28
56.12
54.14
49.82
43.22
35.05
26.44
18.50
11.92
6.77
2.53
-1.74
-7.05
-14.22
-23.64
-35.07
-47.48
-59.05
-67.42
-70.24
-65.94
-54.34
-36.76
-15.72
5.88
25.55
41.68
53.66
61.54
65.64
66.37
64.29
60.19
55.20
50.62
47.65
46.96
48.54
51.67
55.13
57.69
58.46
57.17
54.18
50.22
45.99
41.88
37.80
33.33
27.99
21.55
14.19
6.49
-0.85
-7.23
-12.41
-16.52
-20.04
-23.66
-28.11
-33.99
-41.59
-50.71
-60.39
-69.03
-74.54
-74.93
-68.91
-56.42
-38.73
-18.09
2.80
21.55
36.48
46.80
52.47
53.92
51.97
47.73
42.59
38.03
35.31
35.02
36.91
39.95
42.75
44.17
43.65
41.45
38.33
35.11
32.26
29.75
27.08
23.66
19.14
13.57
7.47
1.53
-3.67
-7.90
-11.37
-14.61
-18.29
-22.98
-29.00
-36.27
-44.27
-51.91
-57.64
-59.78
-56.95
-48.57
-35.14
-18.22
0.00
17.23
31.60
41.94
47.81
49.39
47.32
42.56
36.38
30.14
25.09
22.12
21.55
23.08
25.98
29.27
32.15
34.12
35.04
34.98
33.93
31.73
28.06
22.62
15.45
6.99
-1.93
-10.38
-17.67
-23.60
-28.49
-33.07
-38.26
-44.82
-53.11
-62.81
-72.74
-81.05
-85.58
-84.52
-77.06
-63.73
-46.25
-26.96
-8.21
8.25
21.43
30.92
36.66
38.76
37.52
33.64
28.19
22.53
18.02
15.60
15.56
17.50
20.49
23.44
25.43
25.94
24.94
22.72
19.65
15.93
11.48
5.96
-0.95
-9.26
-18.56
-27.96
-36.47
-43.27
-48.04
-51.03
-52.95
-54.78
-57.53
-61.93
-68.24
-75.83
-83.18
-88.00
-87.86
-81.06
-67.31
-48.02
-25.87
-3.97
15.16
30.06
40.41
46.64
49.40
49.31
46.96
43.08
38.69
34.96
32.96
33.29
35.85
39.95
44.62
48.96
52.49
55.20
57.38
59.30
61.02
62.31
62.68
61.72
59.22
55.44
50.96
46.53
42.77
39.91
37.71
35.56
32.76
28.71
23.11
15.94
7.63
-1.00
-8.69
-13.93
-15.37
-12.37
-5.34
4.20
14.09
22.19
27.08
28.21
25.90
20.84
13.82
5.53
-3.33
-11.92
-19.27
-24.48
-26.98
-26.72
-24.25
-20.56
-16.70
-13.54
-11.48
-10.47
-10.13
-10.04
-9.95
-9.93
-10.30
-11.40
-13.39
-16.13
-19.18
-22.00
-24.14
-25.51
-26.43
-27.60
-29.92
-34.20
-40.72
-48.95
-57.40
-63.88
-66.06
-62.21
-51.85
-35.92
-16.57
3.56
21.97
36.94
47.54
53.57
55.34
53.44
48.74
42.39
35.75
30.15
26.64
25.62
26.82
29.45
32.53
35.23
37.07
37.92
37.76
36.59
34.27
30.58
25.46
19.09
11.94
4.63
-2.28
-8.50
-14.02
-19.11
-24.23
-29.86
-36.40
-43.88
-51.79
-58.90
-63.40
-63.35
-57.30
-44.85
-26.92
-5.54
16.78
37.73
55.63
69.54
79.15
84.46
85.76
83.75
79.50
74.50
70.21
67.65
67.06
67.90
69.18
69.95
69.74
68.64
67.13
65.66
64.35
62.81
60.31
56.17
50.17
42.76
34.98
28.12
23.14
20.31
19.10
18.42
17.08
14.27
9.78
4.03
-1.88
-6.35
-7.40
-3.23
6.92
21.97
38.74
52.68
59.43
56.58
44.55
26.20
5.38
-14.74
-32.73
-48.68
-63.14
-76.03
-86.26
-92.21
-92.77
-88.23
-80.36
-71.87
-65.40
-62.67
-64.19
-69.33
-76.85
-85.43
-94.05
-102.12
-109.27
-115.19
-119.46
-121.54
-120.92
-117.43
-111.39
-103.65
-95.53
-88.42
-83.46
-81.35
-82.15
-85.31
-89.75
-93.92
-95.93
-93.91
-86.41
-72.92
-54.12
-31.80
-8.41
13.62
32.40
46.86
56.68
62.00
63.33
61.45
57.47
52.83
49.06
47.40
48.47
52.14
57.64
63.97
70.19
75.70
80.20
83.54
85.53
85.74
83.60
78.49
70.05
58.36
44.02
28.13
11.92
-3.57
-17.74
-30.60
-42.64
-54.51
-66.64
-78.93
-90.52
-99.89
-105.19
-104.78
-97.85
-84.75
-67.01
-46.99
-27.21
-9.79
3.98
13.58
19.11
20.94
19.64
16.05
11.32
6.90
4.28
4.52
7.94
14.01
21.49
28.97
35.27
39.80
42.55
43.83
43.98
43.11
41.13
37.86
33.33
27.91
22.28
17.23
13.35
10.79
9.23
7.99
6.25
3.32
-1.23
-7.31
-14.22
-20.55
-24.39
-23.79
-17.37
-4.94
12.33
32.21
52.11
69.77
83.75
93.42
98.69
99.67
96.52
89.64
79.86
68.52
57.28
47.71
40.88
36.97
35.41
35.02
34.55
33.05
30.15
25.97
20.88
15.06
8.32
0.13
-10.09
-22.45
-36.33
-50.51
-63.48
-74.11
-82.03
-87.81
-92.60
-97.72
-104.20
-112.49
-122.35
-132.86
-142.50
-149.33
-151.39
-147.19
-136.31
-119.71
-99.56
-78.65
-59.59
-44.07
-32.65
-24.88
-19.85
-16.68
-14.73
-13.47
-12.28
-10.32
-6.66
-0.71
7.48
17.07
26.73
35.13
41.46
45.63
48.10
49.53
50.28
50.28
49.07
46.14
41.28
34.78
27.38
20.09
13.81
8.98
5.46
2.53
-0.82
-5.55
-12.18
-20.50
-29.50
-37.39
-42.10
-41.75
-35.32
-22.99
-6.13
13.06
32.25
49.53
63.63
73.94
80.16
82.27
80.49
75.57
68.91
62.45
58.15
57.36
60.36
66.30
73.53
80.36
85.67
89.33
91.98
94.63
97.99
102.00
105.86
108.43
108.83
106.99
103.86
101.19
100.99
104.85
113.33
125.52
138.94
149.85
154.03
147.89
129.75
100.67
64.49
26.93
-6.17
-30.71
-45.52
-52.52
-55.67
-59.23
-66.26
-77.83
-93.15
-110.34
-127.44
-142.97
-156.07
-166.36
-173.68
-177.97
-179.52
-179.04
-177.73
-176.96
-177.87
-180.93
-185.73
-191.20
-196.04
-199.26
-200.56
-200.40
-199.74
-199.57
-200.52
-202.59
-205.27
-207.74
-209.18
-208.80
-205.90
-199.61
-188.92
-172.65
-149.81
-119.85
-83.07
-40.73
4.83
50.49
92.75
128.39
155.12
171.92
179.19
178.50
171.99
161.97
150.42
138.89
128.40
119.53
112.42
106.85
102.34
98.37
94.50
90.49
86.25
81.75
76.87
71.39
65.03
57.62
49.13
39.85
30.28
21.03
12.65
5.44
-0.66
-6.04
-11.40
-17.53
-25.07
-34.11
-43.99
-53.19
-59.61
-61.14
-56.39
-45.19
-28.76
-9.40
10.26
27.84
41.74
51.20
56.18
57.10
54.68
49.94
44.12
38.58
34.46
32.48
32.70
34.64
37.47
40.32
42.63
44.12
44.77
44.59
43.49
41.23
37.53
32.25
25.58
18.03
10.36
3.34
-2.52
-7.13
-10.87
-14.47
-18.78
-24.51
-31.92
-40.62
-49.42
-56.53
-59.86
-57.68
-49.15
-34.79
-16.45
3.17
21.27
35.70
45.38
50.22
50.86
48.23
43.27
36.96
30.29
24.31
19.95
17.77
17.86
19.77
22.73
25.90
28.59
30.28
30.60
29.33
26.39
21.87
16.11
9.59
2.93
-3.39
-9.09
-14.16
-18.79
-23.36
-28.33
-34.16
-41.11
-48.98
-56.88
-63.28
-66.25
-64.08
-55.98
-42.43
-25.19
-6.75
10.41
24.51
34.70
40.94
43.63
43.31
40.51
35.90
30.28
24.63
20.01
17.19
16.51
17.72
20.11
22.74
24.71
25.35
24.30
21.53
17.24
11.75
5.49
-1.13
-7.66
-13.71
-19.00
-23.42
-27.13
-30.60
-34.55
-39.76
-46.74
-55.28
-64.24
-71.60
-75.02
-72.57
-63.53
-48.65
-29.96
-10.07
8.61
24.42
36.54
44.82
49.44
50.78
49.38
46.07
41.89
38.00
35.32
34.35
35.06
36.97
39.32
41.40
42.68
42.94
42.16
40.35
37.47
33.38
27.99
21.47
14.33
7.33
1.18
-3.73
-7.46
-10.56
-13.80
-18.01
-23.83
-31.44
-40.42
-49.61
-57.20
-61.09
-59.49
-51.52
-37.56
-19.25
0.97
20.43
36.83
48.57
54.86
55.77
52.05
45.01
36.33
27.74
20.69
16.11
14.22
14.60
16.40
18.56
20.22
20.82
20.21
18.48
15.83
12.31
7.86
2.34
-4.24
-11.60
-19.21
-26.41
-32.67
-37.71
-41.71
-45.24
-49.13
-54.22
-61.05
-69.57
-78.89
-87.23
-92.27
-91.79
-84.39
-70.05
-50.20
-27.34
-4.26
16.77
34.43
48.35
58.72
65.88
70.15
71.84
71.54
70.25
69.24
69.66
72.20
76.76
82.56
88.46
93.44
97.02
99.33
100.94
102.51
104.42
106.64
108.73
110.12
110.36
109.41
107.66
105.91
105.26
106.93
111.85
120.18
130.78
140.98
147.07
145.22
132.69
108.60
74.10
31.97
-14.13
-60.28
-102.82
-138.68
-165.89
-183.76
-193.15
-196.02
-194.73
-191.22
-186.50
-180.84
-174.17
-166.62
-158.56
-150.48
-142.62
-134.85
-126.76
-118.00
-108.46
-98.35
-88.11
-78.20
-68.97
-60.65
-53.32
-47.04
-41.81
-37.70
-34.82
-33.32
-33.20
-34.26
-36.03
-37.75
-38.67
-38.24
-36.28
-33.18
-29.68
-26.84
-25.71
-27.09
-31.22
-37.49
-44.33
-49.30
-49.76
-43.56
-29.91
-9.68
14.78
40.47
64.61
85.40
102.14
114.96
124.35
130.74
134.32
135.11
133.14
128.51
121.47
112.47
102.08
91.00
79.89
69.27
59.44
50.49
42.43
35.36
29.48
24.99
21.89
19.82
18.12
16.03
13.04
9.13
4.83
1.04
-1.44
-2.08
-1.00
1.12
3.17
3.87
1.97
-3.48
-12.79
-25.41
-39.72
-53.13
-62.65
-65.65
-60.70
-48.03
-29.43
-7.59
14.68
35.11
52.17
64.99
72.96
75.69
73.10
65.66
54.60
41.81
29.40
19.17
12.13
8.26
6.69
6.07
5.18
3.33
0.46
-2.92
-6.22
-9.02
-11.37
-13.73
-16.72
-20.78
-25.91
-31.64
-37.24
-42.00
-45.60
-48.20
-50.37
-52.83
-56.21
-60.92
-67.12
-74.73
-83.34
-91.94
-98.91
-102.16
-99.69
-90.38
-74.50
-53.74
-30.78
-8.38
11.18
26.54
37.15
42.96
44.26
41.66
36.24
29.47
23.11
18.71
17.16
18.48
21.92
26.26
30.35
33.37
35.05
35.41
34.60
32.62
29.33
24.49
18.07
10.38
2.07
-5.94
-12.86
-18.17
-21.88
-24.42
-26.57
-29.20
-33.08
-38.68
-45.87
-53.79
-60.76
-64.67
-63.46
-55.87
-41.94
-23.18
-2.10
18.53
36.40
50.09
59.10
63.48
63.60
60.00
53.49
45.26
36.93
30.16
26.22
25.58
27.70
31.28
34.68
36.63
36.54
34.61
31.55
28.11
24.64
20.97
16.50
10.59
3.04
-5.82
-15.11
-23.80
-31.10
-36.77
-41.19
-45.12
-49.47
-54.97
-62.07
-70.64
-79.90
-88.35
-93.86
-94.22
-87.75
-73.95
-53.89
-29.95
-5.22
17.37
35.73
48.84
56.67
59.73
58.81
54.79
48.71
41.80
35.50
31.14
29.62
31.09
34.85
39.61
43.91
46.68
47.47
46.54
44.53
42.08
39.54
36.84
33.58
29.33
23.93
17.61
10.99
4.81
-0.37
-4.38
-7.43
-10.02
-12.76
-16.19
-20.75
-26.62
-33.58
-40.83
-46.94
-50.13
-48.79
-42.08
-30.32
-14.87
2.22
18.89
33.52
45.06
53.01
57.19
57.75
55.10
50.02
43.60
37.08
31.62
28.05
26.67
27.23
29.08
31.31
33.07
33.78
33.17
31.26
28.22
24.24
19.38
13.59
6.79
-1.04
-9.74
-18.90
-27.92
-36.12
-43.01
-48.44
-52.76
-56.70
-61.19
-67.08
-74.77
-83.95
-93.45
-101.36
-105.40
-103.59
-94.87
-79.55
-59.28
-36.65
-14.50
4.77
19.60
29.38
34.25
34.85
32.09
27.05
20.96
15.12
10.69
8.45
8.61
10.76
14.03
17.36
19.89
21.18
21.16
20.02
17.88
14.75
10.50
5.02
-1.55
-8.76
-15.96
-22.49
-27.92
-32.22
-35.79
-39.28
-43.41
-48.73
-55.37
-62.86
-70.06
-75.24
-76.48
-72.20
-61.79
-45.91
-26.36
-5.61
13.94
30.51
43.15
51.58
55.88
56.32
53.36
47.78
40.87
34.20
29.27
27.09
27.79
30.66
34.39
37.61
39.32
39.15
37.35
34.45
30.95
27.00
22.41
16.86
10.17
2.51
-5.60
-13.52
-20.78
-27.28
-33.31
-39.43
-46.27
-54.35
-63.94
-74.86
-86.28
-96.64
-103.71
-105.25
-99.66
-86.70
-67.70
-45.17
-22.02
-0.73
17.08
30.72
40.11
45.42
46.96
45.27
41.30
36.33
31.77
28.71
27.67
28.44
30.29
32.33
33.81
34.33
33.83
32.43
30.25
27.30
23.46
18.61
12.77
6.22
-0.52
-6.86
-12.21
-16.33
-19.25
-21.44
-23.67
-26.82
-31.67
-38.61
-47.38
-56.88
-65.29
-70.43
-70.28
-63.70
-50.68
-32.50
-11.29
10.54
30.80
47.92
61.02
69.77
74.19
74.59
71.53
65.95
59.15
52.60
47.58
44.86
44.44
45.67
47.49
48.89
49.14
47.96
45.34
41.33
36.04
29.59
22.22
14.33
6.45
-0.95
-7.60
-13.52
-19.01
-24.62
-30.99
-38.63
-47.61
-57.32
-66.30
-72.50
-73.87
-69.02
-57.85
-41.59
-22.55
-3.35
13.75
27.20
36.25
40.76
41.00
37.55
31.41
23.84
16.34
10.28
6.65
5.82
7.57
11.14
15.53
19.68
22.71
24.03
23.33
20.61
16.12
10.30
3.67
-3.26
-10.08
-16.52
-22.54
-28.39
-34.50
-41.50
-49.82
-59.42
-69.42
-78.11
-83.26
-82.83
-75.73
-62.24
-44.07
-23.76
-3.98
13.16
26.36
35.12
39.49
39.82
36.69
31.01
24.02
17.18
11.85
8.99
8.84
10.95
14.35
17.98
21.00
23.02
23.95
23.85
22.69
20.29
16.42
11.07
4.53
-2.55
-9.43
-15.47
-20.43
-24.52
-28.35
-32.80
-38.77
-46.85
-56.96
-68.09
-78.29
-85.00
-85.87
-79.53
-66.22
-47.83
-27.29
-7.68
8.71
20.81
28.66
32.94
34.40
33.67
31.22
27.61
23.67
20.34
18.46
18.39
19.84
22.08
24.16
25.41
25.58
24.83
23.52
21.91
20.00
17.55
14.33
10.31
5.89
1.76
-1.29
-2.74
-2.60
-1.40
-0.16
0.07
-1.52
-5.13
-10.16
-15.21
-18.44
-17.98
-12.62
-2.30
11.86
27.72
42.81
54.98
62.89
66.20
65.26
60.89
54.06
45.79
37.20
29.47
23.75
20.85
21.01
23.75
27.96
32.34
35.75
37.60
37.89
37.06
35.65
33.96
31.97
29.35
25.78
21.19
15.89
10.55
5.93
2.64
0.76
-0.12
-0.86
-2.49
-5.88
-11.37
-18.51
-25.92
-31.56
-33.15
-28.96
-18.33
-1.94
18.35
40.14
61.21
80.08
96.26
110.10
122.35
133.58
143.63
151.29
154.45
150.76
138.52
117.60
89.69
57.87
25.63
-4.26
-30.26
-52.01
-69.71
-83.58
-93.61
-99.75
-102.42
-102.60
-101.61
-100.63
-100.16
-99.97
-99.34
-97.57
-94.42
-90.28
-86.01
-82.59
-80.70
-80.38
-80.80
-80.28
-76.63
-67.72
-52.28
-30.44
-3.90
24.57
51.97
75.95
95.28
109.82
119.99
126.28
129.09
128.87
126.50
123.31
120.74
119.58
119.43
118.60
114.78
106.14
92.24
74.39
55.08
36.86
21.42
8.92
-1.70
-12.03
-23.31
-35.92
-49.36
-62.60
-74.61
-84.82
-93.10
-99.70
-104.95
-109.02
-112.08
-114.38
-116.44
-118.91
-122.19
-126.02
-129.26
-130.25
-127.53
-120.58
-110.19
-98.22
-86.83
-77.71
-71.52
-67.94
-66.06
-64.99
-64.08
-62.98
-61.43
-59.09
-55.47
-50.17
-43.02
-34.31
-24.67
-14.92
-5.72
2.56
9.89
16.46
22.46
27.90
32.61
36.23
38.36
38.68
37.01
33.36
27.97
21.25
13.71
5.85
