1706705693.00
64.000000
-0.00
-0.00
-0.00
-0.00
-0.00
-0.00
-0.00
-0.00
-0.00
-0.00
0.00
0.01
0.01
-0.00
-0.03
-0.05
-0.05
0.00
0.13
0.36
0.66
1.01
1.37
1.72
2.06
2.40
2.79
3.24
3.80
4.42
5.06
5.66
6.20
6.68
7.15
7.68
8.31
9.14
10.09
11.04
11.88
12.56
13.14
13.76
14.65
15.96
17.91
20.32
22.90
25.38
27.58
29.57
31.68
34.32
37.81
42.54
48.15
54.10
59.83
64.97
69.58
74.14
79.34
85.71
93.76
103.00
112.62
121.73
129.77
136.75
143.30
150.75
157.77
166.64
177.95
191.79
206.97
220.57
228.25
225.36
208.53
176.87
132.76
80.05
23.07
-34.94
-92.44
-149.16
-205.23
-260.37
-313.74
-363.87
-409.83
-450.91
-486.50
-515.74
-537.23
-549.22
-549.96
-538.37
-514.21
-478.67
-433.88
-382.45
-327.02
-269.84
-212.63
-156.66
-102.95
-52.37
-5.90
35.58
71.43
101.35
125.50
144.38
158.69
169.15
176.37
180.75
182.57
182.07
179.51
175.23
169.65
163.18
156.15
148.81
141.30
133.69
126.02
118.33
110.69
103.16
95.80
88.68
81.83
75.25
68.95
62.95
57.25
51.86
46.78
42.03
37.59
33.45
29.61
26.07
22.81
19.83
17.11
14.67
12.48
10.54
8.83
7.35
6.07
4.97
4.05
3.27
2.62
2.09
1.65
1.30
1.01
0.79
0.61
0.47
0.37
0.28
0.22
0.18
0.14
0.12
0.10
0.10
0.10
0.11
0.12
0.14
0.17
0.20
0.24
0.27
0.32
0.36
0.40
0.45
0.50
0.54
0.59
0.65
0.70
0.76
0.83
0.90
0.97
1.06
1.15
1.26
1.38
1.51
1.66
1.83
2.02
2.22
2.45
2.71
2.99
3.30
3.64
4.01
4.42
4.86
5.34
5.85
6.41
7.00
7.64
8.31
9.04
9.80
10.61
11.46
12.36
13.31
14.31
15.37
16.50
17.68
18.92
20.18
21.42
22.57
23.54
24.24
24.52
24.28
23.42
21.85
19.57
16.60
13.00
8.92
4.53
0.04
-4.34
-8.39
-11.94
-14.84
-17.00
-18.38
-19.00
-18.92
-18.26
-17.12
-15.61
-13.87
-11.98
-9.99
-7.97
-5.90
-3.80
-1.73
0.32
2.33
4.29
6.19
8.08
10.01
12.08
14.26
16.52
18.86
21.25
23.66
26.12
28.67
31.42
34.57
38.01
41.65
45.46
49.36
53.30
57.24
61.28
65.58
70.53
75.90
81.62
87.55
93.47
99.11
104.31
109.10
113.73
118.70
123.79
128.81
133.33
136.67
137.92
136.08
130.13
118.74
105.37
91.30
77.17
63.06
48.52
32.88
15.66
-3.12
-22.76
-42.14
-60.75
-78.27
-94.82
-110.98
-127.67
-145.94
-166.75
-190.66
-217.22
-245.07
-271.07
-290.97
-300.77
-298.20
-283.76
-260.49
-232.80
-204.66
-178.77
-155.79
-135.16
-116.09
-98.40
-82.49
-68.99
-58.14
-49.63
-42.90
-37.38
-32.70
-28.82
-25.95
-24.34
-24.12
-25.20
-27.21
-29.57
-31.54
-32.34
-31.37
-28.28
-22.98
-15.58
-6.37
4.28
15.84
27.64
38.86
48.70
56.52
61.98
65.18
66.49
66.57
66.13
65.83
66.15
67.29
69.15
71.29
73.18
74.23
74.01
72.34
69.32
65.23
60.59
55.94
51.80
48.45
45.89
43.81
41.75
39.33
36.45
33.29
30.12
27.06
23.97
20.45
16.03
10.41
3.60
-4.09
-12.20
-20.28
-28.02
-35.35
-42.48
-49.89
-58.33
-68.56
-81.10
-95.81
-111.62
-126.51
-137.75
-142.56
-139.07
-127.05
-108.35
-86.45
-65.43
-48.61
-37.53
-31.74
-29.61
-29.37
-29.99
-31.28
-33.29
-35.62
-37.07
-36.14
-31.84
-24.42
-15.29
-6.40
0.77
5.71
8.78
10.54
11.08
9.81
5.68
-2.13
-13.81
-28.64
-45.08
-61.09
-74.61
-84.19
-89.42
-90.99
-90.31
-88.97
-88.00
-87.66
-87.49
-86.71
-84.57
-80.61
-74.67
-66.73
-56.86
-45.25
-32.19
-18.09
-3.24
12.20
28.18
44.58
60.95
76.62
90.79
102.85
112.51
119.87
125.27
129.16
132.00
134.14
135.77
136.90
137.27
136.46
133.99
129.60
123.42
116.06
108.37
101.13
94.72
88.94
83.26
77.08
70.09
62.47
54.70
47.43
41.22
36.42
33.15
31.29
30.48
30.07
29.29
27.42
23.99
18.91
12.42
4.97
-2.88
-10.52
-17.22
-22.13
-24.43
-23.58
-19.63
-13.29
-5.89
1.14
6.67
10.18
11.79
11.98
11.22
9.74
7.50
4.40
0.42
-4.29
-9.44
-14.71
-19.77
-24.15
-27.24
-28.30
-26.81
-22.69
-16.47
-9.10
-1.56
5.56
12.12
18.27
24.06
29.22
33.26
35.72
36.47
35.79
34.09
31.69
28.56
24.43
19.00
12.33
4.97
-2.16
-8.01
-11.76
-13.06
-12.10
-9.53
-6.22
-3.01
-0.50
1.01
1.54
1.30
0.55
-0.55
-1.89
-3.43
-5.01
-6.37
-7.12
-6.92
-5.64
-3.46
-0.88
1.55
3.35
4.37
4.74
4.77
4.70
4.59
4.32
3.67
2.53
0.93
-0.98
-3.04
-5.21
-7.57
-10.29
-13.45
-17.02
-20.75
-24.24
-27.00
-28.54
-28.44
-26.36
-22.05
-15.47
-6.80
3.54
14.84
26.30
37.07
46.44
53.86
58.99
61.68
61.93
59.96
56.22
51.41
46.36
41.82
38.29
35.84
34.21
32.91
31.47
29.55
26.96
23.63
19.62
15.03
10.07
5.01
0.05
-4.75
-9.55
-14.64
-20.21
-26.13
-31.94
-36.94
-40.45
-42.10
-41.85
-40.04
-37.09
-33.43
-29.32
-24.94
-20.45
-16.07
-12.16
-9.13
-7.33
-6.91
-7.76
-9.46
-11.44
-13.12
-14.20
-14.75
-15.16
-16.14
-18.45
-22.82
-29.62
-38.59
-48.62
-57.85
-64.14
-65.88
-62.63
-55.43
-46.34
-37.61
-30.82
-26.45
-23.98
-22.51
-21.26
-19.95
-18.62
-17.45
-16.55
-15.93
-15.63
-15.74
-16.30
-17.16
-17.93
-17.93
-16.41
-12.79
-6.94
0.75
9.44
18.10
25.84
32.15
36.99
40.64
43.48
45.78
47.64
49.09
50.20
51.18
52.31
53.81
55.75
58.03
60.42
62.64
64.40
65.35
65.20
63.70
60.87
56.95
52.48
48.08
44.29
41.41
39.39
37.99
36.85
35.66
34.24
32.57
30.75
28.97
27.39
26.08
24.94
23.77
22.26
20.08
16.99
12.85
7.76
2.00
-4.04
-10.02
-15.77
-21.39
-27.13
-33.14
-39.24
-44.79
-48.84
-50.46
-49.13
-45.01
-38.85
-31.76
-24.75
-18.52
-13.34
-9.18
-5.89
-3.30
-1.32
0.19
1.36
2.43
3.60
4.93
6.41
7.90
9.26
10.40
11.28
11.97
12.61
13.35
14.28
15.44
16.63
17.61
18.09
17.93
17.21
16.18
15.17
14.46
14.15
14.12
14.15
14.03
13.67
13.09
12.48
11.97
11.67
11.50
11.29
10.76
9.69
7.91
5.42
2.35
-1.02
-4.41
-7.55
-10.30
-12.74
-15.09
-17.67
-20.86
-24.89
-29.76
-35.12
-40.31
-44.45
-46.71
-46.60
-44.08
-39.57
-33.76
-27.38
-20.99
-14.93
-9.39
-4.49
-0.35
2.96
5.41
7.11
8.25
9.08
9.79
10.51
11.29
12.09
12.85
13.53
14.18
14.88
15.80
17.00
18.42
19.84
20.98
21.58
21.46
20.57
19.01
16.95
14.58
12.14
9.80
7.69
5.88
4.34
3.02
1.79
0.57
-0.72
-2.13
-3.66
-5.24
-6.75
-8.13
-9.31
-10.34
-11.30
-12.32
-13.51
-14.92
-16.61
-18.58
-20.83
-23.29
-25.86
-28.44
-31.00
-33.60
-36.35
-39.34
-42.44
-45.31
-47.34
-47.90
-46.50
-43.06
-37.91
-31.71
-25.31
-19.49
-14.81
-11.53
-9.66
-8.99
-9.12
-9.58
-9.88
-9.63
-8.58
-6.75
-4.33
-1.63
1.05
3.54
5.82
7.96
10.04
12.06
13.85
15.23
16.01
16.17
15.84
15.27
14.72
14.39
14.29
14.33
14.36
14.26
13.97
13.50
12.88
12.10
11.18
10.17
9.19
8.44
8.10
8.25
8.81
9.55
10.17
10.46
10.28
9.60
8.46
6.86
4.76
2.14
-0.94
-4.33
-7.77
-10.96
-13.58
-15.40
-16.26
-16.09
-14.92
-12.88
-10.20
-7.14
-4.03
-1.19
1.07
2.52
3.04
2.69
1.64
0.15
-1.49
-3.05
-4.31
-5.06
-5.16
-4.54
-3.31
-1.78
-0.32
0.70
1.12
0.94
0.39
-0.25
-0.76
-1.05
-1.16
-1.20
-1.37
-1.81
-2.60
-3.71
-5.04
-6.46
-7.84
-9.18
-10.49
-11.79
-13.12
-14.46
-15.74
-16.90
-17.86
-18.55
-18.98
-19.21
-19.38
-19.71
-20.43
-21.71
-23.49
-25.49
-27.18
-27.88
-26.96
-24.08
-19.39
-13.48
-7.30
-1.77
2.45
5.18
6.62
7.17
7.11
6.57
5.46
3.73
1.46
-1.01
-3.18
-4.58
-4.78
-3.63
-1.14
2.44
6.75
11.35
15.79
19.67
22.68
24.66
25.60
25.63
24.92
23.65
21.98
20.02
17.81
15.36
12.59
9.39
5.69
1.64
-2.37
-5.65
-7.48
-7.45
-5.67
-2.84
-0.01
1.87
2.22
1.04
-1.31
-4.37
-7.73
-11.11
-14.23
-16.72
-18.15
-18.21
-16.87
-14.47
-11.65
-9.12
-7.39
-6.65
-6.80
-7.57
-8.68
-9.91
-11.20
-12.47
-13.65
-14.64
-15.33
-15.69
-15.70
-15.41
-14.86
-14.01
-12.80
-11.16
-9.06
-6.51
-3.57
-0.40
2.67
5.19
6.66
6.71
5.33
2.90
0.11
-2.28
-3.75
-4.17
-3.75
-2.90
-1.98
-1.19
-0.57
-0.11
0.11
-0.08
-0.91
-2.53
-4.94
-7.89
-10.98
-13.65
-15.44
-16.04
-15.36
-13.57
-11.00
-8.02
-4.91
-1.86
1.06
3.77
6.14
8.02
9.22
9.67
9.41
8.69
7.81
7.08
6.67
6.63
6.89
7.31
7.74
8.04
8.11
7.84
7.17
6.06
4.54
2.72
0.76
-1.14
-2.80
-4.08
-4.90
-5.18
-4.93
-4.26
-3.42
-2.82
-2.89
-3.98
-6.25
-9.58
-13.53
-17.51
-20.89
-23.07
-23.64
-22.43
-19.55
-15.31
-10.20
-4.73
0.55
5.17
8.73
10.97
11.78
11.24
9.60
7.27
4.73
2.42
0.65
-0.40
-0.71
-0.35
0.49
1.60
2.74
3.69
4.28
4.45
4.17
3.50
2.48
1.15
-0.45
-2.21
-3.98
-5.53
-6.69
-7.41
-7.79
-8.05
-8.48
-9.29
-10.62
-12.45
-14.60
-16.74
-18.43
-19.23
-18.83
-17.17
-14.40
-10.88
-7.00
-3.13
0.47
3.64
6.20
8.02
8.98
9.04
8.25
6.79
4.93
3.03
1.44
0.42
0.11
0.43
1.14
1.84
2.22
2.11
1.54
0.72
-0.10
-0.75
-1.27
-1.83
-2.72
-4.17
-6.24
-8.83
-11.70
-14.62
-17.41
-19.98
-22.27
-24.22
-25.66
-26.39
-26.21
-24.97
-22.64
-19.28
-15.16
-10.62
-6.14
-2.22
0.55
1.72
0.95
-1.71
-5.73
-9.96
-12.83
-12.75
-8.71
-0.78
9.85
21.20
31.22
38.44
42.31
43.05
41.33
37.77
32.91
27.32
21.73
17.10
14.34
13.96
15.83
19.25
23.25
26.94
29.85
31.97
33.62
35.24
37.16
39.60
42.61
46.17
50.20
54.55
59.03
63.33
67.11
69.92
71.31
70.82
68.10
63.07
56.05
47.79
39.44
32.20
27.00
24.12
23.07
22.85
22.40
21.07
18.94
16.64
14.92
14.17
14.13
14.01
12.92
10.34
6.36
1.58
-3.23
-7.52
-11.11
-14.22
-17.25
-20.53
-24.27
-28.52
-33.25
-38.35
-43.49
-48.06
-51.17
-51.88
-49.46
-43.85
-35.77
-26.57
-17.81
-10.68
-5.63
-2.34
-0.07
1.87
3.75
5.33
6.13
5.82
4.49
2.62
0.95
0.04
0.06
0.81
1.80
2.62
3.04
3.15
3.16
3.27
3.39
3.19
2.24
0.27
-2.62
-5.94
-9.09
-11.63
-13.49
-15.05
-16.85
-19.31
-22.48
-26.02
-29.43
-32.22
-34.32
-35.94
-37.48
-39.20
-40.95
-42.18
-42.09
-39.99
-35.68
-29.53
-22.43
-15.42
-9.34
-4.64
-1.35
0.78
2.06
2.83
3.35
3.93
4.82
6.23
8.18
10.48
12.82
14.80
16.11
16.51
15.93
14.37
11.94
8.86
5.45
2.04
-0.99
-3.44
-5.16
-6.23
-6.81
-7.11
-7.36
-7.71
-8.32
-9.25
-10.50
-11.99
-13.56
-15.06
-16.39
-17.57
-18.70
-19.83
-20.92
-21.76
-22.05
-21.55
-20.19
-18.11
-15.52
-12.58
-9.28
-5.52
-1.25
3.32
7.72
11.39
13.96
15.38
15.99
16.28
16.63
17.16
17.75
18.23
18.55
18.79
19.08
19.44
19.77
19.87
19.58
18.89
17.84
16.46
14.72
12.52
9.78
6.58
3.14
-0.16
-2.96
-5.03
-6.33
-7.02
-7.40
-7.83
-8.68
-10.19
-12.52
-15.63
-19.24
-22.91
-26.04
-28.01
-28.38
-26.99
-24.09
-20.24
-16.19
-12.60
-9.87
-8.14
-7.26
-6.97
-7.00
-7.17
-7.41
-7.67
-7.91
-8.09
-8.16
-8.12
-7.97
-7.86
-7.88
-8.15
-8.74
-9.63
-10.74
-11.97
-13.29
-14.73
-16.34
-18.20
-20.24
-22.20
-23.62
-23.91
-22.49
-19.01
-13.40
-5.91
3.00
12.75
22.80
32.65
41.79
49.78
56.14
60.55
62.75
62.69
60.51
56.47
51.05
44.83
38.50
32.71
28.01
24.64
22.59
21.57
21.10
20.68
19.90
18.52
16.51
14.04
11.33
8.58
5.85
3.09
0.24
-2.69
-5.42
-7.57
-8.80
-8.94
-8.18
-6.87
-5.44
-4.17
-3.14
-2.20
-1.22
-0.13
1.01
2.02
2.70
2.96
2.92
2.82
2.98
3.55
4.43
5.27
5.65
5.21
3.93
2.02
-0.17
-2.26
-4.07
-5.56
-6.80
-7.94
-9.17
-10.71
-12.73
-15.37
-18.47
-21.65
-24.32
-25.95
-26.20
-25.12
-23.10
-20.65
-18.24
-16.07
-14.15
-12.32
-10.39
-8.35
-6.31
-4.47
-3.01
-1.94
-1.14
-0.35
0.63
1.90
3.40
5.01
6.58
8.08
9.52
10.93
12.24
13.31
13.95
14.04
13.55
12.60
11.33
9.94
8.57
7.31
6.21
5.24
4.31
3.30
2.07
0.56
-1.27
-3.33
-5.50
-7.62
-9.52
-11.14
-12.47
-13.66
-14.91
-16.44
-18.43
-20.90
-23.78
-26.86
-29.83
-32.31
-33.86
-34.05
-32.63
-29.52
-24.94
-19.41
-13.54
-7.96
-3.18
0.57
3.30
5.16
6.40
7.22
7.76
8.08
8.19
8.16
8.07
8.08
8.27
8.61
9.06
9.47
9.81
10.06
10.26
10.40
10.42
10.20
9.64
8.76
7.68
6.56
5.50
4.48
3.37
2.06
0.61
-0.81
-1.94
-2.64
-2.99
-3.23
-3.68
-4.55
-5.89
-7.61
-9.63
-11.86
-14.28
-16.77
-19.02
-20.53
-20.75
-19.36
-16.29
-11.87
-6.63
-1.10
4.23
9.04
13.05
16.05
17.87
18.57
18.42
17.99
17.87
18.54
20.17
22.52
25.18
27.70
29.94
32.02
34.28
37.05
40.45
44.29
48.18
51.63
54.30
56.03
56.87
57.07
56.99
57.00
57.41
58.30
59.42
60.10
59.36
56.17
49.72
39.76
26.66
11.26
-5.33
-22.01
-37.85
-52.14
-64.47
-74.64
-82.73
-88.94
-93.52
-96.54
-97.79
-96.86
-93.35
-87.16
-78.68
-68.86
-58.90
-49.91
-42.58
-37.07
-33.02
-29.82
-26.85
-23.64
-19.86
-15.43
-10.46
-5.34
-0.77
2.31
3.07
1.32
-2.02
-5.06
-5.44
-1.51
6.98
18.60
30.94
41.63
49.33
53.95
56.26
57.13
56.93
55.60
53.15
50.09
47.52
46.61
47.89
50.89
54.30
56.70
57.15
55.61
52.65
49.00
44.97
40.32
34.54
27.18
18.17
7.74
-3.79
-16.20
-29.31
-42.81
-56.05
-68.05
-77.88
-84.97
-89.43
-91.95
-93.53
-94.99
-96.64
-98.29
-99.43
-99.47
-98.05
-95.08
-90.67
-85.02
-78.29
-70.61
-62.11
-53.09
-44.03
-35.54
-28.23
-22.48
-18.34
-15.55
-13.72
-12.53
-12.10
-12.67
-14.34
-16.79
-19.35
-21.13
-21.32
-19.47
-15.61
-10.42
-4.67
1.02
6.42
11.41
15.88
19.79
23.18
26.37
29.44
32.76
36.90
42.50
49.76
58.15
66.68
74.03
79.07
80.06
76.60
70.20
63.74
59.55
58.28
58.86
59.29
57.73
51.01
38.01
20.85
3.55
-10.78
-21.43
-29.62
-37.10
-45.13
-57.76
-76.87
-100.34
-123.22
-141.69
-154.89
-164.32
-172.41
-181.47
-198.30
-227.92
-270.06
-319.67
-370.69
-418.53
-460.14
-493.92
-486.40
-422.99
-318.71
-207.35
-115.05
-49.36
-5.59
23.92
45.03
58.41
62.82
57.47
45.72
34.29
28.46
29.77
37.04
48.62
62.39
74.13
81.61
86.56
93.09
104.01
119.47
137.78
156.87
175.37
190.67
200.98
206.84
210.88
215.88
224.10
236.17
250.91
265.81
277.42
283.92
286.78
290.23
298.19
312.80
331.47
347.12
351.18
337.68
306.53
263.40
217.24
175.24
141.81
115.69
91.59
64.11
31.56
-3.05
-34.39
-57.04
-68.65
-67.43
-54.52
-33.42
-8.54
16.36
38.81
56.36
67.63
53.89
6.69
-67.92
-152.55
-230.07
-291.13
-330.18
-353.04
-364.76
-369.41
-367.12
-357.47
-342.01
-322.78
-301.59
-279.36
-257.16
-235.14
-213.88
-191.94
-168.22
-142.72
-116.30
-89.90
-64.03
-39.38
-15.92
6.10
27.76
49.96
72.88
96.17
119.59
143.58
168.66
195.53
223.54
251.00
274.58
290.22
294.80
287.57
270.59
247.62
222.82
199.06
177.69
158.72
141.64
126.05
111.97
99.52
88.43
78.16
67.88
57.03
45.53
33.84
22.79
13.18
5.46
-0.39
-4.92
-8.95
-13.35
-18.63
-24.91
-31.85
-38.95
-45.74
-51.87
-57.04
-60.86
-62.79
-62.25
-58.88
-52.84
-44.87
-36.20
-28.09
-21.52
-16.91
-14.15
-12.77
-12.21
-11.93
-11.56
-10.89
-9.78
-8.21
-6.25
-4.06
-1.88
0.03
1.48
2.46
3.17
3.93
5.01
6.50
8.14
9.47
9.91
9.10
6.98
3.91
0.46
-2.78
-5.38
-7.13
-8.11
-8.57
-8.85
-9.29
-10.18
-11.67
-13.85
-16.75
-20.35
-24.61
-29.29
-33.86
-37.57
-39.51
-38.96
-35.69
-30.04
-22.94
-15.50
-8.78
-3.45
0.23
2.44
3.60
4.27
4.99
6.22
8.20
10.96
14.29
17.79
20.99
23.49
25.05
25.71
25.77
25.73
26.14
27.43
29.78
33.05
36.77
40.36
43.22
44.85
45.03
43.82
41.54
38.63
35.44
32.03
28.14
23.33
17.17
9.60
0.95
-8.16
-17.04
-25.20
-32.36
-38.41
-43.13
-46.18
-47.17
-45.93
-42.66
-37.83
-32.14
-26.16
-20.29
-14.77
-9.74
-5.38
-1.94
0.49
2.11
3.43
5.08
7.57
11.02
15.26
19.81
24.11
27.87
31.14
34.37
38.15
42.78
48.14
54.07
60.11
65.79
70.85
75.44
80.04
85.23
91.13
97.31
103.65
109.78
115.26
119.82
123.38
126.04
127.94
128.76
127.86
125.71
122.50
117.72
110.49
99.88
85.99
70.61
55.91
43.77
36.61
34.80
36.10
37.00
34.02
26.06
15.41
4.92
-11.37
-34.73
-62.11
-88.40
-109.59
-125.40
-136.93
-143.70
-146.51
-147.56
-147.37
-147.97
-152.72
-164.80
-187.33
-220.57
-259.85
-300.32
-338.23
-369.92
-388.50
-391.88
-373.84
-336.49
-298.60
-266.26
-236.76
-209.37
-182.80
-156.46
-131.12
-107.42
-86.27
-66.60
-43.97
-15.53
19.07
59.23
102.50
144.28
179.38
202.52
211.30
208.47
198.32
185.39
174.02
166.70
163.14
161.37
158.46
152.71
145.06
136.80
128.73
121.41
114.81
108.30
101.23
92.95
83.53
73.99
65.19
57.51
51.10
45.85
41.41
37.43
33.64
30.02
26.85
24.28
22.15
20.14
17.84
14.90
11.18
6.87
2.41
-1.64
-4.80
-6.82
-7.79
-8.11
-8.28
-8.74
-9.67
-11.08
-12.82
-14.80
-16.98
-19.39
-21.99
-24.69
-27.39
-30.05
-32.75
-35.58
-38.45
-40.99
-42.56
-42.57
-40.76
-37.31
-32.81
-27.97
-23.32
-19.09
-15.35
-12.14
-9.63
-8.02
-7.43
-7.69
-8.34
-8.76
-8.46
-7.17
-5.02
-2.36
0.36
2.74
4.52
5.61
6.08
6.08
5.87
5.72
5.82
6.26
7.02
7.95
8.80
9.33
9.26
8.39
6.61
3.97
0.71
-2.77
-6.00
-8.64
-10.53
-11.80
-12.74
-13.61
-14.47
-15.10
-15.19
-14.45
-12.91
-10.96
-9.31
-8.72
-9.68
-12.17
-15.62
-19.06
-21.50
-22.24
-21.05
-18.27
-14.51
-10.48
-6.73
-3.59
-1.20
0.47
1.48
2.03
2.37
2.76
3.37
4.20
5.10
5.94
6.69
7.42
8.26
9.17
9.94
10.20
9.68
8.34
6.43
4.38
2.61
1.41
0.86
0.89
1.33
1.96
2.50
2.70
2.36
1.46
0.27
-0.82
-1.42
-1.37
-0.88
-0.42
-0.56
-1.63
-3.70
-6.45
-9.43
-12.18
-14.39
-15.96
-16.98
-17.72
-18.57
-19.84
-21.61
-23.55
-24.94
-24.84
-22.44
-17.42
-10.15
-1.55
7.23
15.24
21.92
27.19
31.17
34.01
35.80
36.46
36.01
34.67
32.98
31.71
31.50
32.69
35.08
38.13
41.06
43.27
44.50
44.94
45.00
45.04
45.36
46.11
47.48
49.31
51.33
53.25
54.98
56.66
58.56
61.13
64.68
69.49
75.08
80.66
85.28
88.40
89.91
89.71
87.66
82.55
72.90
56.63
32.35
-0.24
-39.23
-80.76
-120.06
-152.11
-174.49
-182.53
-173.52
-149.21
-117.22
-86.52
-62.82
-47.21
-36.72
-29.30
-23.84
-20.95
-22.63
-32.34
-52.95
-85.81
-130.50
-183.80
-244.08
-304.65
-358.07
-387.93
-382.77
-342.65
-280.27
-222.46
-175.98
-140.68
-112.97
-88.03
-63.74
-40.67
-20.00
-1.59
16.67
39.35
67.78
100.92
135.31
166.34
188.79
199.30
197.64
186.78
172.56
159.02
148.79
142.87
140.88
140.91
140.72
138.61
133.94
127.72
120.23
111.68
102.24
92.12
81.35
70.09
58.79
48.29
39.82
33.66
29.52
26.76
24.65
22.52
19.96
16.90
13.58
10.39
7.40
4.55
1.75
-0.96
-3.40
-5.31
-6.56
-7.27
-7.80
-8.65
-10.19
-12.50
-15.35
-18.30
-20.91
-22.94
-24.36
-25.38
-26.37
-27.70
-29.68
-32.40
-35.63
-38.75
-40.90
-41.25
-39.28
-35.08
-29.27
-22.87
-16.85
-11.81
-7.92
-4.92
-2.41
-0.09
2.09
3.98
5.42
6.35
6.89
7.32
7.90
8.71
9.65
10.50
11.05
11.31
11.43
11.65
12.11
12.73
13.23
13.28
12.68
11.46
9.91
8.37
7.08
6.07
5.19
4.15
2.79
1.08
-0.84
-2.68
-4.22
-5.27
-5.85
-6.13
-6.41
-7.10
-8.57
-11.08
-14.59
-18.68
-22.59
-25.45
-26.59
-25.74
-23.17
-19.50
-15.51
-11.80
-8.69
-6.13
-3.86
-1.60
0.91
3.70
6.60
9.27
11.39
12.80
13.72
14.70
16.27
18.72
21.73
24.49
26.03
25.73
23.61
20.39
17.02
14.27
12.41
11.20
10.20
9.15
8.07
7.19
6.67
6.42
6.11
5.35
3.93
1.96
-0.29
-2.60
-4.97
-7.63
-10.83
-14.65
-18.89
-23.12
-26.90
-29.94
-32.15
-33.57
-34.23
-34.09
-33.09
-31.17
-28.37
-24.86
-20.93
-16.97
-13.39
-10.54
-8.57
-7.33
-6.43
-5.36
-3.74
-1.44
1.33
4.25
7.01
9.50
11.76
13.92
16.13
18.54
21.33
24.59
28.27
31.90
34.64
35.42
33.34
28.16
20.57
12.07
4.52
-0.58
-2.69
-2.35
-0.86
0.37
0.53
-0.40
-1.79
-2.91
-3.35
-3.29
-3.23
-3.71
-5.01
-7.10
-9.75
-12.69
-15.66
-18.34
-20.31
-21.11
-20.26
-17.57
-13.13
-7.49
-1.55
3.56
6.81
7.56
5.92
2.70
-0.85
-3.50
-4.55
-3.89
-1.86
1.09
4.66
8.69
12.96
17.05
20.39
22.47
23.17
22.77
21.84
20.88
20.11
19.41
18.50
17.19
15.46
13.52
11.67
10.13
8.97
8.11
7.33
6.38
5.05
3.18
0.76
-2.12
-5.28
-8.50
-11.62
-14.52
-17.17
-19.63
-22.00
-24.41
-27.01
-29.94
-33.31
-37.15
-41.33
-45.52
-49.17
-51.62
-52.33
-50.97
-47.56
-42.35
-35.72
-28.08
-19.81
-11.30
-3.01
4.65
11.36
17.02
21.70
25.54
28.64
31.01
32.66
33.67
34.23
34.55
34.71
34.65
34.15
33.06
31.35
29.24
27.02
24.97
23.28
21.96
20.88
19.92
18.92
17.75
16.30
14.53
12.46
10.25
8.08
6.15
4.55
3.28
2.22
1.20
0.09
-1.18
-2.56
-3.94
-5.23
-6.45
-7.73
-9.31
-11.37
-14.02
-17.11
-20.30
-23.18
-25.33
-26.53
-26.73
-26.06
-24.71
-22.90
-20.89
-19.08
-17.96
-18.01
-19.56
-22.62
-26.88
-31.84
-36.89
-41.44
-45.00
-47.24
-48.03
-47.55
-46.20
-44.57
-43.22
-42.52
-42.45
-42.60
-42.31
-40.83
-37.58
-32.28
-24.99
-16.09
-6.01
4.74
15.65
26.12
35.33
42.36
46.35
46.73
43.47
37.02
28.27
18.38
8.73
0.83
-3.85
-4.28
-0.23
7.48
17.15
26.70
34.34
39.01
40.54
39.43
36.50
32.60
28.44
24.42
20.68
17.09
13.39
9.43
5.31
1.42
-1.69
-3.48
-3.60
-1.86
1.85
7.53
14.99
23.61
32.33
39.81
44.94
47.34
47.49
46.48
45.40
44.86
44.81
44.86
44.71
44.51
44.76
45.94
48.15
51.02
53.95
56.48
58.67
60.96
63.85
67.36
70.82
72.98
72.44
68.22
60.02
48.34
34.23
18.96
3.71
-10.60
-23.41
-34.42
-43.44
-50.26
-54.64
-56.38
-55.50
-52.40
-47.81
-42.66
-37.74
-33.51
-30.01
-27.02
-24.27
-21.69
-19.29
-17.10
-15.02
-12.75
-9.99
-6.61
-2.79
1.04
4.30
6.47
7.23
6.48
4.29
0.82
-3.68
-9.01
-14.95
-21.31
-27.94
-34.64
-41.21
-47.40
-53.02
-57.96
-62.25
-66.10
-69.80
-73.59
-77.48
-81.19
-84.15
-85.71
-85.33
-82.77
-78.22
-72.19
-65.34
-58.28
-51.52
-45.47
-40.55
-37.25
-35.88
-36.47
-38.66
-41.90
-45.65
-49.64
-53.71
-57.41
-59.47
-57.77
-49.97
-34.66
-12.49
13.60
39.22
60.17
73.98
80.64
82.06
80.79
78.78
76.77
74.49
71.48
67.74
63.91
60.88
59.23
58.77
58.66
57.87
55.70
52.17
48.06
44.53
42.53
42.38
43.59
45.15
45.99
45.47
43.68
41.25
39.00
37.52
36.90
36.71
36.29
35.03
32.65
29.32
25.60
22.21
19.80
18.75
19.01
20.12
21.42
22.30
22.41
21.71
20.49
19.12
18.00
17.47
17.76
18.97
20.97
23.38
25.66
27.28
28.02
27.92
27.31
26.42
25.18
23.18
19.84
14.66
7.53
-1.17
-10.67
-19.90
-27.74
-33.17
-35.54
-34.79
-31.46
-26.57
-21.24
-16.31
-12.09
-8.36
-4.68
-0.71
3.57
7.91
12.00
15.72
19.15
22.55
25.99
29.26
31.85
33.20
33.01
31.36
28.67
25.41
21.91
18.23
14.34
10.34
6.53
3.35
1.04
-0.68
-2.57
-5.68
-10.74
-17.78
-25.88
-33.46
-38.92
-41.20
-40.34
-37.34
-33.95
-32.11
-33.39
-38.40
-46.45
-55.38
-62.02
-62.99
-55.94
-40.36
-17.86
8.42
34.85
58.43
77.32
90.85
98.95
101.81
99.72
93.29
83.61
72.08
60.04
48.38
37.32
26.61
15.82
4.75
-6.40
-17.11
-26.82
-35.07
-41.68
-46.77
-50.66
-53.69
-56.14
-58.12
-59.57
-60.34
-60.31
-59.51
-58.13
-56.45
-54.66
-52.85
-50.89
-48.62
-45.99
-43.03
-39.88
-36.72
-33.69
-30.84
-28.25
-25.97
-24.07
-22.54
-21.28
-20.11
-18.84
-17.38
-15.75
-14.08
-12.50
-11.10
-9.86
-8.65
-7.29
-5.58
-3.37
-0.64
2.53
5.83
8.86
11.12
12.18
11.83
10.16
7.61
4.75
2.12
-0.02
-1.73
-3.37
-5.32
-7.83
-10.94
-14.47
-18.16
-21.75
-24.94
-27.41
-28.79
-28.72
-27.04
-23.89
-19.68
-14.99
-10.41
-6.39
-3.24
-1.18
-0.33
-0.74
-2.25
-4.47
-6.81
-8.72
-9.91
-10.42
-10.60
-10.99
-12.02
-13.94
-16.74
-20.19
-23.86
-27.09
-29.15
-29.49
-28.24
-26.40
-25.75
-28.10
-34.35
-43.84
-54.35
-62.91
-66.92
-65.13
-57.97
-47.18
-35.03
-23.64
-14.48
-8.31
-5.21
-4.67
-5.66
-6.82
-6.81
-4.70
-0.23
6.15
13.51
20.77
27.05
31.87
35.19
37.31
38.70
39.81
40.99
42.45
44.29
46.57
49.26
52.31
55.59
58.93
62.11
64.84
66.86
67.95
68.00
67.01
65.08
62.35
58.87
54.60
49.37
43.01
35.44
26.83
17.68
8.72
0.87
-5.04
-8.41
-9.11
-7.50
-4.42
-0.98
1.70
2.82
2.04
-0.39
-3.74
-7.02
-9.29
-9.83
-8.27
-4.54
1.22
8.74
17.55
26.88
35.50
41.93
44.67
42.72
35.90
25.09
11.98
-1.31
-12.74
-20.84
-24.91
-25.07
-22.06
-16.98
-10.96
-4.94
0.47
4.96
8.50
11.21
13.33
15.20
17.16
19.45
22.13
24.93
27.37
28.86
28.96
27.60
25.13
22.15
19.34
17.11
15.46
13.96
11.96
8.86
4.37
-1.28
-7.43
-13.18
-17.71
-20.56
-21.76
-21.65
-20.75
-19.42
-17.83
-15.99
-13.90
-11.74
-9.82
-8.51
-8.01
-8.25
-8.89
-9.54
-9.86
-9.74
-9.26
-8.61
-7.97
-7.44
-7.03
-6.72
-6.54
-6.53
-6.84
-7.59
-8.91
-10.93
-13.85
-17.90
-23.33
-30.24
-38.38
-47.12
-55.49
-62.50
-67.50
-70.44
-71.88
-72.87
-74.57
-77.83
-83.00
-89.79
-97.41
-104.83
-111.02
-115.21
-117.03
-116.58
-114.31
-110.88
-106.89
-102.60
-97.69
-91.25
-81.99
-68.76
-51.18
-30.00
-7.07
15.13
34.28
48.88
58.52
63.76
65.68
65.39
63.68
60.99
57.58
53.76
50.18
47.72
47.32
49.52
54.14
60.15
66.05
70.31
71.94
70.75
67.30
62.66
58.21
55.39
55.62
60.02
68.98
81.88
96.86
111.26
122.51
129.13
131.43
131.41
131.88
135.15
141.81
150.32
157.37
159.11
152.40
135.74
109.59
76.10
38.59
0.84
-33.60
-62.07
-83.35
-97.66
-106.28
-110.67
-111.88
-110.34
-106.21
-99.95
-92.47
-84.77
-77.27
-69.36
-59.69
-47.09
-31.34
-13.58
4.05
19.17
29.84
35.08
34.85
29.81
20.83
8.75
-5.90
-22.75
-41.28
-60.44
-78.45
-92.97
-101.71
-103.14
-97.04
-84.49
-67.50
-48.34
-29.05
-11.19
4.34
17.22
27.65
36.16
43.28
49.34
54.35
58.16
60.63
61.76
61.72
60.70
58.78
55.90
51.96
46.98
41.21
35.12
29.29
24.24
20.25
17.26
14.83
12.26
8.73
3.58
-3.47
-12.17
-21.74
-31.03
-38.93
-44.88
-49.15
-52.80
-57.16
-63.08
-70.29
-77.44
-82.57
-83.96
-80.91
-73.91
-64.38
-54.18
-45.37
-40.08
-40.23
-46.82
-59.07
-73.88
-86.41
-91.64
-86.31
-70.21
-46.03
-17.91
10.40
36.72
60.56
82.21
101.70
118.36
131.11
139.12
142.33
141.38
137.08
129.83
119.39
105.12
86.65
64.66
40.90
17.84
-2.37
-18.76
-31.72
-42.43
-52.02
-60.83
-68.44
-74.26
-78.23
-80.94
-83.21
-85.30
-86.56
-85.80
-82.25
-76.36
-69.80
-64.61
-61.97
-61.48
-61.39
-59.64
-55.09
-48.17
-40.50
-33.98
-29.78
-27.89
-27.30
-26.79
-25.54
-23.40
-20.68
-17.69
-14.44
-10.72
-6.41
-1.80
2.27
4.72
4.66
1.92
-2.86
-8.36
-13.13
-16.06
-16.76
-15.53
-13.02
-9.94
-6.74
-3.57
-0.34
3.19
7.24
11.93
17.10
22.31
26.88
30.15
31.77
31.93
31.38
31.07
31.76
33.60
36.16
38.69
40.56
41.59
42.15
42.86
44.21
46.20
48.36
49.88
49.99
48.37
45.35
41.92
39.54
39.59
42.80
48.92
56.56
63.65
68.04
68.26
64.06
56.67
48.57
42.86
42.43
48.79
61.28
76.65
89.87
95.59
90.29
73.72
49.12
21.95
-2.33
-20.36
-31.62
-37.81
-41.39
-44.06
-46.21
-47.36
-47.07
-45.64
-44.04
-43.38
-44.14
-45.82
-47.26
-47.19
-44.91
-40.58
-35.09
-29.63
-25.16
-22.01
-19.76
-17.43
-13.89
-8.31
-0.50
9.11
19.76
30.79
42.02
53.85
67.17
82.90
101.57
123.02
146.24
169.62
191.28
209.61
223.62
233.15
238.75
241.39
242.14
241.85
241.01
239.63
237.13
232.38
224.05
211.15
193.65
172.77
150.78
130.19
112.91
99.55
89.44
81.09
73.03
64.28
54.43
43.36
30.87
16.47
-0.46
-20.37
-43.32
-68.96
-96.45
-124.69
-152.35
-178.06
-200.69
-219.62
-235.05
-247.92
-259.56
-271.02
-282.60
-293.63
-302.93
-309.35
-312.55
-313.19
-312.68
-312.62
-314.24
-318.05
-323.74
-330.36
-336.40
-340.05
-339.57
-333.65
-321.92
-305.25
-285.73
-266.38
-250.37
-240.25
-237.14
-240.46
-247.93
-256.10
-261.08
-259.25
-247.92
-225.73
-192.87
-151.05
-103.25
-53.12
-4.36
40.08
78.53
110.82
138.19
163.02
188.48
217.87
253.53
295.49
340.28
381.09
409.32
417.47
401.77
363.60
308.77
245.25
180.49
119.80
66.15
21.07
-14.39
-39.38
-53.71
-58.31
-55.31
-47.38
-36.88
-25.35
-13.55
-1.74
9.90
21.08
31.49
40.89
49.09
55.93
61.19
64.63
66.20
66.04
64.61
62.37
59.76
57.04
54.40
52.02
50.10
48.89
48.52
48.89
49.63
50.07
49.38
46.84
42.15
35.64
28.23
21.07
15.18
11.03
8.46
6.94
5.90
5.00
4.18
3.45
2.70
1.57
-0.36
-3.34
-7.25
-11.61
-15.75
-18.96
-20.79
-21.05
-19.93
-17.81
-15.22
-12.59
-10.15
-7.86
-5.48
-2.65
0.84
4.94
9.30
13.33
16.39
18.04
18.11
16.82
14.73
12.59
11.13
10.84
11.76
13.52
15.45
16.85
17.27
16.66
15.32
13.72
12.27
11.14
10.21
9.21
7.95
6.44
4.83
3.31
1.85
0.23
-1.86
-4.54
-7.57
-10.36
-12.28
-12.95
-12.48
-11.37
-10.18
-9.27
-8.65
-8.09
-7.34
-6.27
-4.84
-3.06
-0.93
1.55
4.25
6.97
9.44
11.48
13.02
14.09
14.66
14.61
13.74
11.97
9.44
6.60
4.08
2.50
2.31
3.71
6.55
10.27
14.00
16.74
17.76
16.89
14.65
12.08
10.32
10.20
12.11
16.19
22.46
30.99
41.72
54.17
67.33
79.85
90.55
98.95
105.57
111.73
119.04
128.64
140.51
153.12
163.59
168.39
164.47
150.31
126.49
95.45
60.50
24.49
-11.17
-46.91
-84.47
-125.90
-172.22
-222.45
-273.33
-319.96
-357.19
-381.27
-391.07
-388.32
-376.73
-360.45
-342.59
-324.52
-306.04
-286.22
-264.10
-239.15
-211.25
-180.60
-147.84
-114.14
-81.31
-51.41
-26.20
-6.61
7.65
17.93
26.14
34.06
42.84
52.63
62.70
71.71
78.30
81.50
81.15
77.82
72.61
66.68
61.03
56.29
52.75
50.50
49.40
49.12
49.18
49.12
48.64
47.72
46.57
45.48
44.55
43.67
42.67
41.53
40.60
40.55
42.15
45.83
51.56
58.72
66.33
73.33
78.84
82.31
83.47
82.33
79.04
73.97
67.65
60.79
54.16
48.36
43.73
40.20
37.42
34.84
31.96
28.36
23.83
18.37
12.21
5.81
-0.15
-4.99
-8.20
-9.63
-9.56
-8.53
-7.03
-5.34
-3.37
-0.91
2.15
5.62
9.09
12.17
14.81
17.41
20.54
24.69
29.88
35.63
41.29
46.40
51.04
55.79
61.23
67.47
73.82
78.99
81.77
81.60
78.73
73.93
67.87
60.91
53.27
45.49
38.76
34.70
34.66
39.01
46.86
56.54
66.41
75.64
84.26
92.68
100.84
107.61
110.96
108.65
99.36
83.63
64.09
44.70
29.15
19.10
13.19
7.52
-2.52
-19.95
-44.61
-73.21
-100.99
-123.99
-140.88
-153.22
-164.34
-177.52
-194.49
-214.68
-235.45
-252.82
-262.50
-260.95
-246.20
-218.47
-180.16
-135.39
-88.99
-45.36
-7.29
24.64
52.07
78.14
106.19
138.30
174.16
210.91
243.96
268.67
282.12
284.10
277.14
265.23
252.23
240.44
230.30
220.97
211.38
200.93
189.76
178.22
166.28
153.34
138.47
121.06
101.28
80.13
58.91
38.58
19.35
0.69
-18.22
-38.04
-58.97
-80.58
-101.73
-120.65
-135.27
-143.81
-145.58
-141.23
-132.62
-121.93
-110.79
-99.82
-88.86
-77.75
-67.00
-57.95
-52.15
-50.60
-53.20
-58.84
-65.98
-73.31
-80.06
-85.97
-90.96
-94.87
-97.44
-98.39
-97.56
-95.05
-91.13
-86.23
-80.86
-75.45
-70.26
-65.20
-59.87
-53.69
-46.35
-37.97
-29.15
-20.78
-13.63
-8.05
-4.05
-1.43
-0.13
-0.29
-2.13
-5.70
-10.66
-16.31
-21.79
-26.42
-29.93
-32.48
-34.46
-36.15
-37.55
-38.43
-38.52
-37.77
-36.51
-35.24
-34.44
-34.30
-34.62
-35.01
-35.07
-34.62
-33.76
-32.66
-31.39
-29.79
-27.51
-24.11
-19.36
-13.31
-6.43
0.50
6.56
10.93
13.16
13.25
11.54
8.50
4.55
-0.12
-5.55
-11.92
-19.37
-27.94
-37.36
-46.95
-55.65
-62.16
-65.27
-64.06
-58.34
-48.74
-36.65
-23.97
-12.56
-3.85
1.51
3.71
3.48
1.87
-0.09
-1.57
-2.06
-1.34
0.49
3.07
5.87
8.31
9.97
10.77
10.97
11.10
11.72
13.20
15.67
18.90
22.40
25.54
27.77
28.78
28.63
27.73
26.66
25.94
25.90
26.54
27.63
28.83
29.77
30.12
29.63
28.10
25.48
21.87
17.55
12.93
8.40
4.24
0.48
-3.05
-6.60
-10.36
-14.29
-18.06
-21.19
-23.14
-23.49
-22.10
-19.10
-14.85
-9.89
-4.76
0.02
4.15
7.46
10.01
11.89
13.21
14.02
14.35
14.26
13.86
13.32
12.76
12.26
11.80
11.38
10.97
10.61
10.31
9.99
9.52
8.75
7.61
6.17
4.54
2.86
1.13
-0.71
-2.83
-5.28
-8.04
-10.95
-13.83
-16.58
-19.19
-21.77
-24.39
-27.03
-29.51
-31.48
-32.55
-32.43
-31.06
-28.69
-25.80
-22.89
-20.42
-18.62
-17.56
-17.12
-17.07
-17.15
-16.96
-16.08
-14.13
-10.84
-6.24
-0.70
5.17
10.66
15.22
18.55
20.56
21.36
21.08
19.83
17.75
15.14
12.42
10.07
8.48
7.78
7.84
8.30
8.78
8.88
8.33
6.96
4.76
1.87
-1.39
-4.53
-7.00
-8.35
-8.25
-6.53
-3.13
1.91
8.46
16.07
24.02
31.33
37.06
40.62
42.00
41.79
40.92
40.24
40.22
40.74
41.28
41.16
39.84
37.10
32.96
27.59
21.25
14.16
6.59
-1.08
-8.30
-14.47
-19.02
-21.67
-22.60
-22.37
-21.68
-20.98
-20.18
-18.67
-15.65
-10.61
-3.71
4.20
11.90
18.27
22.80
25.60
27.41
29.20
31.93
36.33
42.71
50.90
60.34
70.16
79.40
87.31
93.36
97.36
99.53
100.48
101.01
101.56
101.52
98.74
89.78
71.19
41.29
1.52
-43.39
-86.85
-122.71
-147.37
-160.61
-164.89
-163.75
-160.15
-155.68
-150.65
-144.80
-137.83
-129.59
-120.03
-108.98
-96.22
-81.67
-65.72
-49.30
-33.70
-20.24
-9.88
-2.91
1.09
3.08
4.25
5.72
8.23
11.99
16.68
21.56
25.76
28.54
29.55
28.96
27.34
25.47
24.05
23.43
23.59
24.17
24.72
24.91
24.76
24.53
24.58
25.12
25.89
26.33
25.71
23.48
19.50
14.06
7.67
0.82
-6.13
-12.98
-19.48
-25.27
-29.86
-32.76
-33.70
-32.70
-30.11
-26.47
-22.44
-18.62
-15.53
-13.59
-13.03
-13.96
-16.30
-19.85
-24.25
-29.11
-34.06
-38.87
-43.49
-48.00
-52.64
-57.68
-63.38
-69.84
-77.03
-84.65
-92.21
-99.11
-104.66
-108.29
-109.57
-108.34
-104.64
-98.85
-91.61
-83.88
-76.86
-71.75
-69.51
-70.57
-74.70
-81.02
-88.24
-95.01
-100.28
-103.58
-104.96
-104.78
-103.22
-100.02
-94.34
-85.10
-71.50
-53.55
-32.24
-9.21
13.72
35.34
55.29
74.16
93.25
114.16
138.27
166.01
196.44
227.01
254.05
273.74
283.23
281.49
269.43
249.39
224.17
196.45
168.35
141.61
117.66
97.57
81.77
69.87
60.63
52.47
43.96
34.32
23.54
12.22
1.22
-8.61
-16.70
-22.75
-26.75
-28.89
-29.53
-29.13
-28.17
-27.15
-26.52
-26.69
-27.96
-30.50
-34.21
-38.70
-43.21
-46.87
-48.98
-49.28
-48.04
-45.94
-43.67
-41.56
-39.47
-36.90
-33.30
-28.32
-21.90
-14.17
-5.43
3.88
13.05
21.08
26.90
29.75
29.65
27.42
24.48
22.25
21.66
22.83
25.14
27.45
28.55
27.56
24.20
18.93
12.95
7.79
5.00
5.67
10.12
17.79
27.55
38.02
48.11
57.10
64.56
70.20
73.59
74.31
72.12
67.24
60.46
53.03
46.22
41.00
37.82
36.75
37.77
40.97
46.55
54.54
64.49
75.41
85.98
94.87
101.12
104.32
104.58
102.50
99.06
95.55
93.19
92.82
94.42
97.13
99.50
100.16
98.36
94.41
89.50
85.31
83.52
85.46
91.89
103.02
118.53
137.60
159.00
181.11
202.00
219.54
231.62
236.53
233.42
222.66
205.84
185.37
163.63
142.32
122.07
102.56
83.05
62.84
41.43
18.52
-6.11
-32.65
-60.86
-89.86
-118.10
-143.65
-164.82
-180.71
-191.55
-198.41
-202.68
-205.48
-207.35
-208.23
-207.75
-205.62
-201.80
-196.66
-190.72
-184.47
-178.10
-171.36
-163.62
-154.06
-142.16
-127.89
-111.89
-95.16
-78.80
-63.64
-50.29
-39.18
-30.76
-25.51
-23.68
-24.98
-28.51
-32.93
-36.94
-39.77
-41.44
-42.49
-43.68
-45.42
-47.66
-49.94
-51.71
-52.63
-52.70
-52.17
-51.38
-50.58
-49.84
-49.16
-48.55
-48.09
-48.02
-48.62
-50.15
-52.67
-55.97
-59.49
-62.47
-64.23
-64.40
-63.10
-60.85
-58.32
-55.99
-53.94
-51.85
-49.17
-45.35
-39.95
-32.61
-22.96
-10.64
4.61
22.83
43.71
66.71
91.06
115.87
140.05
162.16
180.38
192.75
197.56
193.88
181.86
162.79
138.72
112.06
85.06
59.55
36.72
17.16
0.86
-12.60
-23.89
-33.67
-42.37
-50.13
-56.84
-62.30
-66.29
-68.64
-69.23
-67.98
-64.92
-60.33
-54.81
-49.21
-44.42
-41.01
-39.02
-38.00
-37.27
-36.21
-34.55
-32.42
-30.15
-28.04
-26.28
-25.01
-24.46
-24.91
-26.36
-28.15
-28.83
-26.66
-20.39
-10.20
2.08
13.51
21.12
23.04
19.05
10.45
-0.65
-11.96
-21.28
-26.44
-25.36
-16.57
0.02
22.51
47.20
69.66
86.23
95.25
97.31
94.38
88.53
80.84
71.27
59.39
45.39
30.72
17.75
8.79
5.06
6.10
10.06
14.41
16.93
16.41
12.76
6.76
-0.45
-7.80
-14.72
-21.18
-27.66
-34.85
-43.21
-52.66
-62.32
-70.56
-75.35
-74.79
-67.80
-54.54
-36.47
-16.08
3.75
20.38
31.99
37.90
38.63
35.70
31.15
26.96
24.51
24.35
26.26
29.58
33.57
37.60
41.08
43.37
43.72
41.57
36.81
30.05
22.53
15.52
9.72
4.87
-0.05
-6.29
-14.53
-24.49
-35.03
-44.69
-52.31
-57.46
-60.46
-62.11
-63.16
-64.00
-64.53
-64.26
-62.64
-59.33
-54.38
-48.30
-41.95
-36.20
-31.63
-28.35
-26.01
-24.02
-21.91
-19.52
-17.00
-14.60
-12.47
-10.62
-8.94
-7.41
-6.14
-5.45
-5.61
-6.82
-9.05
-12.07
-15.52
-19.00
-22.13
-24.55
-25.99
-26.23
-25.15
-22.69
-18.94
-14.12
-8.68
-3.22
1.60
5.23
7.44
8.30
8.09
6.99
4.96
1.68
-3.15
-9.45
-16.52
-23.04
-27.65
-29.49
-28.82
-27.00
-25.90
-27.05
-30.64
-35.19
-37.97
-36.06
-27.48
-11.92
9.39
34.25
60.06
84.14
103.75
116.20
119.28
112.09
95.77
73.56
49.84
28.67
12.35
0.95
-7.07
-13.54
-19.21
-23.42
-24.65
-21.70
-14.69
-5.31
3.74
9.91
11.67
9.06
3.35
-3.70
-10.48
-16.07
-20.14
-22.71
-23.85
-23.51
-21.57
-18.06
-13.27
-7.91
-2.96
0.55
1.91
1.13
-1.00
-3.20
-4.19
-3.38
-1.07
1.70
3.70
4.14
2.99
0.75
-1.87
-4.46
-6.96
-9.44
-11.71
-13.16
-12.94
-10.37
-5.43
1.17
8.14
14.11
18.11
19.77
19.31
17.30
14.30
10.74
6.79
2.62
-1.54
-5.20
-7.76
-8.61
-7.40
-4.19
0.59
6.26
12.14
17.61
22.19
25.45
27.00
26.52
23.87
19.20
12.95
5.81
-1.39
-7.93
-13.30
-17.28
-19.86
-21.13
-21.22
-20.25
-18.32
-15.59
-12.38
-9.08
-6.15
-3.91
-2.48
-1.69
-1.22
-0.71
0.10
1.36
3.12
5.42
8.30
11.73
15.55
19.40
22.84
25.48
27.18
28.18
28.99
30.17
32.06
34.49
36.73
37.74
36.56
32.71
26.46
18.73
10.75
3.63
-2.03
-6.15
-9.01
-10.93
-12.13
-12.65
-12.52
-11.94
-11.31
-11.16
-11.97
-14.00
-17.29
-21.52
-26.13
-30.32
-33.33
-34.51
-33.58
-30.65
-26.17
-20.77
-15.04
-9.50
-4.47
-0.14
3.35
5.95
7.70
8.73
9.20
9.35
9.38
9.41
9.59
10.05
10.93
12.30
14.08
16.06
17.94
19.35
20.01
19.82
18.78
17.03
14.76
12.14
9.31
6.44
3.67
1.15
-1.08
-3.04
-4.87
-6.73
-8.72
-10.88
-13.10
-15.21
-17.04
-18.53
-19.77
-21.01
-22.58
-24.73
-27.46
-30.50
-33.26
-35.04
-35.16
-33.27
-29.42
-24.08
-17.95
-11.79
-6.20
-1.48
2.29
5.22
7.46
9.11
10.20
10.77
10.89
10.73
10.51
10.49
10.88
11.73
12.96
14.37
15.69
16.68
17.24
17.40
17.27
16.99
16.68
16.34
16.00
15.62
15.21
14.75
14.22
13.54
12.62
11.39
9.84
8.05
6.09
4.06
1.98
-0.12
-2.25
-4.38
-6.53
-8.70
-10.94
-13.27
-15.72
-18.35
-21.25
-24.43
-27.75
-30.83
-33.05
-33.72
-32.38
-29.01
-24.07
-18.28
-12.42
-7.00
-2.21
1.99
5.68
8.80
11.23
12.87
13.77
14.17
14.45
14.93
15.77
16.89
18.08
19.11
19.88
20.46
21.07
21.92
23.09
24.41
25.56
26.23
26.20
25.46
24.17
22.56
20.84
19.12
17.46
15.83
14.22
12.62
11.05
9.53
8.08
6.70
5.33
3.92
2.44
0.93
-0.49
-1.67
-2.56
-3.25
-3.99
-5.10
-6.77
-9.05
-11.75
-14.60
-17.40
-20.07
-22.72
-25.47
-28.43
-31.52
-34.55
-37.15
-38.87
-39.27
-37.98
-34.85
-29.98
-23.90
-17.31
-11.03
-5.62
-1.31
2.02
4.67
6.97
9.03
10.81
12.26
13.39
14.33
15.31
16.49
17.93
19.51
21.03
22.32
23.27
23.91
24.36
24.76
25.26
25.97
26.85
27.81
28.54
28.71
28.01
26.29
23.66
20.39
16.88
13.46
10.34
7.55
5.07
2.86
0.96
-0.56
-1.71
-2.55
-3.26
-3.99
-4.87
-5.94
-7.16
-8.45
-9.71
-10.83
-11.77
-12.55
-13.29
-14.15
-15.30
-16.81
-18.61
-20.54
-22.43
-24.24
-26.12
-28.35
-31.12
-34.31
-37.36
-39.43
-39.64
-37.50
-33.06
-26.99
-20.28
-13.83
-8.21
-3.53
0.42
3.91
7.07
9.80
11.85
13.07
13.48
13.33
12.98
12.73
12.75
13.01
13.42
13.87
14.41
15.06
15.86
16.76
17.59
18.19
18.44
18.36
17.98
17.41
16.68
15.83
14.86
13.83
12.81
11.85
10.92
9.97
8.93
7.81
6.67
5.61
4.70
3.93
3.23
2.52
1.73
0.87
-0.05
-1.05
-2.24
-3.75
-5.61
-7.73
-9.90
-11.94
-13.75
-15.37
-16.94
-18.61
-20.48
-22.59
-24.93
-27.45
-30.01
-32.29
-33.84
-34.08
-32.54
-29.05
-23.86
-17.60
-11.11
-5.21
-0.46
2.93
5.13
6.55
7.64
8.69
9.81
10.92
11.86
12.57
13.05
13.43
13.84
14.42
15.25
16.35
17.68
19.10
20.48
21.62
22.39
22.72
22.61
22.15
21.41
20.52
19.54
18.55
17.56
16.51
15.30
13.81
12.08
10.25
8.59
7.35
6.68
6.50
6.59
6.65
6.33
5.36
3.48
0.61
-3.18
-7.64
-12.37
-17.05
-21.49
-25.77
-30.04
-34.39
-38.64
-42.33
-44.78
-45.42
-43.87
-40.13
-34.57
-27.87
-20.90
-14.51
-9.31
-5.60
-3.22
-1.78
-0.80
0.06
0.90
1.63
2.13
2.32
2.22
1.92
1.54
1.26
1.26
1.72
2.69
4.04
5.49
6.68
7.41
7.65
7.56
7.33
7.00
6.43
5.38
3.68
1.37
-1.26
-3.86
-6.14
-8.07
-9.83
-11.69
-13.89
-16.44
-19.22
-21.87
-23.99
-25.16
-25.10
-23.71
-21.08
-17.54
-13.45
-9.20
-5.03
-1.13
2.33
5.11
6.97
7.71
7.34
6.14
4.57
3.10
2.00
1.30
0.85
0.53
0.33
0.38
0.82
1.66
2.66
3.45
3.70
3.21
2.02
0.35
-1.54
-3.41
-5.17
-6.87
-8.65
-10.71
-13.20
-16.12
-19.27
-22.18
-24.23
-24.77
-23.34
-19.80
-14.48
-8.04
-1.33
4.86
10.03
14.03
16.93
18.87
19.86
19.79
18.52
16.10
12.89
9.53
6.71
4.89
4.18
4.26
4.64
4.85
4.59
3.81
2.53
0.86
-1.17
-3.59
-6.44
-9.72
-13.38
-17.31
-21.26
-24.87
-27.61
-28.99
-28.60
-26.39
-22.67
-18.01
-13.04
-8.27
-3.96
-0.15
3.16
5.97
8.19
9.72
10.50
10.64
10.30
9.70
9.04
8.48
8.11
8.00
8.15
8.49
8.91
9.24
9.31
8.93
7.95
6.24
3.66
0.21
-4.03
-8.71
-13.32
-17.19
-19.66
-20.33
-19.12
-16.38
-12.68
-8.68
-4.83
-1.37
1.71
4.48
6.90
8.78
9.90
10.14
9.60
8.59
7.53
6.79
6.51
6.60
6.77
6.73
6.28
5.41
4.24
2.98
1.75
0.56
-0.74
-2.31
-4.35
-6.92
-10.03
-13.62
-17.56
-21.57
-25.19
-27.84
-28.88
-27.95
-25.05
-20.61
-15.32
-9.83
-4.59
0.27
4.83
9.17
13.21
16.72
19.35
20.84
21.18
20.60
19.55
18.50
17.77
17.43
17.32
17.19
16.81
16.13
15.24
14.22
13.07
11.60
9.57
6.83
3.45
-0.32
-4.21
-8.03
-11.81
-15.67
-19.65
-23.52
-26.81
-28.94
-29.44
-28.15
-25.25
-21.13
-16.25
-10.99
-5.60
-0.25
4.96
9.87
14.31
18.04
20.82
22.41
22.69
21.74
19.92
17.76
15.87
14.70
14.40
14.81
15.55
16.19
16.42
16.09
15.21
13.81
11.98
9.77
7.30
4.64
1.87
-1.03
-4.14
-7.57
-11.35
-15.30
-19.03
-22.02
-23.68
-23.57
-21.48
-17.53
-12.12
-5.79
0.83
7.18
12.84
17.48
20.99
23.35
24.71
25.32
25.42
25.27
25.02
24.69
24.32
23.99
23.84
24.01
24.52
25.10
25.38
24.90
23.39
20.84
17.47
13.62
9.62
5.73
2.09
-1.16
-3.96
-6.31
-8.44
-10.74
-13.69
-17.57
-22.27
-27.14
-31.21
-33.45
-33.17
-30.27
-25.21
-18.86
-12.09
-5.55
0.47
5.97
11.05
15.76
20.04
23.74
26.72
28.93
30.47
31.48
32.13
32.53
32.76
32.90
33.03
33.28
33.78
34.56
35.51
36.41
36.95
36.86
36.02
34.53
32.64
30.65
28.89
27.54
26.65
26.12
25.74
25.23
24.39
23.12
21.50
19.73
18.01
16.49
15.17
13.90
12.54
10.92
9.01
6.81
4.43
1.99
-0.40
-2.67
-4.82
-6.95
-9.22
-11.77
-14.65
-17.75
-20.93
-23.98
-26.87
-29.65
-32.47
-35.54
-39.00
-42.89
-47.06
-51.15
-54.56
-56.53
-56.34
-53.56
-48.28
-41.10
-32.96
-24.81
-17.38
-10.96
-5.52
-0.84
3.30
7.09
10.63
13.94
17.00
19.69
21.86
23.38
24.22
24.52
24.49
24.43
24.51
24.78
25.20
25.62
25.91
25.89
25.38
24.22
22.34
19.86
17.10
14.44
12.14
10.25
8.60
6.90
4.88
2.49
-0.20
-2.98
-5.65
-8.11
-10.40
-12.66
-15.14
-18.05
-21.53
-25.46
-29.40
-32.65
-34.45
-34.16
-31.59
-26.98
-20.96
-14.34
-7.87
-2.07
2.80
6.74
9.88
12.43
14.63
16.65
18.60
20.46
22.11
23.33
23.98
24.05
23.69
23.14
22.64
22.30
22.06
21.80
21.38
20.75
19.98
19.15
18.34
17.54
16.68
15.65
14.43
13.05
11.63
10.30
9.14
8.18
7.34
6.49
5.51
4.29
2.85
1.26
-0.36
-1.86
-3.08
-3.95
-4.48
-4.80
-5.18
-5.94
-7.35
-9.51
-12.25
-15.21
-17.99
-20.30
-22.10
-23.59
-25.08
-26.87
-29.13
-31.90
-35.07
-38.33
-41.21
-43.03
-43.13
-41.06
-36.78
-30.77
-23.90
-17.09
-11.10
-6.27
-2.53
0.41
2.91
5.24
7.49
9.62
11.56
13.18
14.45
15.39
16.13
16.85
17.67
18.65
19.73
20.76
21.63
22.23
22.58
22.73
22.69
22.43
21.85
20.89
19.55
17.98
16.40
15.06
14.08
13.45
12.98
12.47
11.71
10.66
9.36
7.98
6.69
5.61
4.79
4.19
3.70
3.18
2.49
1.54
0.32
-1.12
-2.64
-4.10
-5.41
-6.60
-7.74
-8.93
-10.26
-11.73
-13.30
-14.90
-16.48
-18.02
-19.50
-20.98
-22.56
-24.40
-26.67
-29.41
-32.52
-35.65
-38.35
-40.10
-40.46
-39.14
-36.06
-31.43
-25.65
-19.37
-13.23
-7.79
-3.39
-0.09
2.26
3.90
5.06
5.96
6.71
7.41
8.06
8.66
9.17
9.59
10.01
10.53
11.27
12.18
13.15
14.00
14.57
14.82
14.84
14.80
14.89
15.18
15.63
16.09
16.32
16.14
15.48
14.44
13.25
12.19
11.44
11.01
10.76
10.42
9.82
8.94
7.89
6.82
5.88
5.12
4.44
3.75
2.97
2.06
1.03
-0.12
-1.45
-3.05
-4.98
-7.27
-9.80
-12.38
-14.80
-16.88
-18.58
-20.03
-21.47
-23.21
-25.51
-28.37
-31.51
-34.37
-36.25
-36.58
-35.05
-31.75
-27.06
-21.56
-15.77
-10.16
-5.07
-0.75
2.60
4.87
6.11
6.50
6.34
5.97
5.65
5.50
5.57
5.78
6.12
6.59
7.23
8.05
8.96
9.80
10.45
10.86
11.15
11.53
12.15
13.00
13.86
14.44
14.45
13.80
12.63
11.15
9.63
8.28
7.25
6.63
6.49
6.78
7.34
7.85
7.94
7.31
5.87
3.79
1.44
-0.76
-2.53
-3.80
-4.71
-5.47
-6.33
-7.46
-8.97
-10.92
-13.31
-16.05
-18.88
-21.48
-23.61
-25.24
-26.59
-27.99
-29.64
-31.33
-32.48
-32.35
-30.38
-26.46
-21.01
-14.79
-8.61
-3.11
1.34
4.61
6.74
7.85
8.14
7.87
7.31
6.74
6.37
6.33
6.65
7.23
7.99
8.79
9.54
10.22
10.85
11.48
12.16
12.87
13.51
13.95
14.04
13.76
13.18
12.41
11.55
10.67
9.76
8.75
7.64
6.40
5.06
3.65
2.17
0.63
-0.88
-2.27
-3.49
-4.54
-5.57
-6.80
-8.41
-10.39
-12.57
-14.70
-16.52
-17.97
-19.12
-20.25
-21.62
-23.39
-25.50
-27.68
-29.41
-30.12
-29.34
-26.84
-22.80
-17.69
-12.19
-6.90
-2.26
1.56
4.53
6.70
8.10
8.72
8.61
7.92
6.94
6.02
5.47
5.45
5.94
6.75
7.66
8.46
9.09
9.55
9.91
10.20
10.40
10.47
10.38
10.13
9.80
9.39
8.87
8.21
7.33
6.26
5.05
3.79
2.51
1.19
-0.20
-1.70
-3.24
-4.74
-6.17
-7.59
-9.14
-10.93
-12.96
-15.13
-17.32
-19.44
-21.60
-23.90
-26.35
-28.67
-30.30
-30.56
-28.96
-25.47
-20.51
-14.88
-9.38
-4.62
-0.81
2.11
4.32
5.98
7.13
7.73
7.74
7.26
6.53
5.87
5.59
5.84
6.62
7.74
8.98
10.12
11.08
11.87
12.58
13.23
13.74
13.98
13.77
13.07
12.00
10.79
9.71
8.88
8.30
7.74
6.98
5.80
4.17
2.14
-0.15
-2.53
-4.95
-7.31
-9.56
-11.69
-13.78
-15.96
-18.42
-21.23
-24.24
-26.98
-28.81
-29.06
-27.36
-23.71
-18.54
-12.54
-6.43
-0.77
4.13
8.13
11.21
13.30
14.30
14.22
13.19
11.59
9.91
8.57
7.80
7.54
7.58
7.66
7.66
7.63
7.71
7.97
8.35
8.67
8.71
8.40
7.75
6.93
6.06
5.20
4.28
3.12
1.51
-0.66
-3.38
-6.46
-9.58
-12.44
-14.82
-16.68
-18.15
-19.53
-21.19
-23.40
-26.23
-29.46
-32.54
-34.77
-35.42
-34.01
-30.45
-25.02
-18.42
-11.45
-4.91
0.59
4.68
7.30
8.65
9.10
9.12
9.10
9.28
9.67
10.20
10.70
11.07
11.32
11.54
11.82
12.25
12.83
13.52
14.22
14.80
15.11
15.04
14.50
13.51
12.13
10.49
8.69
6.79
4.80
2.73
0.62
-1.49
-3.57
-5.66
-7.90
-10.44
-13.42
-16.85
-20.55
-24.12
-27.02
-28.69
-28.65
-26.76
-23.14
-18.25
-12.70
-7.07
-1.77
2.93
6.93
10.15
12.47
13.74
13.91
13.08
11.53
9.70
8.08
7.05
6.82
7.37
8.51
9.95
11.40
12.61
13.46
13.91
13.94
13.57
12.72
11.26
9.08
6.22
2.92
-0.43
-3.38
-5.60
-7.05
-7.98
-8.87
-10.25
-12.51
-15.77
-19.76
-23.88
-27.36
-29.38
-29.37
-27.10
-22.77
-16.91
-10.23
-3.49
2.67
7.79
11.60
14.06
15.30
15.57
15.13
14.23
13.04
11.72
10.45
9.47
9.00
9.17
9.86
10.78
11.62
12.13
12.25
12.04
11.61
10.94
9.93
8.40
6.32
3.81
1.13
-1.42
-3.65
-5.52
-7.18
-8.83
-10.75
-13.18
-16.32
-20.22
-24.69
-29.21
-32.99
-35.17
-35.00
-32.23
-27.11
-20.35
-12.92
-5.68
0.77
6.18
10.53
13.95
16.51
18.16
18.84
18.50
17.30
15.56
13.75
12.38
11.79
12.04
12.89
13.93
14.69
14.93
14.60
13.89
13.03
12.17
11.27
10.16
8.66
6.65
4.24
1.61
-1.01
-3.47
-5.73
-7.81
-9.84
-11.95
-14.29
-17.03
-20.32
-24.23
-28.61
-32.99
-36.66
-38.76
-38.60
-35.92
-30.96
-24.41
-17.17
-10.06
-3.64
1.85
6.41
10.11
12.98
14.98
16.07
16.35
16.04
15.55
15.29
15.53
16.36
17.66
19.25
20.93
22.63
24.32
25.92
27.29
28.15
28.23
27.33
25.50
22.91
19.90
16.80
13.87
11.22
8.83
6.55
4.19
1.60
-1.26
-4.26
-7.24
-10.02
-12.53
-14.89
-17.37
-20.34
-24.01
-28.34
-32.86
-36.76
-39.13
-39.23
-36.79
-32.06
-25.67
-18.39
-10.92
-3.79
2.58
7.84
11.69
14.06
15.17
15.50
15.65
16.06
16.90
18.06
19.31
20.49
21.59
22.68
23.84
25.04
26.19
27.16
27.84
28.20
28.22
27.94
27.36
26.50
25.36
23.95
22.28
20.39
18.36
16.30
14.27
12.27
10.25
8.10
5.73
3.11
0.31
-2.54
-5.31
-7.89
-10.26
-12.48
-14.67
-16.93
-19.43
-22.30
-25.68
-29.64
-34.06
-38.55
-42.42
-44.79
-44.80
-41.93
-36.20
-28.23
-19.11
-10.02
-1.90
4.75
9.90
13.84
16.88
19.22
20.96
22.17
23.04
23.89
25.11
26.97
29.48
32.35
35.11
37.36
38.97
40.14
41.26
42.71
44.70
47.12
49.63
51.71
52.82
52.40
50.02
45.54
39.20
31.66
23.81
16.40
9.72
3.50
-2.87
-9.95
-17.85
-26.17
-34.15
-41.04
-46.29
-49.63
-50.99
-50.43
-48.25
-45.02
-41.63
-39.08
-38.08
-38.87
-41.13
-44.16
-47.21
-49.75
-51.49
-52.35
-52.22
-51.04
-48.77
-45.57
-41.91
-38.40
-35.68
-34.21
-34.28
-36.13
-40.12
-46.77
-56.56
-69.57
-85.26
-102.56
-120.16
-137.07
-153.05
-168.55
-184.33
-200.66
-216.89
-231.31
-241.61
-245.65
-242.13
-230.85
-212.52
-188.30
-159.31
-126.52
-90.86
-53.49
-15.91
20.25
53.68
83.93
111.74
138.97
168.29
202.39
243.09
290.33
341.71
392.59
437.05
469.31
485.34
483.82
466.45
437.18
400.98
362.52
325.21
290.96
260.50
233.96
211.18
191.83
175.09
159.49
143.18
124.48
102.72
78.86
55.39
35.57
22.27
17.04
19.61
27.91
38.68
48.29
53.95
54.56
51.15
46.46
43.86
45.87
53.10
64.03
75.68
84.92
89.63
89.31
84.83
77.61
68.55
57.48
43.14
24.10
-0.30
-29.15
-59.84
-88.83
-112.87
-130.03
-140.07
-144.09
-143.62
-139.93
-133.67
-125.07
-114.45
-102.74
-91.66
-83.59
-81.04
-85.88
-98.69
-118.34
-142.21
-166.91
-189.19
-206.74
-218.47
-224.29
-224.66
-220.22
-211.68
-199.88
-185.85
-170.56
-154.61
-138.10
-120.68
-101.96
-81.75
-60.02
-36.40
-9.92
20.64
55.78
94.26
132.88
167.17
192.95
207.64
210.84
203.67
187.67
163.94
133.26
96.91
57.39
18.61
-15.15
-40.70
-57.09
-65.78
-69.62
-71.46
-73.03
-74.61
-75.51
-74.91
-72.69
-69.55
-66.64
-64.86
-64.31
-64.36
-63.98
-62.31
-59.15
-55.06
-51.17
-48.74
-48.75
-51.52
-56.65
-63.28
-70.37
-77.05
-82.66
-86.72
-88.84
-88.80
-86.67
-83.04
-78.97
-75.69
-74.17
-74.73
-76.98
-80.13
-83.41
-86.45
-89.17
-91.49
-93.00
-93.04
-91.06
-87.19
-82.38
-78.14
-75.74
-75.79
-78.10
-82.33
-88.31
-96.00
-105.02
-114.25
-122.11
-127.30
-129.74
-130.47
-130.84
-131.41
-131.71
-131.02
-129.62
-129.33
-132.54
-140.29
-150.70
-159.19
-160.57
-151.68
-132.85
-107.26
-78.68
-49.23
-18.70
14.51
51.57
91.86
133.17
173.06
210.53
246.30
281.64
316.33
347.29
369.11
376.57
367.74
345.66
317.49
291.25
272.26
261.19
254.97
249.69
243.46
237.29
233.41
232.78
233.39
231.01
221.61
203.89
180.19
155.15
133.40
117.32
106.42
98.16
89.61
78.86
65.50
50.29
34.41
18.72
3.44
-11.91
-28.52
-47.96
-71.83
-101.17
-135.89
-174.39
-213.66
-250.02
-280.02
-301.34
-313.10
-315.57
-309.63
-296.13
-275.78
-249.33
-218.05
-183.94
-149.46
-116.74
-86.82
-59.23
-32.29
-4.22
25.59
55.69
82.76
102.85
113.06
112.92
104.51
91.52
77.63
65.20
54.98
46.74
40.28
35.94
34.44
35.97
39.60
43.27
44.50
41.48
33.88
23.10
11.67
2.52
-2.10
-1.36
3.87
11.35
18.38
22.87
24.20
23.34
22.30
23.12
26.99
33.81
42.27
50.16
54.91
54.00
45.66
29.59
7.63
-16.34
-37.29
-50.94
-55.37
-51.88
-44.28
-37.28
-34.44
-37.26
-45.19
-56.62
-70.09
-84.85
-100.74
-117.66
-135.00
-151.40
-165.04
-174.11
-177.28
-174.01
-164.69
-150.53
-133.36
-115.22
-97.91
-82.61
-69.60
-58.25
-47.19
-34.81
-19.86
-2.05
17.74
37.72
55.92
70.90
82.21
90.33
96.18
100.59
103.98
106.28
107.36
107.20
106.12
104.51
102.57
100.09
96.48
91.08
83.45
73.76
62.88
52.19
43.11
36.50
32.15
28.85
24.92
18.91
10.23
-0.68
-12.62
-24.28
-34.81
-44.15
-52.94
-62.25
-73.18
-86.38
-101.68
-117.58
-131.24
-139.18
-138.48
-128.22
-110.55
-90.55
-74.72
-68.56
-73.97
-87.97
-103.20
-110.33
-101.22
-71.59
-22.24
41.29
110.31
175.17
227.48
261.93
277.23
275.98
263.58
246.29
229.29
215.53
205.63
198.81
194.06
190.92
189.35
189.07
189.05
187.36
181.78
170.83
154.50
134.57
114.29
97.48
87.44
86.00
92.79
105.28
119.33
130.43
134.96
131.29
120.12
104.11
86.78
71.20
59.08
50.44
44.10
38.58
32.67
25.64
17.02
6.43
-6.29
-20.78
-36.01
-50.40
-62.23
-70.24
-73.90
-73.47
-69.93
-64.81
-59.78
-56.22
-54.64
-54.45
-54.30
-53.11
-51.01
-49.47
-50.50
-55.15
-62.73
-71.03
-77.71
-81.68
-83.65
-85.25
-87.65
-90.50
-92.05
-90.40
-84.65
-75.57
-64.86
-54.11
-44.06
-34.78
-26.35
-19.43
-15.14
-14.45
-17.55
-23.70
-31.63
-40.23
-49.01
-58.10
-67.84
-78.31
-89.13
-99.60
-109.06
-117.05
-123.38
-127.99
-130.79
-131.72
-130.72
-127.75
-122.73
-115.65
-106.77
-96.74
-86.53
-77.18
-69.42
-63.50
-59.18
-56.07
-53.94
-52.96
-53.45
-55.55
-58.92
-62.65
-65.53
-66.59
-65.51
-62.77
-59.30
-55.90
-52.80
-49.63
-45.66
-40.47
-34.23
-27.82
-22.32
-18.60
-16.78
-16.20
-15.72
-14.20
-10.96
-5.82
1.10
9.61
19.62
30.96
43.29
55.99
68.34
79.85
90.42
100.30
109.68
118.36
125.51
129.96
130.66
127.13
119.56
108.54
94.67
78.54
61.00
43.53
28.23
17.14
11.32
10.12
11.35
12.37
11.44
8.59
5.45
4.02
5.35
8.88
12.90
15.67
16.54
16.05
15.32
15.07
15.03
14.27
12.03
8.48
4.78
2.55
2.86
5.66
9.76
13.34
14.74
12.97
7.90
0.25
-8.45
-16.28
-21.34
-22.55
-20.15
-15.81
-11.84
-10.30
-12.12
-16.89
-23.34
-30.06
-36.10
-41.04
-44.64
-46.45
-45.79
-42.07
-35.26
-26.19
-16.30
-7.21
-0.15
4.27
6.11
5.88
4.48
2.93
2.32
3.48
6.61
11.16
15.82
19.03
19.63
17.42
13.27
8.69
5.20
3.71
4.32
6.45
9.26
11.97
13.96
14.77
14.02
11.59
7.65
2.80
-2.01
-5.71
-7.43
-6.92
-4.66
-1.90
-0.16
-0.65
-3.66
-8.36
-13.14
-16.33
-17.00
-15.36
-12.64
-10.42
-9.88
-11.33
-14.18
-17.43
-20.08
-21.59
-21.86
-21.07
-19.41
-17.01
-13.90
-10.24
-6.38
-2.84
-0.13
1.44
1.79
1.12
-0.32
-2.28
-4.55
-6.93
-9.21
-11.13
-12.53
-13.42
-14.08
-15.04
-16.84
-19.79
-23.82
-28.38
-32.60
-35.55
-36.53
-35.24
-31.80
-26.70
-20.56
-14.02
-7.60
-1.75
3.25
7.15
9.84
11.33
11.71
11.24
10.32
9.37
8.77
8.73
9.29
10.28
11.45
12.53
13.37
13.81
13.76
13.10
11.68
9.45
6.47
2.96
-0.70
-4.08
-6.81
-8.75
-10.04
-11.11
-12.52
-14.82
-18.29
-22.88
-28.20
-33.66
-38.61
-42.50
-44.97
-45.92
-45.41
-43.58
-40.61
-36.70
-32.11
-27.29
-22.88
-19.56
-17.82
-17.84
-19.40
-22.08
-25.43
-29.18
-33.20
-37.44
-41.77
-46.03
-50.02
-53.71
-57.25
-60.77
-64.25
-67.28
-69.19
-69.20
-66.76
-61.79
-54.73
-46.46
-37.90
-29.73
-22.13
-14.85
-7.51
-0.00
7.34
13.82
18.74
21.75
23.10
23.39
23.30
23.30
23.57
24.23
25.57
28.11
32.40
38.71
46.76
55.80
64.93
73.40
80.73
86.69
91.05
93.46
93.60
91.34
86.99
81.24
74.91
68.66
62.76
57.12
51.50
45.75
40.01
34.63
29.98
26.28
23.59
21.86
21.06
21.28
22.58
24.81
27.50
29.99
31.62
32.10
31.53
30.36
29.16
28.37
28.24
28.74
29.69
30.87
32.16
33.54
35.10
36.90
38.98
41.27
43.75
46.46
49.60
53.30
57.50
61.69
65.04
66.65
66.01
63.25
58.99
54.02
48.85
43.55
37.82
31.29
23.84
15.66
7.39
-0.10
-5.71
-8.46
-7.52
-2.56
6.23
18.19
32.43
48.06
64.45
81.18
97.91
114.17
129.22
142.00
151.30
156.02
155.49
149.64
139.03
124.74
108.11
90.44
72.80
55.99
40.64
27.39
16.92
9.70
5.77
4.50
4.63
4.72
3.62
0.85
-3.39
-8.44
-13.64
-18.61
-23.27
-27.62
-31.57
-34.84
-37.09
-38.14
-38.07
-37.15
-35.76
-34.20
-32.68
-31.30
-30.21
-29.61
-29.77
-30.91
-33.09
-36.21
-40.03
-44.32
-48.97
-54.02
-59.66
-65.99
-72.93
-80.14
-87.05
-92.99
-97.35
-99.70
-99.76
-97.53
-93.14
-86.97
-79.51
-71.40
-63.34
-55.89
-49.54
-44.54
-40.91
-38.46
-36.84
-35.64
-34.46
-32.98
-31.03
-28.65
-26.00
-23.34
-20.91
-18.92
-17.48
-16.63
-16.41
-16.86
-18.00
-19.75
-21.96
-24.43
-26.94
-29.29
-31.26
-32.58
-32.95
-32.25
-30.62
-28.62
-27.07
-26.69
-27.80
-30.05
-32.50
-33.98
-33.53
-30.66
-25.52
-18.73
-11.12
-3.53
3.35
9.03
13.25
16.00
17.45
17.93
17.83
17.50
17.15
16.83
16.52
16.15
15.73
15.32
15.00
14.83
14.78
14.74
14.62
14.36
13.92
13.29
12.43
11.27
9.74
7.81
5.56
3.08
0.48
-2.25
-5.27
-8.76
-12.78
-17.16
-21.41
-24.79
-26.55
-26.11
-23.30
-18.38
-11.99
-4.99
1.79
7.66
12.20
15.28
16.99
17.56
17.28
16.41
15.17
13.78
12.41
11.26
10.46
10.10
10.17
10.54
11.06
11.58
11.92
11.94
11.52
10.55
9.00
6.93
4.48
1.91
-0.55
-2.70
-4.42
-5.76
-6.92
-8.21
-9.89
-12.15
-14.86
-17.62
-19.80
-20.71
-19.82
-16.94
-12.35
-6.68
-0.79
4.54
8.78
11.70
13.37
14.01
13.87
13.13
12.01
10.73
9.55
8.71
8.32
8.34
8.60
8.93
9.21
9.43
9.61
9.73
9.68
9.28
8.36
6.81
4.75
2.40
0.06
-2.05
-3.83
-5.39
-7.01
-8.99
-11.59
-14.87
-18.58
-22.21
-25.09
-26.53
-26.01
-23.40
-18.90
-13.11
-6.75
-0.55
4.91
9.30
12.52
14.61
15.67
15.82
15.16
13.84
12.10
10.26
8.63
7.48
6.93
6.91
7.23
7.67
8.03
8.10
7.75
6.86
5.41
3.45
1.19
-1.12
-3.27
-5.17
-6.91
-8.67
-10.64
-12.92
-15.51
-18.29
-21.04
-23.44
-25.08
-25.55
-24.45
-21.61
-17.05
-11.13
-4.44
2.28
8.31
13.06
16.24
17.83
18.06
17.30
15.94
14.37
12.91
11.84
11.35
11.51
12.24
13.26
14.29
15.02
15.34
15.26
14.86
14.21
13.27
11.92
10.09
7.80
5.19
2.47
-0.26
-3.01
-5.97
-9.33
-13.15
-17.29
-21.30
-24.59
-26.55
-26.74
-25.05
-21.70
-17.16
-12.07
-7.02
-2.51
1.18
3.95
5.83
6.86
7.06
6.42
4.98
2.93
0.63
-1.40
-2.65
-2.77
-1.79
-0.03
1.93
3.55
4.43
4.48
3.79
2.53
0.83
-1.20
-3.42
-5.63
-7.55
-8.94
-9.80
-10.37
-11.11
-12.55
-15.00
-18.40
-22.28
-25.82
-28.09
-28.37
-26.33
-22.15
-16.49
-10.21
-4.14
1.13
5.31
8.42
10.56
11.82
12.27
11.95
11.07
9.87
8.75
8.01
7.83
8.17
8.87
9.72
10.58
11.38
12.12
12.74
13.09
13.00
12.33
11.05
9.25
7.09
4.72
2.29
-0.11
-2.46
-4.81
-7.31
-10.17
-13.51
-17.19
-20.71
-23.27
-24.05
-22.51
-18.63
-13.02
-6.54
-0.09
5.76
10.78
15.02
18.57
21.42
23.48
24.64
24.94
24.58
23.92
23.27
22.88
22.84
23.17
23.86
24.90
26.29
27.89
29.50
30.76
31.29
30.87
29.40
27.07
24.14
20.98
17.78
14.63
11.45
8.09
4.47
0.52
-3.75
-8.39
-13.36
-18.48
-23.31
-27.19
-29.37
-29.29
-26.81
-22.24
-16.26
-9.70
-3.31
2.36
6.95
10.26
12.27
13.07
12.90
12.03
10.73
9.18
7.50
5.81
4.23
2.89
1.88
1.21
0.79
0.50
0.22
-0.19
-0.82
-1.88
-3.53
-5.94
-9.10
-12.79
-16.66
-20.35
-23.62
-26.48
-29.16
-31.97
-35.19
-38.91
-42.94
-46.78
-49.67
-50.82
-49.59
-45.78
-39.72
-32.27
-24.48
-17.36
-11.56
-7.28
-4.37
-2.58
-1.67
-1.48
-1.83
-2.48
-3.06
-3.25
-2.84
-1.88
-0.66
0.50
1.28
1.56
1.38
0.85
0.07
-0.91
-2.08
-3.42
-4.95
-6.62
-8.45
-10.48
-12.74
-15.31
-18.18
-21.39
-24.91
-28.66
-32.46
-35.98
-38.70
-40.01
-39.32
-36.34
-31.13
-24.18
-16.27
-8.34
-1.19
4.59
8.71
11.19
12.26
12.31
11.76
10.98
10.24
9.72
9.52
9.71
10.30
11.15
12.09
12.83
13.14
12.91
12.21
11.19
10.05
8.93
7.82
6.64
5.22
3.46
1.35
-1.03
-3.51
-5.93
-8.26
-10.64
-13.29
-16.36
-19.77
-23.09
-25.61
-26.52
-25.23
-21.58
-15.92
-8.97
-1.58
5.51
11.78
16.97
20.91
23.50
24.74
24.74
23.82
22.48
21.25
20.55
20.56
21.23
22.35
23.66
24.95
26.04
26.78
27.04
26.74
25.88
24.50
22.72
20.59
18.16
15.46
12.50
9.36
6.12
2.86
-0.42
-3.71
-7.12
-10.73
-14.67
-18.98
-23.61
-28.30
-32.50
-35.42
-36.25
-34.38
-29.71
-22.71
-14.33
-5.71
2.10
8.44
13.05
16.03
17.65
18.21
17.98
17.18
16.03
14.82
13.86
13.43
13.68
14.53
15.68
16.72
17.28
17.16
16.42
15.29
14.00
12.73
11.45
9.99
8.13
5.77
2.98
0.01
-2.81
-5.25
-7.21
-8.87
-10.53
-12.55
-15.19
-18.53
-22.39
-26.40
-30.03
-32.67
-33.77
-32.94
-30.09
-25.47
-19.60
-13.12
-6.65
-0.73
4.26
7.99
10.28
11.06
10.52
9.16
7.62
6.49
6.16
6.67
7.81
9.27
10.76
12.16
13.43
14.56
15.49
16.12
16.33
16.02
15.15
13.68
11.66
9.21
6.48
3.72
1.08
-1.28
-3.37
-5.24
-7.11
-9.20
-11.74
-14.86
-18.47
-22.12
-25.12
-26.70
-26.23
-23.53
-18.87
-12.90
-6.39
-0.02
5.76
10.65
14.46
17.05
18.32
18.33
17.37
15.92
14.54
13.68
13.51
13.94
14.69
15.41
15.93
16.19
16.30
16.41
16.52
16.50
16.11
15.07
13.19
10.48
7.16
3.59
0.17
-2.82
-5.35
-7.59
-9.86
-12.49
-15.64
-19.29
-23.22
-27.02
-30.13
-31.97
-32.01
-29.91
-25.66
-19.58
-12.35
-4.79
2.27
8.21
12.68
15.57
17.01
17.23
16.58
15.37
13.93
12.54
11.37
10.58
10.20
10.26
10.72
11.53
12.56
13.59
14.34
14.53
13.97
12.65
10.74
8.53
6.23
3.96
1.73
-0.54
-2.94
-5.56
-8.50
-11.82
-15.42
-19.01
-21.95
-23.51
-23.00
-20.13
-15.10
-8.58
-1.43
5.51
11.60
16.48
19.88
21.66
21.75
20.32
17.73
14.52
11.27
8.44
6.24
4.72
3.81
3.42
3.45
3.73
3.98
3.95
3.39
2.31
0.87
-0.70
-2.26
-3.85
-5.63
-7.77
-10.27
-13.00
-15.72
-18.36
-21.02
-23.97
-27.44
-31.30
-35.00
-37.65
-38.30
-36.33
-31.74
-25.08
-17.32
-9.44
-2.17
4.09
9.23
13.25
16.13
17.83
18.34
17.81
16.59
15.22
14.21
13.90
14.34
15.25
16.20
16.81
16.90
16.51
15.83
15.01
14.02
12.68
10.77
8.18
4.98
1.42
-2.15
-5.41
-8.16
-10.36
-12.19
-13.97
-16.15
-19.05
-22.77
-26.95
-30.82
-33.40
-33.82
-31.68
-27.11
-20.79
-13.61
-6.44
0.12
5.75
10.32
13.83
16.24
17.55
17.84
17.33
16.38
15.45
14.92
15.01
15.69
16.73
17.83
18.71
19.26
19.45
19.35
18.99
18.37
17.49
16.32
14.94
13.33
11.52
9.44
7.12
4.66
2.26
0.17
-1.51
-2.89
-4.35
-6.33
-9.22
-13.04
-17.47
-21.84
-25.34
-27.26
-27.12
-24.79
-20.49
-14.70
-8.06
-1.27
5.09
10.56
14.82
17.78
19.46
20.03
19.80
19.12
18.34
17.75
17.49
17.54
17.81
18.13
18.36
18.39
18.18
17.78
17.27
16.72
16.12
15.40
14.40
12.95
10.92
8.32
5.31
2.13
-0.96
-3.75
-6.12
-8.09
-9.81
-11.55
-13.61
-16.27
-19.61
-23.42
-27.20
-30.18
-31.61
-30.91
-27.92
-22.91
-16.54
-9.59
-2.79
3.29
8.34
12.20
14.84
16.32
16.81
16.57
15.93
15.17
14.51
14.04
13.75
13.63
13.68
13.97
14.52
15.30
16.13
16.79
17.00
16.58
15.50
13.92
12.07
10.23
8.57
7.12
5.79
4.43
2.89
1.04
-1.14
-3.64
-6.36
-9.11
-11.69
-13.95
-15.87
-17.62
-19.55
-22.02
-25.28
-29.31
-33.73
-37.83
-40.75
-41.67
-40.08
-35.90
-29.60
-22.02
-14.17
-6.95
-0.93
3.70
7.12
9.68
11.70
13.39
14.80
15.89
16.61
16.97
17.11
17.25
17.64
18.44
19.66
21.16
22.65
23.84
24.54
24.68
24.31
23.53
22.40
20.93
19.13
17.03
14.81
12.70
10.91
9.54
8.53
7.62
6.52
4.98
2.94
0.50
-2.09
-4.60
-6.90
-9.02
-11.09
-13.32
-15.88
-18.85
-22.28
-26.08
-30.05
-33.84
-36.88
-38.49
-38.02
-35.13
-29.94
-23.07
-15.48
-8.12
-1.71
3.44
7.38
10.25
12.22
13.39
13.86
13.83
13.61
13.57
13.96
14.83
16.04
17.33
18.46
19.35
20.05
20.65
21.24
21.78
22.17
22.28
22.00
21.35
20.42
19.37
18.34
17.43
16.63
15.84
14.94
13.85
12.53
11.00
9.29
7.41
5.29
2.88
0.16
-2.77
-5.73
-8.49
-10.95
-13.11
-15.14
-17.27
-19.68
-22.53
-25.84
-29.51
-33.31
-36.78
-39.23
-39.92
-38.27
-34.14
-27.95
-20.58
-13.08
-6.31
-0.72
3.63
6.91
9.27
10.75
11.29
10.91
9.83
8.48
7.39
6.95
7.30
8.30
9.63
10.94
12.08
13.01
13.85
14.69
15.47
16.02
16.04
15.33
13.83
11.75
9.39
7.16
5.31
3.90
2.80
1.76
0.51
-1.10
-3.02
-5.11
-7.12
-8.94
-10.55
-12.17
-14.12
-16.70
-20.03
-23.94
-27.94
-31.28
-33.16
-33.03
-30.71
-26.47
-20.91
-14.76
-8.67
-3.09
1.74
5.75
8.94
11.36
13.01
13.91
14.11
13.75
13.05
12.32
11.89
11.95
12.53
13.42
14.37
15.12
15.60
15.91
16.20
16.56
16.93
17.08
16.80
15.95
14.61
13.01
11.45
10.13
9.09
8.19
7.23
6.01
4.45
2.59
0.50
-1.73
-4.06
-6.48
-8.98
-11.52
-14.11
-16.75
-19.54
-22.56
-25.84
-29.30
-32.65
-35.54
-37.52
-38.25
-37.46
-35.07
-31.14
-25.94
-19.84
-13.33
-6.94
-1.14
3.68
7.35
9.84
11.32
12.06
12.35
12.49
12.70
13.14
13.85
14.78
15.78
16.67
17.36
17.81
18.18
18.60
19.20
19.91
20.51
20.72
20.37
19.47
18.19
16.81
15.58
14.58
13.68
12.71
11.48
9.98
8.29
6.58
4.95
3.43
1.93
0.31
-1.49
-3.48
-5.58
-7.70
-9.83
-12.00
-14.30
-16.85
-19.65
-22.61
-25.58
-28.43
-31.10
-33.66
-36.14
-38.50
-40.42
-41.40
-40.83
-38.34
-33.89
-27.89
-21.09
-14.28
-8.10
-2.92
1.21
4.39
6.77
8.48
9.57
10.09
10.11
9.81
9.40
9.15
9.30
9.98
11.16
12.65
14.18
15.49
16.41
16.89
16.95
16.63
15.95
14.92
13.56
11.97
10.32
8.79
7.49
6.41
5.34
4.06
2.42
0.41
-1.79
-3.93
-5.83
-7.39
-8.69
-9.88
-11.15
-12.61
-14.36
-16.43
-18.82
-21.37
-23.83
-25.73
-26.57
-25.82
-23.19
-18.71
-12.82
-6.25
0.10
5.47
9.36
11.70
12.73
12.86
12.45
11.75
10.86
9.85
8.85
8.09
7.82
8.25
9.36
10.93
12.58
13.92
14.70
14.93
14.76
14.44
14.13
13.80
13.26
12.28
10.76
8.76
6.60
4.64
3.11
2.02
1.09
-0.07
-1.78
-4.12
-6.87
-9.64
-12.09
-14.08
-15.72
-17.25
-18.99
-21.15
-23.82
-26.95
-30.32
-33.51
-35.95
-37.01
-36.20
-33.35
-28.71
-22.88
-16.59
-10.45
-4.86
-0.00
4.08
7.30
9.55
10.78
11.05
10.62
9.87
9.24
9.06
9.49
10.49
11.85
13.37
14.82
16.12
17.18
17.99
18.47
18.56
18.20
17.45
16.38
15.12
13.73
12.22
10.59
8.87
7.13
5.50
4.07
2.80
1.51
-0.03
-1.96
-4.26
-6.77
-9.17
-11.26
-13.00
-14.50
-16.00
-17.74
-19.90
-22.49
-25.41
-28.36
-30.95
-32.69
-33.14
-31.99
-29.13
-24.69
-19.02
-12.62
-6.11
-0.10
4.86
8.41
10.51
11.36
11.36
10.95
10.45
10.02
9.70
9.53
9.56
9.86
10.46
11.31
12.28
13.23
14.02
14.58
14.82
14.66
13.98
12.71
10.94
8.91
6.91
5.19
3.80
2.61
1.39
-0.07
-1.82
-3.79
-5.82
-7.79
-9.66
-11.48
-13.31
-15.24
-17.35
-19.73
-22.36
-25.10
-27.54
-29.15
-29.33
-27.72
-24.26
-19.29
-13.37
-7.19
-1.29
3.90
8.10
11.12
12.90
13.50
13.13
12.16
11.00
10.01
9.42
9.34
9.75
10.56
11.64
12.82
13.93
14.78
15.21
15.17
14.65
13.69
12.36
10.78
9.06
7.31
5.60
3.90
2.17
0.32
-1.67
-3.75
-5.83
-7.75
-9.44
-10.89
-12.28
-13.90
-16.05
-18.91
-22.44
-26.20
-29.51
-31.58
-31.78
-29.80
-25.82
-20.38
-14.17
-7.82
-1.75
3.85
8.96
13.52
17.40
20.33
22.11
22.73
22.57
22.33
22.81
24.60
27.76
31.78
35.78
38.90
40.78
41.71
42.51
44.11
47.06
51.22
55.81
59.79
62.33
63.20
62.82
62.09
62.07
63.79
68.11
75.42
85.22
95.58
103.15
103.76
93.83
71.85
39.18
-0.25
-41.37
-79.71
-112.53
-138.87
-158.74
-172.07
-178.30
-176.72
-167.29
-151.24
-130.97
-109.43
-89.16
-71.72
-57.61
-46.50
-37.84
-31.19
-26.32
-23.11
-21.36
-20.59
-20.03
-18.83
-16.28
-12.07
-6.48
-0.26
5.65
10.41
13.62
15.34
16.01
16.17
16.24
16.39
16.59
16.64
16.33
15.51
14.11
12.17
9.79
7.19
4.54
1.97
-0.50
-2.93
-5.48
-8.26
-11.33
-14.65
-18.02
-21.09
-23.42
-24.51
-23.93
-21.42
-17.05
-11.24
-4.71
1.75
7.42
11.84
14.91
16.72
17.53
17.57
17.07
16.24
15.34
14.60
14.21
14.26
14.72
15.49
16.42
17.39
18.26
18.92
19.28
19.29
18.90
18.02
16.58
14.51
11.80
8.63
5.33
2.25
-0.34
-2.39
-4.11
-5.79
-7.80
-10.31
-13.38
-16.85
-20.36
-23.38
-25.30
-25.50
-23.56
-19.42
-13.45
-6.41
0.76
7.17
12.15
15.48
17.29
17.97
17.99
17.68
17.17
16.46
15.54
14.54
13.73
13.39
13.70
14.57
15.68
16.59
17.00
16.81
16.12
15.12
13.93
12.54
10.83
8.69
6.11
3.22
0.23
-2.61
-5.13
-7.29
-9.15
-10.87
-12.69
-14.87
-17.66
-21.17
-25.23
-29.37
-32.88
-34.99
-35.06
-32.78
-28.27
-22.02
-14.79
-7.34
-0.30
5.89
11.05
15.06
17.92
19.67
20.39
20.30
19.70
18.96
18.37
18.22
18.61
19.56
20.95
22.60
24.23
25.60
26.49
26.83
26.67
26.13
25.35
24.35
23.10
21.58
19.79
17.81
15.70
13.46
10.95
7.97
4.30
-0.11
-5.19
-10.72
-16.50
-22.45
-28.55
-34.79
-40.89
-46.27
-50.06
-51.38
-49.70
-45.07
-38.09
-29.77
-21.13
-12.99
-5.87
-0.00
4.50
7.69
9.70
10.81
11.37
11.73
12.14
12.69
13.38
14.13
14.91
15.74
16.63
17.58
18.51
19.26
19.65
19.51
18.77
17.46
15.73
13.80
11.90
10.16
8.59
7.06
5.37
3.37
1.04
-1.52
-4.11
-6.56
-8.80
-10.95
-13.22
-15.87
-19.04
-22.71
-26.61
-30.30
-33.17
-34.63
-34.09
-31.30
-26.35
-19.69
-12.14
-4.53
2.37
8.08
12.41
15.36
17.07
17.71
17.48
16.66
15.56
14.55
13.90
13.78
14.23
15.16
16.39
17.73
18.95
19.82
20.14
19.83
18.97
17.74
16.37
15.01
13.67
12.15
10.26
7.86
5.02
1.97
-0.97
-3.57
-5.77
-7.74
-9.80
-12.29
-15.45
-19.33
-23.75
-28.24
-32.16
-34.78
-35.48
-33.89
-30.02
-24.31
-17.41
-10.16
-3.30
2.64
7.35
10.81
13.07
14.34
14.79
14.60
14.01
13.32
12.87
12.97
13.77
15.21
17.03
18.88
20.45
21.59
22.27
22.56
22.54
22.27
21.74
20.91
19.73
18.20
16.37
14.37
12.37
10.52
8.81
7.09
5.11
2.67
-0.23
-3.34
-6.38
-9.08
-11.45
-13.70
-16.16
-19.10
-22.57
-26.34
-29.97
-32.83
-34.31
-33.89
-31.34
-26.79
-20.69
-13.72
-6.64
-0.06
5.57
10.00
13.09
14.82
15.28
14.74
13.65
12.49
11.70
11.48
11.85
12.62
13.59
14.57
15.51
16.37
17.12
17.71
18.05
18.04
17.58
16.61
15.13
13.25
11.16
9.11
7.29
5.74
4.30
2.71
0.77
-1.56
-4.12
-6.66
-8.98
-11.04
-12.95
-14.91
-17.12
-19.69
-22.65
-25.86
-29.01
-31.54
-32.76
-32.04
-29.04
-23.88
-17.16
-9.79
-2.68
3.48
8.30
11.75
13.92
14.97
15.06
14.39
13.18
11.73
10.38
9.41
9.06
9.39
10.30
11.55
12.85
13.91
14.53
14.68
14.47
14.04
13.45
12.71
11.63
10.08
7.93
5.26
2.29
-0.64
-3.22
-5.27
-6.82
-8.12
-9.52
-11.34
-13.77
-16.77
-20.09
-23.31
-25.98
-27.61
-27.85
-26.46
-23.40
-18.90
-13.37
-7.37
-1.46
3.89
8.37
11.78
14.09
15.35
15.71
15.38
14.62
13.69
12.83
12.22
11.98
12.16
12.70
13.45
14.25
14.94
15.50
15.97
16.46
16.93
17.26
17.22
16.57
15.19
13.15
10.74
8.32
6.29
4.90
4.15
3.77
3.28
2.25
0.47
-1.85
-4.21
-6.07
-7.12
-7.52
-7.76
-8.38
-9.50
-10.63
-10.72
-8.52
-3.14
5.53
16.61
28.49
39.40
48.02
53.83
57.28
59.39
61.43
64.61
69.94
78.00
88.47
99.64
108.28
110.29
102.14
82.49
53.10
18.45
-15.94
-45.60
-68.50
-85.09
-97.15
-106.24
-112.66
-115.55
-113.80
-107.13
-96.63
-84.48
-73.12
-64.29
-58.57
-55.32
-53.32
-51.46
-49.22
-46.82
-44.85
-43.82
-43.86
-44.59
-45.35
-45.57
-44.92
-43.34
-40.89
-37.58
-33.31
-27.91
-21.33
-13.72
-5.57
2.48
9.64
15.27
18.96
20.66
20.65
19.50
17.88
16.41
15.52
15.38
15.96
17.06
18.39
19.64
20.59
21.07
21.11
20.81
20.34
19.77
19.07
18.05
16.52
14.34
11.60
8.57
5.63
3.10
1.10
-0.44
-1.81
-3.35
-5.37
-8.09
-11.53
-15.47
-19.42
-22.69
-24.55
-24.45
-22.21
-18.09
-12.70
-6.73
-0.80
4.73
9.68
13.91
17.19
19.28
20.02
19.41
17.78
15.63
13.53
11.89
10.94
10.64
10.87
11.39
12.01
12.54
12.81
12.70
12.16
11.28
10.16
8.93
7.61
6.16
4.51
2.63
0.55
-1.63
-3.85
-6.09
-8.41
-10.86
-13.49
-16.24
-19.11
-22.07
-25.10
-28.08
-30.71
-32.52
-32.94
-31.56
-28.21
-23.06
-16.63
-9.63
-2.82
3.18
7.96
11.36
13.48
14.57
14.90
14.71
14.18
13.49
12.87
12.51
12.62
13.24
14.28
15.48
16.60
17.44
17.95
18.17
18.14
17.87
17.29
16.33
15.01
13.39
11.61
9.77
7.87
5.85
3.61
1.13
-1.47
-3.99
-6.23
-8.16
-9.92
-11.82
-14.23
-17.35
-21.18
-25.42
-29.46
-32.55
-33.95
-33.15
-30.04
-24.92
-18.45
-11.38
-4.43
1.84
7.08
11.08
13.78
15.26
15.73
15.56
15.08
14.61
14.23
13.89
13.48
12.96
12.40
11.94
11.75
11.88
12.31
12.84
13.26
13.36
13.08
12.41
11.47
10.37
9.13
7.72
6.03
3.99
1.65
-0.93
-3.61
-6.31
-9.00
-11.65
-14.28
-16.94
-19.76
-22.87
-26.30
-29.78
-32.79
-34.59
-34.49
-32.12
-27.58
-21.37
-14.25
-7.03
-0.37
5.25
9.55
12.43
13.96
14.34
13.83
12.68
11.20
9.69
8.48
7.89
8.10
9.02
10.35
11.65
12.53
12.81
12.55
11.93
11.11
10.14
8.94
7.39
5.43
3.13
0.65
-1.80
-4.07
-6.12
-8.00
-9.89
-12.01
-14.63
-17.92
-21.82
-25.95
-29.59
-31.88
-32.07
-29.85
-25.42
-19.45
-12.75
-6.07
0.10
5.52
10.06
13.61
16.05
17.31
17.45
16.66
15.26
13.65
12.24
11.42
11.49
12.49
14.19
16.12
17.72
18.59
18.62
17.96
16.86
15.47
13.80
11.73
9.17
6.17
2.95
-0.24
-3.14
-5.68
-7.89
-9.92
-11.97
-14.26
-17.01
-20.34
-24.19
-28.26
-31.98
-34.66
-35.60
-34.34
-30.76
-25.18
-18.25
-10.82
-3.68
2.54
7.52
11.18
13.60
14.98
15.47
15.27
14.59
13.73
13.08
12.97
13.63
15.01
16.82
18.59
19.93
20.57
20.53
20.04
19.34
18.66
18.00
17.21
16.04
14.25
11.76
8.71
5.37
2.08
-0.91
-3.51
-5.79
-7.93
-10.13
-12.54
-15.33
-18.58
-22.30
-26.22
-29.87
-32.49
-33.33
-31.86
-28.05
-22.33
-15.45
-8.30
-1.58
4.20
8.82
12.21
14.40
15.48
15.59
14.91
13.72
12.39
11.34
10.90
11.31
12.46
14.01
15.41
16.20
16.10
15.24
13.94
12.60
11.46
10.48
9.43
8.05
6.19
3.93
1.51
-0.80
-2.89
-4.79
-6.71
-8.92
-11.63
-14.89
-18.57
-22.36
-25.77
-28.21
-29.11
-28.05
-24.93
-20.00
-13.81
-7.11
-0.60
5.16
9.84
13.32
15.62
16.78
16.88
16.04
14.47
12.57
10.81
9.69
9.53
10.34
11.84
13.51
14.87
15.60
15.67
15.23
14.52
13.67
12.66
11.34
9.58
7.34
4.72
1.93
-0.79
-3.30
-5.58
-7.67
-9.73
-11.89
-14.28
-17.08
-20.41
-24.32
-28.56
-32.60
-35.64
-36.83
-35.58
-31.76
-25.77
-18.38
-10.51
-2.91
3.91
9.68
14.24
17.46
19.31
19.81
19.25
18.03
16.70
15.69
15.31
15.69
16.73
18.25
19.98
21.66
23.12
24.28
25.16
25.81
26.25
26.41
26.12
25.16
23.49
21.29
19.00
17.16
16.20
16.26
17.04
17.89
18.09
17.19
15.17
12.53
10.04
8.40
8.00
8.73
10.24
12.22
14.64
17.92
22.67
29.44
38.50
49.93
63.56
78.96
94.92
109.10
118.04
118.03
106.45
83.14
50.84
14.39
-21.03
-51.60
-75.86
-94.17
-107.54
-116.34
-119.95
-117.37
-108.38
-94.30
-78.01
-62.94
-51.82
-45.75
-43.96
-44.47
-45.17
-44.72
-42.97
-40.58
-38.46
-37.04
-36.10
-34.96
-33.03
-30.22
-27.16
-24.84
-24.14
-25.34
-27.80
-30.22
-31.06
-29.18
-24.26
-16.92
-8.42
-0.15
6.84
12.18
16.05
18.92
21.24
23.17
24.59
25.27
25.09
24.19
22.94
21.88
21.41
21.72
22.64
23.76
24.53
24.58
23.79
22.27
20.30
18.11
15.79
13.30
10.53
7.41
3.98
0.40
-3.12
-6.42
-9.42
-12.14
-14.74
-17.44
-20.49
-24.07
-28.19
-32.57
-36.69
-39.86
-41.38
-40.77
-37.87
-32.91
-26.38
-18.98
-11.42
-4.33
1.83
6.81
10.52
13.01
14.38
14.75
14.32
13.32
12.09
11.00
10.40
10.51
11.37
12.83
14.66
16.61
18.40
19.82
20.67
20.87
20.41
19.41
18.02
16.41
14.65
12.75
10.75
8.68
6.63
4.62
2.62
0.52
-1.83
-4.51
-7.54
-10.86
-14.41
-18.10
-21.78
-25.21
-27.99
-29.61
-29.61
-27.68
-23.78
-18.19
-11.44
-4.24
2.67
8.61
13.11
15.98
17.41
17.80
17.64
17.39
17.30
17.45
17.78
18.17
18.56
18.99
19.55
20.31
21.30
22.37
23.30
23.80
23.64
22.73
21.19
19.31
17.38
15.63
14.06
12.49
10.70
8.48
5.79
2.79
-0.27
-3.12
-5.55
-7.53
-9.17
-10.72
-12.49
-14.80
-17.91
-21.76
-26.04
-30.05
-32.94
-33.90
-32.45
-28.59
-22.79
-15.81
-8.50
-1.61
4.30
8.93
12.11
13.89
14.42
13.99
12.94
11.65
10.44
9.56
9.14
9.26
9.89
10.91
12.12
13.26
14.05
14.33
14.07
13.44
12.62
11.78
10.88
9.80
8.34
6.44
4.20
1.84
-0.38
-2.34
-4.10
-5.86
-7.90
-10.40
-13.42
-16.83
-20.45
-24.02
-27.22
-29.67
-30.83
-30.21
-27.42
-22.47
-15.84
-8.39
-1.21
4.85
9.30
12.15
13.71
14.37
14.37
13.84
12.78
11.34
9.81
8.63
8.16
8.52
9.50
10.63
11.48
11.80
11.67
11.40
11.27
11.41
11.65
11.67
11.14
9.90
7.98
5.57
2.90
0.19
-2.39
-4.72
-6.78
-8.66
-10.55
-12.68
-15.27
-18.36
-21.86
-25.48
-28.86
-31.51
-32.90
-32.58
-30.27
-25.97
-20.04
-13.11
-5.93
0.76
6.41
10.70
13.55
15.07
15.52
15.24
14.56
13.77
13.09
12.69
12.62
12.86
13.31
13.81
14.22
14.42
14.41
14.26
14.01
13.68
13.18
12.48
11.55
10.45
9.23
7.92
6.42
4.62
2.43
-0.10
-2.80
-5.50
-8.01
-10.29
-12.39
-14.47
-16.72
-19.30
-22.23
-25.32
-28.09
-29.88
-29.98
-27.93
-23.68
-17.64
-10.60
-3.43
3.16
8.70
12.99
15.97
17.65
18.10
17.49
16.09
14.27
12.49
11.15
10.51
10.61
11.31
12.26
13.09
13.53
13.47
13.03
12.40
11.78
11.21
10.54
9.51
7.87
5.55
2.71
-0.29
-3.00
-5.09
-6.52
-7.53
-8.64
-10.38
-13.12
-16.81
-21.03
-25.02
-27.94
-29.15
-28.33
-25.54
-21.15
-15.65
-9.56
-3.27
2.79
8.25
12.68
15.69
17.09
16.92
15.51
13.38
11.10
9.16
7.88
7.42
7.75
8.73
10.04
11.30
12.12
12.27
11.73
10.67
9.33
7.91
6.43
4.79
2.92
0.81
-1.45
-3.69
-5.80
-7.77
-9.67
-11.62
-13.73
-16.07
-18.69
-21.66
-24.96
-28.46
-31.84
-34.55
-35.94
-35.44
-32.80
-28.15
-22.00
-15.09
-8.16
-1.83
3.53
7.73
10.72
12.53
13.27
13.12
12.33
11.22
10.12
9.32
9.01
9.25
9.94
10.89
11.80
12.42
12.60
12.35
11.80
11.13
10.49
9.93
9.34
8.56
7.42
5.85
3.88
1.67
-0.56
-2.66
-4.58
-6.42
-8.42
-10.81
-13.76
-17.27
-21.11
-24.85
-27.94
-29.81
-29.95
-28.04
-24.03
-18.24
-11.29
-4.03
2.69
8.22
12.29
14.94
16.47
17.24
17.55
17.67
17.81
18.13
18.79
19.78
20.97
22.18
23.33
24.55
26.19
28.58
31.85
35.66
39.31
41.93
42.90
42.20
40.47
38.83
38.35
39.59
42.27
45.45
47.93
48.87
48.16
46.46
44.85
44.50
46.29
50.84
58.26
67.87
77.69
84.43
84.16
73.77
52.42
22.30
-12.04
-45.33
-73.59
-95.29
-111.11
-122.62
-130.77
-135.14
-134.36
-127.37
-114.53
-98.08
-81.42
-67.74
-58.81
-54.45
-52.84
-51.66
-49.17
-44.93
-39.67
-34.59
-30.58
-27.73
-25.44
-22.89
-19.64
-15.91
-12.47
-10.23
-9.77
-11.01
-13.26
-15.49
-16.78
-16.73
-15.58
-14.07
-13.14
-13.52
-15.42
-18.43
-21.69
-24.17
-25.00
-23.70
-20.28
-15.17
-9.04
-2.54
3.79
9.55
14.51
18.47
21.27
22.80
23.08
22.34
20.91
19.23
17.73
16.74
16.41
16.74
17.57
18.62
19.61
20.29
20.55
20.45
20.14
19.72
19.21
18.42
17.12
15.11
12.40
9.15
5.70
2.39
-0.55
-3.06
-5.25
-7.29
-9.47
-11.99
-15.04
-18.65
-22.65
-26.65
-30.02
-32.12
-32.35
-30.43
-26.42
-20.75
-14.08
-7.15
-0.66
4.94
9.39
12.69
14.96
16.34
16.94
16.91
16.40
15.67
15.05
14.86
15.30
16.39
17.92
19.54
20.86
21.57
21.49
20.63
19.20
17.52
15.89
14.50
13.34
12.23
10.93
9.22
7.03
4.45
1.60
-1.32
-4.19
-6.91
-9.48
-11.98
-14.57
-17.47
-20.76
-24.32
-27.76
-30.38
-31.51
-30.61
-27.55
-22.59
-16.31
-9.42
-2.64
3.47
8.54
12.38
14.97
16.43
16.98
16.89
16.46
15.94
15.58
15.53
15.86
16.55
17.45
18.41
19.26
19.83
20.06
19.89
19.31
18.31
16.86
14.97
12.67
10.09
7.40
4.81
2.49
0.48
-1.31
-3.07
-5.06
-7.47
-10.39
-13.86
-17.79
-22.03
-26.29
-30.07
-32.67
-33.35
-31.58
-27.27
-20.85
-13.24
-5.51
1.43
7.02
11.14
13.91
15.53
16.18
16.03
15.27
14.17
13.04
12.23
11.89
12.04
12.55
13.23
13.92
14.55
15.14
15.69
16.14
16.33
16.09
15.22
13.71
11.65
9.27
6.75
4.24
1.79
-0.61
-2.90
-5.05
-6.96
-8.68
-10.34
-12.16
-14.45
-17.45
-21.25
-25.66
-30.21
-34.13
-36.48
-36.47
-33.69
-28.31
-21.10
-13.16
-5.63
0.69
5.48
8.88
11.28
13.08
14.46
15.46
15.99
16.08
15.85
15.57
15.50
15.80
16.48
17.43
18.52
19.65
20.76
21.77
22.51
22.72
22.14
20.65
18.37
15.66
12.97
10.65
8.83
7.39
6.03
4.42
2.44
0.07
-2.54
-5.23
-7.90
-10.57
-13.38
-16.45
-19.86
-23.53
-27.16
-30.28
-32.33
-32.72
-31.06
-27.23
-21.44
-14.28
-6.55
0.86
7.19
11.97
15.08
16.75
17.45
17.73
18.01
18.53
19.26
20.03
20.65
21.08
21.41
21.90
22.80
24.23
26.05
27.86
29.20
29.63
29.01
27.54
25.70
24.11
23.23
23.23
23.86
24.55
24.67
23.79
21.95
19.70
17.86
17.16
17.89
19.72
21.84
23.20
23.01
21.07
17.92
14.74
13.16
14.84
21.08
32.30
47.49
64.00
77.84
84.68
81.25
66.66
42.80
13.72
-15.92
-42.45
-64.13
-80.95
-93.76
-103.15
-108.90
-110.21
-106.52
-98.13
-86.44
-73.52
-61.35
-51.18
-43.25
-37.02
-31.72
-26.81
-22.33
-18.76
-16.62
-16.10
-16.86
-18.10
-18.96
-18.91
-17.98
-16.67
-15.72
-15.65
-16.64
-18.40
-20.45
-22.38
-24.04
-25.51
-26.96
-28.38
-29.41
-29.42
-27.73
-23.95
-18.16
-10.90
-3.10
4.38
10.86
15.98
19.69
22.12
23.41
23.76
23.41
22.65
21.84
21.24
21.03
21.21
21.71
22.43
23.27
24.18
25.04
25.67
25.88
25.51
24.53
23.01
21.10
18.95
16.72
14.47
12.23
10.00
7.70
5.29
2.75
0.16
-2.39
-4.74
-6.83
-8.70
-10.44
-12.21
-14.18
-16.58
-19.59
-23.27
-27.41
-31.35
-34.16
-34.83
-32.73
-27.81
-20.72
-12.51
-4.32
2.95
8.79
13.08
15.92
17.53
18.18
18.14
17.66
17.03
16.51
16.31
16.55
17.27
18.34
19.55
20.67
21.53
22.06
22.30
22.33
22.14
21.67
20.82
19.54
17.93
16.14
14.34
12.61
10.92
9.13
7.14
4.92
2.57
0.30
-1.67
-3.19
-4.31
-5.26
-6.50
-8.44
-11.32
-14.93
-18.54
-21.10
-21.45
-18.91
-13.46
-5.88
2.59
10.68
17.63
23.39
28.51
33.70
39.34
45.11
50.15
53.47
54.52
53.56
51.67
50.38
51.16
55.00
62.22
72.29
83.68
93.80
99.34
97.08
84.99
63.21
34.16
1.86
-29.60
-57.27
-79.90
-97.57
-110.76
-119.61
-123.69
-122.53
-116.32
-106.37
-94.88
-84.28
-76.47
-72.21
-71.04
-71.60
-72.26
-71.64
-69.00
-64.25
-57.73
-49.93
-41.26
-32.08
-22.76
-13.86
-6.05
0.05
4.16
6.39
7.29
7.58
7.84
8.40
9.24
10.27
11.38
12.59
13.95
15.49
17.15
18.75
20.15
21.25
22.02
22.44
22.42
21.82
20.55
18.60
16.16
13.46
10.78
8.25
5.85
3.47
1.02
-1.52
-4.09
-6.60
-9.00
-11.40
-13.99
-16.99
-20.50
-24.30
-27.87
-30.47
-31.36
-30.04
-26.47
-21.03
-14.44
-7.50
-0.89
4.98
9.91
13.82
16.70
18.53
19.29
19.10
18.25
17.14
16.21
15.74
15.79
16.24
16.88
17.57
18.28
19.03
19.82
20.52
20.91
20.76
19.95
18.47
16.48
14.20
11.82
9.51
7.32
5.25
3.19
1.06
-1.17
-3.49
-5.79
-7.96
-9.96
-11.88
-13.94
-16.43
-19.56
-23.30
-27.27
-30.75
-32.81
-32.64
-29.77
-24.37
-17.19
-9.31
-1.80
4.59
9.56
13.17
15.63
17.06
17.53
17.02
15.70
13.96
12.33
11.37
11.38
12.31
13.79
15.26
16.26
16.58
16.31
15.70
15.01
14.36
13.64
12.61
11.10
9.11
6.80
4.47
2.39
0.66
-0.78
-2.10
-3.52
-5.17
-7.13
-9.47
-12.25
-15.49
-19.15
-22.93
-26.33
-28.65
-29.23
-27.60
-23.73
-18.00
-11.18
-4.11
2.46
8.00
12.27
15.19
16.80
17.20
16.58
15.25
13.57
11.92
10.62
9.82
9.55
9.75
10.35
11.26
12.33
13.39
14.24
14.67
14.55
13.89
12.80
11.47
10.10
8.81
7.61
6.42
5.03
3.26
0.99
-1.75
-4.78
-7.80
-10.54
-12.87
-14.88
-16.88
-19.29
-22.44
-26.40
-30.88
-35.21
-38.52
-39.96
-38.93
-35.29
-29.39
-22.00
-14.07
-6.50
0.09
5.37
9.34
12.12
13.91
14.87
15.15
14.92
14.42
13.89
13.59
13.65
14.10
14.83
15.67
16.49
17.24
17.92
18.55
19.05
19.24
18.88
17.77
15.96
13.68
11.28
9.08
7.19
5.50
3.77
1.79
-0.47
-2.89
-5.25
-7.46
-9.55
-11.67
-14.07
-16.94
-20.36
-24.24
-28.29
-31.99
-34.64
-35.48
-33.92
-29.78
-23.42
-15.67
-7.60
-0.22
5.83
10.31
13.35
15.23
16.19
16.40
16.00
15.14
14.11
13.29
13.00
13.44
14.56
16.08
17.54
18.54
18.81
18.36
17.39
16.24
15.22
14.42
13.68
12.69
11.16
8.96
6.19
3.19
0.31
-2.24
-4.41
-6.34
-8.21
-10.20
-12.43
-15.01
-18.06
-21.60
-25.45
-29.12
-31.91
-33.03
-31.93
-28.39
-22.71
-15.55
-7.81
-0.37
6.06
11.04
14.48
16.50
17.40
17.46
16.92
15.95
14.73
13.47
12.40
11.71
11.49
11.69
12.12
12.61
13.04
13.37
13.64
13.85
13.93
13.68
12.92
11.49
9.44
6.95
4.31
1.77
-0.55
-2.67
-4.78
-7.00
-9.45
-12.16
-15.17
-18.58
-22.45
-26.83
-31.44
-35.77
-39.00
-40.23
-38.84
-34.67
-28.15
-20.18
-11.90
-4.36
1.73
6.13
8.96
10.59
11.43
11.77
11.76
11.48
10.97
10.39
9.99
10.05
10.78
12.17
13.93
15.63
16.85
17.36
17.19
16.56
15.71
14.75
13.66
12.28
10.48
8.25
5.71
3.03
0.41
-2.00
-4.19
-6.22
-8.19
-10.24
-12.45
-14.88
-17.56
-20.53
-23.77
-27.23
-30.64
-33.49
-35.07
-34.66
-31.85
-26.71
-19.85
-12.25
-4.90
1.51
6.62
10.44
13.15
14.92
15.87
16.09
15.67
14.83
13.84
13.05
12.75
13.12
14.12
15.55
17.03
18.23
18.92
19.04
18.71
18.09
17.25
16.17
14.78
13.06
11.12
9.12
7.22
5.42
3.65
1.77
-0.26
-2.40
-4.56
-6.76
-9.09
-11.76
-14.99
-18.81
-23.05
-27.24
-30.71
-32.78
-32.87
-30.74
-26.49
-20.62
-13.85
-6.94
-0.49
5.09
9.65
13.15
15.59
17.00
17.41
16.93
15.82
14.43
13.19
12.42
12.31
12.79
13.63
14.54
15.27
15.68
15.81
15.70
15.43
14.97
14.21
13.03
11.36
9.25
6.87
4.48
2.27
0.35
-1.38
-3.10
-5.03
-7.34
-10.11
-13.28
-16.72
-20.18
-23.30
-25.61
-26.59
-25.79
-23.02
-18.43
-12.54
-6.16
-0.10
4.98
8.73
11.14
12.45
12.96
12.94
12.49
11.67
10.52
9.19
7.97
7.19
7.16
7.96
9.42
11.20
12.88
14.14
14.79
14.78
14.09
12.79
10.97
8.80
6.52
4.34
2.44
0.79
-0.79
-2.57
-4.71
-7.24
-10.02
-12.82
-15.53
-18.18
-21.03
-24.37
-28.40
-33.00
-37.71
-41.68
-44.01
-43.93
-41.14
-35.88
-28.88
-21.09
-13.39
-6.42
-0.44
4.53
8.54
11.65
13.80
14.97
15.19
14.70
13.86
13.10
12.77
13.07
14.06
15.55
17.25
18.84
20.05
20.72
20.87
20.59
20.03
19.24
18.19
16.81
15.03
12.83
10.34
7.71
5.12
2.70
0.52
-1.42
-3.19
-4.91
-6.79
-9.06
-11.90
-15.39
-19.45
-23.79
-27.94
-31.24
-32.97
-32.49
-29.50
-24.19
-17.29
-9.86
-2.99
2.63
6.77
9.67
11.71
13.17
14.09
14.38
13.98
13.09
12.09
11.43
11.40
12.05
13.13
14.27
15.21
15.81
16.13
16.29
16.38
16.38
16.17
15.62
14.66
13.24
11.38
9.08
6.39
3.38
0.25
-2.74
-5.37
-7.52
-9.31
-11.11
-13.35
-16.37
-20.22
-24.45
-28.28
-30.70
-30.86
-28.34
-23.30
-16.41
-8.67
-1.07
5.60
10.93
14.79
17.30
18.67
19.08
18.72
17.76
16.45
15.07
13.97
13.41
13.57
14.37
15.62
17.00
18.22
19.09
19.53
19.58
19.27
18.57
17.36
15.49
12.87
9.59
5.89
2.15
-1.30
-4.25
-6.72
-8.93
-11.15
-13.66
-16.59
-20.02
-23.96
-28.40
-33.16
-37.83
-41.71
-43.91
-43.61
-40.41
-34.51
-26.70
-18.13
-9.93
-2.90
2.61
6.69
9.60
11.63
12.95
13.64
13.79
13.54
13.06
12.54
12.13
11.89
11.85
12.01
12.44
13.18
14.24
15.47
16.58
17.24
17.18
16.32
14.82
13.00
11.13
9.39
7.72
5.97
3.96
1.67
-0.82
-3.32
-5.70
-7.95
-10.18
-12.60
-15.43
-18.82
-22.76
-27.09
-31.42
-35.13
-37.47
-37.70
-35.37
-30.47
-23.51
-15.38
-7.13
0.33
6.44
10.97
14.04
15.88
16.72
16.77
16.19
15.22
14.12
13.25
12.88
13.14
13.94
15.02
16.07
16.90
17.41
17.63
17.61
17.33
16.73
15.76
14.46
12.93
11.30
9.66
7.99
6.19
4.18
1.91
-0.55
-3.11
-5.63
-8.03
-10.28
-12.51
-14.94
-17.84
-21.34
-25.30
-29.21
-32.23
-33.46
-32.27
-28.50
-22.60
-15.42
-7.95
-1.05
4.75
9.26
12.53
14.70
15.88
16.13
15.57
14.40
12.93
11.58
10.69
10.47
10.92
11.86
13.03
14.13
14.93
15.28
15.13
14.48
13.36
11.81
9.85
7.51
4.87
2.06
-0.69
-3.13
-5.15
-6.78
-8.25
-9.91
-12.06
-14.95
-18.58
-22.71
-26.81
-30.20
-32.10
-31.90
-29.31
-24.48
-17.99
-10.64
-3.24
3.56
9.34
13.85
17.02
18.80
19.31
18.75
17.41
15.65
13.85
12.32
11.37
11.15
11.59
12.47
13.38
13.90
13.82
13.22
12.39
11.66
11.15
10.68
9.88
8.37
6.00
2.97
-0.29
-3.30
-5.74
-7.59
-9.11
-10.68
-12.66
-15.25
-18.47
-22.19
-26.25
-30.42
-34.34
-37.51
-39.26
-38.91
-36.03
-30.66
-23.37
-15.15
-7.08
-0.06
5.45
9.45
12.21
14.09
15.33
15.98
16.02
15.52
14.63
13.67
13.02
12.95
13.52
14.57
15.81
16.93
17.72
18.14
18.19
17.92
17.33
16.35
14.92
13.03
10.75
8.19
5.51
2.84
0.27
-2.17
-4.50
-6.76
-9.05
-11.49
-14.29
-17.58
-21.41
-25.62
-29.81
-33.32
-35.43
-35.50
-33.21
-28.67
-22.40
-15.20
-7.93
-1.24
4.46
9.01
12.42
14.78
16.14
16.56
16.16
15.16
13.91
12.81
12.21
12.25
12.89
13.84
14.77
15.44
15.74
15.72
15.49
15.08
14.42
13.34
11.61
9.14
6.06
2.67
-0.56
-3.26
-5.27
-6.74
-8.09
-9.84
-12.37
-15.81
-19.94
-24.26
-28.05
-30.60
-31.25
-29.62
-25.68
-19.81
-12.71
-5.18
2.07
8.55
14.04
18.41
21.55
23.30
23.54
22.40
20.33
18.11
16.59
16.44
17.87
20.56
23.74
26.57
28.41
29.17
29.26
29.46
30.49
32.65
35.60
38.41
39.96
39.50
37.11
33.81
31.11
30.40
32.21
35.97
40.26
43.42
44.30
42.71
39.49
36.22
34.93
37.68
46.13
60.81
80.41
101.33
118.13
125.01
117.81
95.71
61.66
21.26
-19.42
-55.86
-86.12
-110.42
-129.79
-144.73
-154.69
-158.49
-155.28
-145.47
-130.86
-114.17
-98.11
-84.53
-74.03
-66.09
-59.71
-54.02
-48.68
-43.96
-40.33
-38.08
-37.02
-36.44
-35.48
-33.58
-30.76
-27.61
-25.03
-23.76
-24.05
-25.56
-27.62
-29.55
-31.10
-32.38
-33.71
-35.21
-36.53
-36.85
-35.19
-30.83
-23.76
-14.67
-4.80
4.55
12.35
18.15
22.03
24.42
25.84
26.68
27.12
27.20
26.92
26.36
25.69
25.16
25.01
25.33
26.05
26.92
27.68
28.16
28.34
28.32
28.16
27.76
26.90
25.30
22.82
19.57
15.91
12.25
8.92
5.99
3.31
0.62
-2.27
-5.45
-8.89
-12.55
-16.33
-20.06
-23.42
-25.87
-26.78
-25.62
-22.18
-16.64
-9.64
-2.07
5.21
11.50
16.40
19.81
21.80
22.57
22.38
21.50
20.22
18.88
17.71
16.90
16.56
16.64
17.08
17.67
18.24
18.59
18.59
18.20
17.37
16.15
14.53
12.53
10.14
7.44
4.56
1.70
-1.00
-3.43
-5.63
-7.72
-9.92
-12.46
-15.51
-19.12
-23.06
-26.77
-29.43
-30.19
-28.46
-24.14
-17.76
-10.24
-2.68
4.02
9.34
13.20
15.78
17.39
18.24
18.43
17.95
16.85
15.33
13.76
12.60
12.20
12.66
13.79
15.16
16.31
16.92
16.91
16.40
15.57
14.57
13.41
12.02
10.32
8.30
6.02
3.56
1.04
-1.54
-4.20
-6.97
-9.87
-12.87
-15.98
-19.30
-23.03
-27.33
-32.11
-36.85
-40.63
-42.34
-41.19
-36.96
-30.16
-21.85
-13.22
-5.20
1.67
7.24
11.55
14.67
16.63
17.51
17.46
16.78
15.86
15.09
14.79
15.06
15.89
17.08
18.33
19.40
20.08
20.31
20.13
19.61
18.81
17.73
16.36
14.66
12.66
10.40
7.95
5.38
2.77
0.20
-2.25
-4.55
-6.73
-8.88
-11.17
-13.84
-17.07
-20.92
-25.18
-29.34
-32.63
-34.20
-33.42
-30.05
-24.37
-17.09
-9.14
-1.38
5.52
11.14
15.28
17.93
19.14
19.13
18.19
16.69
15.03
13.55
12.49
11.93
11.85
12.16
12.74
13.47
14.23
14.90
15.34
15.39
14.90
13.82
12.19
10.08
7.64
4.98
2.23
-0.47
-2.96
-5.12
-6.89
-8.40
-9.91
-11.78
-14.34
-17.72
-21.73
-25.86
-29.33
-31.29
-31.09
-28.46
-23.54
-16.89
-9.31
-1.65
5.29
10.97
15.11
17.70
18.93
19.09
18.44
17.22
15.63
13.91
12.38
11.36
11.11
11.61
12.58
13.61
14.35
14.65
14.62
14.46
14.31
14.16
13.88
13.31
12.37
11.02
9.30
7.24
4.93
2.58
0.46
-1.17
-2.27
-3.09
-4.07
-5.56
-7.43
-8.97
-8.96
-6.21
-0.05
9.28
20.65
32.37
42.84
50.98
56.53
59.93
62.04
63.87
66.44
70.64
76.97
85.21
93.90
100.33
101.09
93.24
75.59
49.39
18.03
-14.18
-43.55
-68.06
-87.44
-102.43
-113.79
-121.60
-125.35
-124.57
-119.43
-111.02
-101.07
-91.32
-82.98
-76.48
-71.65
-68.12
-65.66
-64.22
-63.78
-63.97
-63.93
-62.46
-58.42
-51.28
-41.34
-29.71
-17.91
-7.36
1.02
6.97
10.78
12.99
14.19
14.78
15.03
15.11
15.20
15.52
16.23
17.41
18.99
20.74
22.40
23.73
24.65
25.21
25.45
25.40
24.91
23.76
21.79
19.02
15.67
12.12
8.75
5.82
3.34
1.14
-1.12
-3.74
-6.93
-10.73
-14.96
-19.22
-22.91
-25.30
-25.78
-24.00
-20.03
-14.32
-7.63
-0.80
5.50
10.83
15.01
18.01
19.83
20.48
20.02
18.61
16.62
14.55
12.91
12.07
12.10
12.81
13.82
14.71
15.24
15.33
15.04
14.49
13.73
12.67
11.26
9.43
7.27
4.94
2.63
0.49
-1.49
-3.40
-5.40
-7.68
-10.35
-13.45
-16.93
-20.58
-24.02
-26.67
-27.92
-27.26
-24.42
-19.57
-13.18
-6.01
1.15
7.62
12.92
16.82
19.27
20.33
20.14
18.92
16.98
14.73
12.66
11.17
10.50
10.64
11.38
12.35
13.20
13.67
13.67
13.24
12.46
11.46
10.27
8.91
7.37
5.64
3.72
1.65
-0.49
-2.60
-4.60
-6.43
-8.13
-9.82
-11.72
-14.10
-17.19
-21.13
-25.78
-30.72
-35.27
-38.57
-39.77
-38.28
-33.93
-27.04
-18.43
-9.20
-0.49
6.78
12.11
15.41
16.96
17.20
16.61
15.57
14.38
13.28
12.46
12.07
12.20
12.89
14.06
15.52
17.04
18.36
19.28
19.72
19.71
19.30
18.60
17.60
16.27
14.56
12.50
10.19
7.76
5.31
2.83
0.29
-2.38
-5.11
-7.82
-10.38
-12.78
-15.16
-17.74
-20.80
-24.44
-28.49
-32.48
-35.69
-37.30
-36.64
-33.36
-27.58
-19.88
-11.21
-2.62
4.97
10.99
15.21
17.78
18.96
19.12
18.56
17.55
16.34
15.18
14.33
13.99
14.24
15.00
16.12
17.34
18.42
19.13
19.34
18.97
18.10
16.85
15.41
13.92
12.43
10.85
9.04
6.87
4.31
1.52
-1.30
-3.91
-6.24
-8.35
-10.46
-12.84
-15.76
-19.30
-23.33
-27.48
-31.12
-33.51
-33.94
-31.90
-27.32
-20.62
-12.64
-4.49
2.85
8.69
12.80
15.30
16.50
16.74
16.22
15.11
13.58
11.89
10.40
9.43
9.18
9.62
10.57
11.77
12.98
14.03
14.79
15.13
14.94
14.10
12.57
10.44
7.92
5.23
2.57
0.04
-2.31
-4.49
-6.53
-8.46
-10.45
-12.73
-15.56
-19.04
-22.99
-26.82
-29.67
-30.72
-29.42
-25.75
-20.15
-13.39
-6.27
0.54
6.58
11.54
15.22
17.56
18.61
18.57
17.77
16.56
15.26
14.11
13.30
12.99
13.23
13.95
14.90
15.75
16.19
16.08
15.51
14.70
13.84
12.95
11.86
10.32
8.14
5.33
2.09
-1.32
-4.64
-7.71
-10.44
-12.82
-14.86
-16.70
-18.61
-20.91
-23.88
-27.58
-31.68
-35.45
-37.96
-38.34
-36.05
-31.13
-24.16
-16.14
-8.15
-1.08
4.57
8.66
11.34
12.86
13.44
13.32
12.73
11.91
11.12
10.56
10.39
10.66
11.40
12.58
14.12
15.85
17.51
18.86
19.67
19.90
19.60
18.87
17.77
16.27
14.36
12.03
9.39
6.61
3.85
1.20
-1.30
-3.69
-6.00
-8.30
-10.68
-13.28
-16.28
-19.79
-23.77
-27.98
-31.90
-34.92
-36.38
-35.83
-33.02
-28.06
-21.40
-13.70
-5.79
1.56
7.77
12.51
15.73
17.56
18.20
17.89
16.92
15.59
14.30
13.40
13.15
13.61
14.65
15.97
17.27
18.30
18.92
19.14
18.99
18.53
17.81
16.82
15.53
13.89
11.86
9.47
6.80
3.99
1.21
-1.42
-3.90
-6.31
-8.76
-11.39
-14.26
-17.35
-20.69
-24.22
-27.87
-31.39
-34.26
-35.72
-34.99
-31.54
-25.44
-17.39
-8.59
-0.34
6.39
11.24
14.36
16.20
17.14
17.40
16.98
15.89
14.32
12.67
11.41
10.88
11.13
11.94
12.93
13.74
14.19
14.33
14.31
14.29
14.26
14.04
13.30
11.78
9.35
6.21
2.73
-0.63
-3.52
-5.84
-7.64
-9.18
-10.72
-12.52
-14.80
-17.73
-21.32
-25.37
-29.42
-32.76
-34.64
-34.43
-31.86
-27.05
-20.49
-12.90
-5.08
2.25
8.53
13.36
16.57
18.18
18.38
17.52
16.01
14.30
12.78
11.73
11.30
11.54
12.33
13.54
14.91
16.21
17.28
18.03
18.48
18.70
18.77
18.65
18.22
17.32
15.86
13.89
11.61
9.31
7.33
5.91
5.23
5.37
6.33
7.97
10.07
12.29
14.30
15.79
16.56
16.55
15.79
14.39
12.51
10.42
8.36
6.59
5.27
4.46
4.08
4.01
4.11
4.30
4.52
4.69
4.69
4.38
3.66
2.52
1.10
-0.38
-1.75
-2.91
-3.92
-4.92
-6.01
-7.27
-8.64
-10.05
-11.42
-12.75
-14.08
-15.49
-17.06
-18.79
-20.68
-22.65
-24.63
-26.54
-28.36
-30.18
-32.16
-34.56
-37.61
-41.32
-45.39
-49.14
-51.58
-51.76
-48.99
-43.20
-34.98
-25.38
-15.64
-6.80
0.53
6.15
10.17
12.76
14.03
14.09
13.07
11.28
9.18
7.34
6.23
6.10
6.85
8.09
9.29
9.97
9.90
9.15
8.07
7.02
6.23
5.64
4.96
3.84
2.03
-0.40
-3.19
-5.94
-8.34
-10.30
-11.94
-13.52
-15.31
-17.55
-20.36
-23.69
-27.30
-30.74
-33.34
-34.40
-33.33
-29.85
-24.12
-16.71
-8.50
-0.43
6.64
12.16
15.88
17.89
18.47
17.96
16.75
15.12
13.35
11.75
10.61
10.18
10.59
11.78
13.51
15.48
17.43
19.22
20.82
22.20
23.32
24.07
24.31
23.96
23.00
21.49
19.50
17.07
14.16
10.76
6.79
2.25
-2.82
-8.40
-14.45
-20.93
-27.73
-34.57
-40.97
-46.24
-49.67
-50.67
-48.95
-44.65
-38.28
-30.62
-22.51
-14.70
-7.78
-2.05
2.36
5.50
7.51
8.56
8.85
8.57
8.00
7.47
7.32
7.80
8.98
10.76
12.82
14.83
16.50
17.67
18.29
18.39
18.06
17.32
16.16
14.53
12.38
9.68
6.58
3.31
0.20
-2.49
-4.74
-6.77
-8.96
-11.74
-15.36
-19.80
-24.73
-29.51
-33.41
-35.68
-35.74
-33.36
-28.75
-22.51
-15.41
-8.25
-1.60
4.20
8.99
12.71
15.27
16.60
16.73
15.84
14.35
12.78
11.61
11.17
11.52
12.44
13.53
14.41
14.81
14.69
14.19
13.57
12.94
12.26
11.31
9.81
7.61
4.84
1.80
-1.08
-3.48
-5.29
-6.59
-7.67
-8.89
-10.62
-13.11
-16.46
-20.46
-24.53
-27.86
-29.56
-28.97
-25.90
-20.69
-14.13
-7.12
-0.45
5.38
10.14
13.77
16.27
17.66
17.97
17.35
16.11
14.63
13.30
12.39
12.03
12.15
12.62
13.27
13.96
14.61
15.12
15.41
15.37
14.93
14.04
12.72
11.01
8.96
6.61
3.98
1.14
-1.77
-4.58
-7.17
-9.63
-12.22
-15.31
-19.15
-23.71
-28.48
-32.69
-35.48
-36.19
-34.54
-30.67
-24.99
-18.07
-10.52
-2.94
4.06
9.93
14.28
16.98
18.16
18.15
17.43
16.42
15.46
14.79
14.56
14.83
15.62
16.83
18.31
19.84
21.19
22.18
22.71
22.76
22.33
21.49
20.28
18.72
16.85
14.74
12.51
10.30
8.22
6.24
4.23
2.00
-0.59
-3.51
-6.58
-9.58
-12.40
-15.15
-18.11
-21.66
-25.98
-31.02
-36.34
-41.19
-44.72
-46.10
-44.80
-40.71
-34.23
-26.12
-17.33
-8.78
-1.13
5.25
10.24
13.93
16.44
17.99
18.79
19.13
19.26
19.39
19.67
20.12
20.76
21.51
22.37
23.29
24.29
25.32
26.26
26.91
27.03
26.46
25.12
23.13
20.74
18.21
15.79
13.53
11.43
9.36
7.20
4.87
2.36
-0.21
-2.73
-5.08
-7.25
-9.36
-11.62
-14.26
-17.42
-21.15
-25.37
-29.84
-34.16
-37.74
-39.89
-39.94
-37.46
-32.43
-25.32
-16.96
-8.27
-0.11
6.93
12.53
16.57
19.10
20.31
20.49
19.98
19.10
18.08
17.07
16.21
15.66
15.60
16.17
17.32
18.80
20.24
21.29
21.73
21.60
21.02
20.18
19.15
17.89
16.34
14.43
12.21
9.79
7.29
4.75
2.17
-0.50
-3.26
-6.03
-8.70
-11.18
-13.55
-16.05
-18.95
-22.46
-26.44
-30.35
-33.38
-34.67
-33.56
-29.94
-24.19
-17.06
-9.43
-2.06
4.54
10.13
14.66
18.13
20.54
21.89
22.22
21.71
20.70
19.61
18.96
19.08
20.15
22.06
24.44
26.83
28.79
30.09
30.78
31.15
31.58
32.31
33.35
34.39
34.97
34.62
33.18
30.91
28.47
26.67
26.15
27.07
28.98
31.05
32.36
32.30
30.81
28.37
25.92
24.66
25.96
31.03
40.39
53.12
66.52
76.46
78.61
70.13
50.93
23.87
-6.45
-35.48
-60.27
-79.96
-95.19
-106.74
-114.65
-118.12
-116.26
-109.03
-97.79
-84.99
-73.18
-64.08
-57.94
-53.74
-49.88
-45.19
-39.42
-33.33
-28.03
-24.33
-22.24
-21.07
-19.82
-17.81
-14.97
-11.83
-9.16
-7.59
-7.33
-8.13
-9.48
-10.81
-11.74
-12.12
-12.06
-11.83
-11.77
-12.20
-13.33
-15.24
-17.85
-20.95
-24.14
-26.78
-28.05
-27.13
-23.42
-16.83
-7.87
2.45
12.91
22.36
30.05
35.59
39.00
40.48
40.39
39.13
37.11
34.74
32.33
30.06
28.00
26.09
24.24
22.34
20.32
18.17
15.98
13.89
12.05
10.61
9.54
8.65
7.68
6.35
4.57
2.41
0.08
-2.28
-4.67
-7.25
-10.26
-13.76
-17.58
-21.33
-24.55
-26.94
-28.47
-29.44
-30.31
-31.53
-33.39
-35.88
-38.59
-40.82
-41.66
-40.33
-36.39
-29.96
-21.68
-12.53
-3.54
4.50
11.11
16.18
19.79
22.12
23.36
23.66
23.20
22.21
21.00
19.89
19.18
19.03
19.41
20.14
20.93
21.55
21.91
22.03
21.98
21.79
21.36
20.50
19.07
16.98
14.35
11.38
8.28
5.26
2.39
-0.30
-2.84
-5.30
-7.81
-10.55
-13.69
-17.32
-21.34
-25.40
-28.90
-31.16
-31.52
-29.63
-25.49
-19.52
-12.42
-5.00
2.02
8.11
13.00
16.60
18.94
20.08
20.12
19.26
17.77
16.04
14.45
13.30
12.75
12.75
13.11
13.59
13.99
14.22
14.34
14.44
14.53
14.51
14.14
13.12
11.31
8.76
5.79
2.81
0.08
-2.31
-4.56
-7.03
-10.01
-13.65
-17.82
-22.17
-26.18
-29.26
-30.86
-30.57
-28.18
-23.80
-17.81
-10.82
-3.55
3.36
9.38
14.17
17.57
19.52
20.14
19.67
18.51
17.13
15.95
15.25
15.11
15.38
15.80
16.08
16.03
15.59
14.86
13.98
13.11
12.35
11.58
10.61
9.16
7.12
4.55
1.73
-1.02
-3.50
-5.76
-8.04
-10.64
-13.74
-17.31
-21.15
-24.93
-28.30
-30.84
-32.12
-31.67
-29.15
-24.55
-18.19
-10.82
-3.37
3.27
8.48
12.04
14.05
14.82
14.68
13.88
12.63
11.07
9.40
7.83
6.61
5.91
5.78
6.15
6.88
7.74
8.52
9.00
9.03
8.52
7.44
5.88
3.91
1.69
-0.67
-3.10
-5.55
-8.01
-10.58
-13.43
-16.73
-20.53
-24.64
-28.51
-31.33
-32.30
-30.87
-27.03
-21.30
-14.52
-7.59
-1.23
4.12
8.26
11.10
12.68
13.06
12.43
11.12
9.54
8.04
6.88
6.15
5.81
5.80
6.10
6.66
7.45
8.28
8.90
9.01
8.37
6.92
4.81
2.30
-0.33
-2.92
-5.46
-8.12
-11.06
-14.40
-18.17
-22.20
-26.13
-29.43
-31.44
-31.52
-29.23
-24.51
-17.77
-9.86
-1.85
5.31
10.97
14.92
17.29
18.44
18.67
18.27
17.39
16.21
14.89
13.66
12.72
12.21
12.13
12.37
12.68
12.82
12.56
11.80
10.59
9.03
7.24
5.27
3.04
0.42
-2.61
-5.96
-9.39
-12.72
-15.95
-19.33
-23.23
-27.82
-32.86
-37.52
-40.70
-41.36
-38.96
-33.67
-26.31
-17.98
-9.70
-2.24
4.05
9.02
12.69
15.06
16.23
16.38
15.78
14.79
13.72
12.87
12.42
12.44
12.88
13.65
14.55
15.40
16.06
16.41
16.35
15.79
14.59
12.68
10.07
6.94
3.59
0.31
-2.67
-5.31
-7.74
-10.12
-12.67
-15.56
-18.97
-22.96
-27.45
-32.07
-36.12
-38.71
-39.00
-36.52
-31.32
-24.03
-15.64
-7.19
0.48
6.87
11.79
15.35
17.70
19.01
19.41
19.02
18.04
16.77
15.62
15.06
15.36
16.57
18.40
20.40
22.07
23.11
23.37
22.93
21.95
20.60
19.03
17.36
15.60
13.71
11.58
9.14
6.38
3.39
0.37
-2.57
-5.40
-8.24
-11.31
-14.79
-18.74
-23.08
-27.51
-31.61
-34.78
-36.35
-35.75
-32.65
-27.16
-19.86
-11.66
-3.51
3.78
9.79
14.35
17.48
19.26
19.81
19.32
18.12
16.65
15.39
14.71
14.74
15.44
16.57
17.89
19.18
20.27
21.04
21.38
21.23
20.63
19.66
18.44
16.97
15.13
12.78
9.85
6.46
2.91
-0.53
-3.63
-6.43
-9.06
-11.70
-14.50
-17.50
-20.80
-24.50
-28.65
-33.06
-37.17
-40.16
-41.18
-39.71
-35.79
-29.98
-23.18
-16.28
-9.97
-4.71
-0.84
1.34
1.60
-0.15
-3.66
-8.39
-13.59
-18.57
-22.86
-26.40
-29.46
-32.50
-35.99
-40.25
-45.34
-51.09
-57.17
-63.27
-69.23
-75.21
-81.61
-88.85
-97.17
-106.47
-116.37
-126.36
-136.10
-145.46
-154.57
-163.59
-172.67
-181.89
-191.16
-200.04
-207.51
-211.79
-210.59
-201.84
-184.58
-159.64
-129.63
-98.12
-68.49
-42.86
-21.75
-4.42
10.34
23.50
35.48
46.30
56.02
65.07
74.51
85.99
101.58
123.23
152.00
187.08
225.33
261.72
290.68
308.04
312.64
306.64
294.47
280.87
269.17
260.47
254.09
248.53
242.32
234.12
222.61
206.51
185.08
158.84
129.82
100.86
74.31
50.87
29.55
8.69
-12.39
-32.52
-49.03
-59.40
-62.90
-61.29
-57.86
-55.61
-55.41
-55.34
-51.51
-39.93
-18.65
10.75
42.99
70.20
84.22
79.16
53.71
12.12
-36.75
-82.13
-114.90
-130.40
-129.38
-116.60
-97.95
-77.58
-56.55
-33.56
-7.02
22.79
52.98
79.12
97.49
107.03
109.94
110.51
112.83
118.89
127.80
136.71
142.54
143.64
140.31
134.24
127.19
120.07
112.58
103.89
93.39
81.28
68.40
55.64
43.41
31.43
19.15
6.34
-6.52
-18.37
-28.13
-35.29
-40.06
-43.16
-45.23
-46.43
-46.45
-44.90
-41.86
-38.00
-34.30
-31.45
-29.25
-26.69
-22.39
-15.53
-6.53
2.79
9.78
11.76
6.96
-4.74
-21.57
-39.92
-55.05
-62.18
-58.01
-41.94
-16.67
12.38
38.66
56.55
63.05
58.44
45.89
30.12
15.84
6.47
3.50
6.43
13.28
21.38
28.14
31.77
31.56
27.93
22.11
15.67
10.08
6.17
3.92
2.27
-0.45
-6.00
-15.46
-28.62
-43.98
-59.11
-71.42
-79.00
-81.29
-79.31
-75.62
-73.73
-77.14
-88.10
-106.59
-129.79
-152.61
-169.07
-174.06
-164.67
-140.68
-104.22
-59.09
-9.92
38.44
81.59
116.25
140.91
156.04
163.62
166.14
165.39
161.87
154.98
143.92
128.68
110.38
90.90
71.96
54.41
38.00
21.90
5.39
-11.56
-28.26
-43.57
-56.61
-67.07
-75.23
-81.75
-87.14
-91.62
-95.03
-97.20
-98.11
-98.06
-97.55
-96.92
-96.16
-94.71
-91.71
-86.33
-78.24
-67.83
-56.16
-44.61
-34.25
-25.58
-18.32
-11.80
-5.37
1.23
7.74
13.53
18.08
21.20
23.02
23.85
23.86
22.94
20.85
17.39
12.69
7.33
2.13
-2.10
-4.90
-6.41
-7.27
-8.37
-10.43
-13.68
-17.67
-21.56
-24.47
-25.82
-25.59
-24.27
-22.54
-21.04
-20.09
-19.74
-19.86
-20.24
-20.62
-20.79
-20.57
-19.87
-18.78
-17.61
-16.74
-16.54
-17.25
-18.94
-21.46
-24.53
-27.73
-30.60
-32.67
-33.66
-33.59
-32.85
-32.11
-32.19
-33.70
-36.89
-41.49
-46.71
-51.48
-54.68
-55.56
-53.98
-50.54
-46.35
-42.73
-40.76
-40.93
-43.11
-46.82
-51.56
-57.07
-63.38
-70.49
-78.10
-85.48
-91.70
-96.01
-98.22
-98.83
-98.71
-98.71
-99.32
-100.56
-102.19
-103.92
-105.65
-107.40
-109.25
-111.16
-113.13
-115.14
-116.95
-117.96
-116.85
-111.75
-100.82
-83.07
-58.96
-30.41
-0.19
29.06
55.28
76.91
92.36
99.79
97.57
85.33
64.98
40.79
18.25
2.16
-5.22
-4.77
0.13
5.37
7.81
6.23
1.19
-5.90
-13.78
-21.90
-30.31
-39.13
-48.06
-56.10
-61.83
-63.88
-61.53
-55.03
-45.58
-35.05
-25.39
-18.10
-13.79
-11.93
-11.04
-9.29
-5.23
1.80
11.71
24.18
39.25
57.47
79.33
104.66
132.19
159.80
185.31
207.04
223.80
234.42
237.41
231.36
216.05
193.32
166.90
141.02
118.50
99.62
82.37
63.98
42.56
17.86
-9.03
-36.52
-63.14
-87.61
-108.61
-124.79
-135.43
-140.93
-143.05
-144.09
-145.63
-147.58
-148.26
-145.36
-137.20
-123.62
-105.92
-86.14
-66.21
-47.46
-30.52
-15.56
-2.55
8.68
18.50
27.45
36.26
45.58
55.77
66.73
77.87
88.37
97.40
104.37
109.15
112.01
113.59
114.58
115.47
116.13
115.79
113.34
107.80
98.99
87.73
75.53
63.85
53.39
43.86
34.49
24.82
15.30
7.33
2.41
1.25
3.08
5.89
7.34
5.83
1.21
-5.30
-11.76
-16.50
-18.81
-19.06
-18.39
-18.06
-18.89
-21.00
-24.01
-27.26
-30.19
-32.38
-33.48
-33.13
-30.93
-26.65
-20.55
-13.35
-6.20
-0.22
3.77
5.48
5.07
2.99
-0.18
-3.95
-7.91
-11.75
-15.20
-18.04
-20.03
-20.99
-20.76
-19.30
-16.80
-13.66
-10.52
-8.12
-7.16
-8.04
-10.71
-14.63
-18.87
-22.40
-24.32
-24.18
-22.03
-18.30
-13.67
-8.74
-3.97
0.47
4.53
8.15
11.11
13.01
13.32
11.75
8.45
4.17
0.08
-2.59
-3.01
-0.97
3.05
8.15
13.24
17.39
19.95
20.71
20.00
18.68
17.87
18.48
20.75
23.97
26.62
27.09
24.42
18.83
11.58
4.53
-0.71
-3.19
-2.83
-0.14
4.13
9.22
14.40
18.97
22.21
23.41
22.07
17.86
10.60
0.37
-12.28
-26.13
-39.36
-49.90
-56.13
-57.44
-54.50
-48.96
-42.73
-37.31
-33.35
-30.67
-28.69
-26.98
-25.70
-25.64
-27.91
-33.39
-42.32
-54.15
-67.75
-81.76
-94.83
-105.57
-112.51
-114.15
-109.33
-97.97
-81.45
-62.52
-44.39
-29.51
-18.67
-10.83
-3.88
4.28
14.80
27.74
42.40
58.03
74.21
90.90
108.09
125.54
142.72
159.12
174.65
189.85
205.62
222.53
240.03
256.01
267.28
270.54
263.70
246.68
221.42
191.25
159.83
130.22
104.42
83.36
67.27
56.06
49.45
47.08
48.36
52.55
58.85
66.53
75.09
84.33
94.28
105.07
116.62
128.54
140.02
150.11
158.02
163.35
166.04
166.05
163.07
156.37
145.07
128.59
107.00
81.13
52.26
21.92
-8.14
-35.94
-59.49
-77.21
-88.73
-95.32
-99.67
-104.86
-112.96
-123.99
-135.90
-145.78
-151.29
-151.85
-148.66
-143.76
-138.84
-134.24
-128.99
-121.71
-111.80
-100.45
-90.69
-86.30
-90.06
-102.22
-119.98
-138.54
-153.08
-160.68
-161.31
-157.21
-151.34
-145.65
-140.27
-134.00
-125.52
-114.56
-102.20
-90.39
-80.92
-74.65
-71.24
-69.54
-68.21
-66.34
-63.59
-60.10
-56.13
-51.72
-46.59
-40.20
-32.06
-22.09
-10.85
0.53
10.62
18.17
22.57
24.10
23.76
22.79
22.04
21.62
20.90
19.10
15.88
11.72
7.81
5.47
5.49
7.84
11.78
16.50
21.65
27.44
34.40
42.74
51.98
60.87
67.98
72.25
73.52
72.57
70.74
69.43
69.38
70.46
71.70
71.64
69.00
63.20
54.74
45.07
36.08
29.24
24.88
22.04
18.84
13.38
4.56
-7.56
-21.79
-36.04
-47.42
-52.47
-47.67
-30.69
-1.92
34.42
70.88
98.89
112.11
108.92
92.98
71.47
51.89
39.23
34.78
36.78
42.16
48.31
53.76
58.07
61.22
63.21
64.08
64.04
63.68
63.79
65.00
67.39
70.26
72.27
71.92
68.11
60.63
50.36
38.90
28.05
19.14
12.68
8.30
5.06
1.93
-1.85
-6.53
-12.11
-18.45
-25.52
-33.42
-42.18
-51.52
-60.74
-68.81
-74.62
-77.41
-76.97
-73.73
-68.45
-62.02
-55.10
-48.12
-41.37
-35.15
-29.82
-25.72
-23.06
-21.72
-21.29
-21.23
-21.03
-20.44
-19.43
-18.22
-17.16
-16.53
-16.56
-17.26
-18.49
-19.98
-21.44
-22.65
-23.55
-24.24
-24.89
-25.64
-26.45
-27.15
-27.45
-27.11
-26.03
-24.34
-22.39
-20.63
-19.45
-19.02
-19.29
-20.05
-21.12
-22.46
-24.15
-26.31
-28.96
-31.97
-35.15
-38.39
-41.66
-45.04
-48.47
-51.64
-54.01
-54.91
-53.84
-50.59
-45.41
-38.92
-31.95
-25.28
-19.51
-14.92
-11.55
-9.29
-8.01
-7.60
-7.95
-8.87
-10.07
-11.23
-12.04
-12.34
-12.14
-11.52
-10.57
-9.36
-7.91
-6.26
-4.53
-2.94
-1.71
-1.02
-0.93
-1.40
-2.32
-3.56
-4.92
-6.19
-7.16
-7.71
-7.88
-7.88
-8.02
-8.61
-9.84
-11.79
-14.39
-17.50
-20.83
-23.96
-26.38
-27.65
-27.62
-26.58
-25.19
-24.24
-24.30
-25.51
-27.63
-30.16
-32.59
-34.50
-35.48
-35.15
-33.11
-29.16
-23.39
-16.29
-8.59
-1.06
5.74
11.61
16.60
20.86
24.46
27.32
29.29
30.21
30.11
29.12
27.54
25.72
23.99
22.61
21.77
21.53
21.88
22.67
23.75
24.96
26.19
27.36
28.42
29.24
29.63
29.39
28.38
26.59
24.17
21.42
18.71
16.33
14.43
12.88
11.39
9.64
7.42
4.73
1.72
-1.43
-4.58
-7.63
-10.56
-13.29
-15.76
-17.93
-19.82
-21.49
-22.86
-23.70
-23.63
-22.27
-19.46
-15.36
-10.44
-5.23
-0.14
4.63
9.01
12.96
16.34
18.91
20.48
20.96
20.52
19.49
18.36
17.53
17.20
17.31
17.59
17.74
17.60
17.20
16.73
16.41
16.26
16.07
15.49
14.18
12.03
9.23
6.14
3.12
0.37
-2.14
-4.61
-7.23
-10.07
-13.05
-15.96
-18.66
-21.07
-23.26
-25.40
-27.66
-30.16
-32.92
-35.84
-38.79
-41.53
-43.78
-45.17
-45.32
-43.91
-40.85
-36.38
-31.07
-25.66
-20.89
-17.32
-15.18
-14.44
-14.86
-16.11
-17.89
-19.91
-21.95
-23.93
-25.95
-28.29
-31.31
-35.14
-39.47
-43.48
-46.12
-46.58
-44.76
-41.46
-38.16
-36.39
-37.06
-40.16
-44.86
-50.03
-54.90
-59.41
-64.16
-69.89
-76.98
-85.04
-93.07
-99.80
-104.08
-105.14
-102.60
-96.40
-86.70
-73.95
-58.74
-41.66
-22.98
-2.39
21.03
48.59
81.31
119.09
159.84
199.46
232.67
254.73
263.26
259.12
246.05
229.00
212.13
197.47
184.90
173.30
161.78
150.40
139.84
130.55
122.00
112.87
101.90
88.75
74.37
60.56
49.11
40.87
35.36
30.89
25.30
16.76
4.56
-10.58
-26.75
-41.54
-53.04
-60.47
-64.47
-66.64
-68.69
-71.75
-75.92
-80.51
-84.61
-87.73
-90.02
-92.20
-94.99
-98.78
-103.36
-108.09
-112.16
-114.87
-115.76
-114.68
-111.72
-107.25
-101.84
-96.20
-91.02
-86.82
-83.85
-82.11
-81.53
-82.05
-83.79
-86.79
-90.74
-94.64
-96.84
-95.43
-89.04
-77.47
-61.80
-43.92
-25.54
-7.35
11.01
30.33
50.93
72.19
93.02
112.65
131.24
149.56
167.97
185.46
199.60
207.64
208.06
201.75
191.64
181.32
173.16
167.20
161.41
153.02
140.15
122.76
102.49
81.76
62.69
46.45
33.29
22.92
14.99
9.31
5.66
3.54
2.02
-0.09
-3.81
-9.59
-17.07
-25.16
-32.36
-37.22
-38.75
-36.64
-31.34
-23.96
-15.95
-8.57
-2.57
2.06
5.79
9.16
12.20
14.26
14.13
10.62
3.15
-7.92
-21.21
-34.80
-46.81
-55.91
-61.65
-64.37
-64.87
-64.03
-62.53
-60.70
-58.73
-56.79
-55.12
-54.00
-53.55
-53.61
-53.72
-53.33
-52.09
-49.98
-47.41
-44.96
-43.07
-41.92
-41.33
-40.99
-40.48
-39.48
-37.73
-35.08
-31.59
-27.48
-23.16
-19.07
-15.51
-12.56
-10.11
-7.98
-6.08
-4.51
-3.51
-3.38
-4.28
-6.18
-8.71
-11.22
-12.92
-13.03
-11.04
-6.98
-1.32
5.09
11.27
16.39
19.89
21.51
21.29
19.44
16.29
12.26
7.81
3.43
-0.43
-3.35
-5.07
-5.55
-4.98
-3.77
-2.38
-1.19
-0.37
0.12
0.49
0.87
1.32
1.74
1.99
1.97
1.68
1.19
0.62
0.05
-0.42
-0.71
-0.80
-0.65
-0.34
0.02
0.32
0.54
0.75
1.06
1.47
1.79
1.59
0.29
-2.54
-7.00
-12.74
-19.04
-25.02
-29.95
-33.32
-34.98
-35.03
-33.67
-31.13
-27.58
-23.15
-18.03
-12.56
-7.18
-2.30
1.78
5.04
7.74
10.27
12.99
16.07
19.53
23.29
27.27
31.38
35.41
38.94
41.42
42.35
41.54
39.23
36.01
32.57
29.44
26.87
24.85
23.24
21.86
20.47
18.74
16.20
12.33
6.82
-0.37
-8.95
-18.28
-27.64
-36.24
-43.36
-48.44
-51.14
-51.38
-49.32
-45.34
-39.86
-33.35
-26.23
-18.92
-11.85
-5.46
-0.14
3.92
6.69
8.37
9.19
9.39
9.12
8.50
7.60
6.55
5.58
4.91
4.81
5.41
6.75
8.65
10.78
12.68
13.84
13.84
12.47
9.85
6.35
2.51
-1.17
-4.42
-7.27
-9.99
-12.99
-16.70
-21.38
-27.05
-33.37
-39.59
-44.64
-47.41
-47.05
-43.28
-36.56
-27.91
-18.62
-9.81
-2.24
3.82
8.34
11.43
13.20
13.74
13.27
12.10
10.71
9.66
9.40
10.24
12.19
15.02
18.30
21.59
24.57
27.17
29.53
31.81
34.05
36.01
37.21
37.03
34.99
30.84
24.67
16.81
7.75
-1.95
-11.75
-21.21
-29.99
-37.93
-45.08
-51.57
-57.57
-63.15
-68.19
-72.35
-75.02
-75.54
-73.27
-67.90
-59.59
-49.00
-37.17
-25.24
-14.14
-4.39
3.86
10.72
16.28
20.50
23.33
24.79
25.17
25.05
25.13
25.96
27.80
30.49
33.61
36.72
39.51
41.92
44.07
46.05
47.83
49.19
49.80
49.43
48.01
45.65
42.64
39.31
35.85
32.37
28.78
24.93
20.70
16.05
11.07
5.98
1.08
-3.39
-7.31
-10.78
-14.04
-17.41
-21.23
-25.69
-30.80
-36.27
-41.48
-45.57
-47.65
-47.02
-43.44
-37.18
-29.00
-19.90
-10.87
-2.69
4.16
9.44
13.15
15.47
16.71
17.32
17.71
18.13
18.70
19.35
20.00
20.63
21.33
22.24
23.46
25.01
26.74
28.38
29.63
30.22
30.02
29.05
27.45
25.41
23.09
20.54
17.79
14.88
11.93
9.15
6.71
4.64
2.73
0.59
-2.22
-5.96
-10.66
-15.97
-21.29
-25.85
-28.87
-29.69
-28.03
-24.03
-18.19
-11.32
-4.22
2.47
8.31
13.11
16.78
19.29
20.63
20.87
20.22
19.00
17.58
16.27
15.27
14.62
14.28
14.15
14.14
14.19
14.24
14.33
14.40
14.44
14.35
13.95
13.03
11.41
9.06
6.12
2.90
-0.26
-3.11
-5.57
-7.80
-10.06
-12.63
-15.69
-19.27
-23.19
-27.10
-30.48
-32.69
-33.16
-31.46
-27.51
-21.58
-14.28
-6.35
1.44
8.46
14.29
18.71
21.66
23.24
23.68
23.26
22.37
21.35
20.51
20.04
20.03
20.49
21.37
22.57
23.92
25.21
26.21
26.75
26.80
26.46
25.84
25.03
24.05
22.81
21.24
19.36
17.27
15.09
12.89
10.70
8.48
6.22
3.95
1.70
-0.52
-2.78
-5.18
-7.76
-10.44
-13.09
-15.57
-17.86
-20.08
-22.48
-25.30
-28.72
-32.76
-37.18
-41.48
-44.88
-46.53
-45.72
-42.16
-36.12
-28.36
-19.91
-11.70
-4.38
1.80
6.81
10.71
13.49
15.11
15.58
15.11
14.05
12.82
11.84
11.36
11.48
12.20
13.46
15.20
17.37
19.80
22.24
24.36
25.79
26.29
25.81
24.53
22.78
20.96
19.38
18.13
17.12
16.09
14.79
13.07
11.01
8.84
6.82
5.12
3.76
2.56
1.21
-0.51
-2.73
-5.38
-8.24
-11.02
-13.46
-15.46
-17.07
-18.54
-20.20
-22.40
-25.39
-29.21
-33.61
-38.01
-41.58
-43.41
-42.77
-39.36
-33.43
-25.71
-17.24
-9.04
-1.88
3.85
8.08
10.97
12.80
13.84
14.36
14.60
14.79
15.10
15.62
16.34
17.15
17.93
18.60
19.21
19.87
20.71
21.75
22.87
23.83
24.39
24.44
23.96
23.07
21.83
20.25
18.30
16.01
13.51
11.06
8.94
7.35
6.27
5.49
4.68
3.52
1.79
-0.58
-3.51
-6.76
-10.04
-13.08
-15.69
-17.87
-19.77
-21.66
-23.87
-26.65
-30.05
-33.87
-37.61
-40.54
-41.86
-40.95
-37.56
-31.88
-24.58
-16.57
-8.77
-1.91
3.62
7.66
10.35
11.87
12.51
12.50
12.09
11.50
10.92
10.54
10.49
10.83
11.55
12.56
13.76
15.09
16.46
17.76
18.90
19.72
20.14
20.09
19.56
18.54
17.09
15.29
13.26
11.20
9.27
7.63
6.25
5.04
3.84
2.49
0.94
-0.83
-2.75
-4.81
-6.96
-9.20
-11.47
-13.75
-16.06
-18.42
-20.93
-23.69
-26.83
-30.36
-34.16
-37.84
-40.74
-42.08
-41.16
-37.74
-32.11
-25.01
-17.40
-10.14
-3.76
1.55
5.72
8.78
10.73
11.62
11.60
10.99
10.17
9.46
9.06
9.01
9.29
9.82
10.55
11.38
12.29
13.20
14.11
14.97
15.69
16.18
16.24
15.69
14.43
12.50
10.17
7.83
5.89
4.56
3.80
3.24
2.40
0.89
-1.40
-4.25
-7.18
-9.77
-11.79
-13.31
-14.63
-16.10
-18.00
-20.50
-23.59
-27.10
-30.70
-33.87
-35.96
-36.36
-34.71
-30.95
-25.44
-18.77
-11.65
-4.75
1.42
6.53
10.43
13.14
14.79
15.54
15.61
15.23
14.60
13.98
13.61
13.64
14.15
15.06
16.20
17.38
18.49
19.48
20.37
21.04
21.31
20.91
19.67
17.57
14.82
11.81
8.95
6.59
4.83
3.58
2.59
1.61
0.45
-0.87
-2.28
-3.66
-4.94
-6.15
-7.36
-8.68
-10.15
-11.78
-13.51
-15.35
-17.35
-19.57
-21.97
-24.28
-25.97
-26.35
-24.82
-21.10
-15.43
-8.49
-1.23
5.47
11.03
15.20
18.08
19.87
20.79
20.96
20.48
19.44
18.00
16.40
14.94
13.88
13.37
13.39
13.80
14.34
14.80
15.07
15.12
14.98
14.66
14.13
13.36
12.31
11.00
9.40
7.46
5.09
2.23
-1.09
-4.72
-8.45
-12.11
-15.61
-18.97
-22.26
-25.54
-28.87
-32.29
-35.76
-39.11
-42.05
-44.06
-44.60
-43.29
-40.02
-35.10
-29.11
-22.77
-16.76
-11.57
-7.47
-4.53
-2.69
-1.86
-1.90
-2.69
-4.04
-5.69
-7.31
-8.46
-8.86
-8.41
-7.28
-5.88
-4.64
-3.86
-3.62
-3.83
-4.37
-5.19
-6.29
-7.68
-9.35
-11.19
-13.06
-14.87
-16.59
-18.24
-19.81
-21.31
-22.73
-24.15
-25.72
-27.63
-30.02
-32.95
-36.25
-39.49
-42.08
-43.24
-42.33
-38.95
-33.19
-25.64
-17.25
-9.04
-1.77
4.14
8.70
12.09
14.57
16.27
17.28
17.66
17.50
16.99
16.39
16.02
16.16
16.98
18.48
20.45
22.59
24.51
25.98
26.88
27.32
27.38
27.16
26.54
25.36
23.48
20.91
17.92
14.90
12.20
9.97
8.12
6.36
4.39
2.02
-0.74
-3.69
-6.64
-9.44
-12.12
-14.76
-17.47
-20.29
-23.29
-26.55
-30.22
-34.39
-38.88
-43.22
-46.53
-47.82
-46.32
-41.74
-34.48
-25.47
-15.88
-6.75
1.21
7.66
12.61
16.23
18.75
20.38
21.32
21.76
21.92
22.01
22.24
22.74
23.54
24.51
25.49
26.32
26.97
27.55
28.17
28.83
29.35
29.43
28.83
27.49
25.64
23.59
21.60
19.71
17.74
15.54
13.11
10.64
8.35
6.38
4.63
2.82
0.70
-1.82
-4.59
-7.37
-9.93
-12.24
-14.48
-16.95
-19.96
-23.72
-28.17
-33.00
-37.58
-41.04
-42.52
-41.36
-37.46
-31.27
-23.71
-15.84
-8.54
-2.27
2.88
7.06
10.44
13.10
15.04
16.29
17.00
17.47
18.04
18.98
20.38
22.13
23.96
25.58
26.78
27.57
28.09
28.57
29.10
29.61
29.84
29.49
28.44
26.76
24.82
23.00
21.57
20.57
19.77
18.90
17.70
16.08
14.11
11.93
9.75
7.71
5.87
4.17
2.44
0.48
-1.90
-4.72
-7.82
-10.94
-13.82
-16.37
-18.69
-21.09
-23.92
-27.43
-31.63
-36.22
-40.59
-43.91
-45.27
-44.02
-39.92
-33.34
-25.14
-16.47
-8.35
-1.39
4.22
8.64
12.10
14.74
16.59
17.68
18.17
18.39
18.72
19.48
20.77
22.44
24.22
25.82
27.10
28.08
28.88
29.62
30.29
30.74
30.69
29.91
28.30
26.03
23.50
21.17
19.44
18.40
17.89
17.47
16.69
15.26
13.15
10.61
8.02
5.76
3.99
2.67
1.50
0.17
-1.58
-3.80
-6.35
-8.97
-11.45
-13.70
-15.79
-17.92
-20.37
-23.39
-27.14
-31.58
-36.44
-41.11
-44.77
-46.53
-45.69
-41.96
-35.60
-27.40
-18.38
-9.53
-1.60
5.02
10.19
13.94
16.35
17.56
17.80
17.37
16.64
15.98
15.65
15.80
16.39
17.28
18.26
19.12
19.71
19.98
20.00
19.90
19.76
19.56
19.11
18.20
16.71
14.70
12.41
10.17
8.25
6.69
5.36
3.99
2.40
0.52
-1.58
-3.74
-5.87
-7.93
-9.98
-12.08
-14.27
-16.54
-18.88
-21.39
-24.26
-27.70
-31.81
-36.31
-40.50
-43.41
-44.02
-41.65
-36.29
-28.61
-19.75
-10.93
-3.09
3.31
8.23
11.94
14.68
16.62
17.86
18.47
18.58
18.42
18.25
18.27
18.64
19.37
20.35
21.47
22.57
23.54
24.35
24.97
25.39
25.62
25.55
25.09
24.16
22.76
20.97
18.96
16.87
14.77
12.67
10.56
8.44
6.38
4.44
2.64
0.89
-0.95
-3.02
-5.37
-7.96
-10.68
-13.44
-16.17
-18.89
-21.62
-24.41
-27.35
-30.61
-34.31
-38.41
-42.58
-46.09
-48.02
-47.51
-44.11
-38.04
-30.09
-21.33
-12.80
-5.23
1.05
6.01
9.78
12.54
14.46
15.70
16.42
16.83
17.12
17.49
18.05
18.83
19.80
20.87
21.95
23.01
24.07
25.15
26.27
27.31
28.11
28.47
28.28
27.52
26.23
24.51
22.49
20.35
18.31
16.57
15.21
14.12
13.05
11.72
9.98
7.91
5.73
3.66
1.84
0.18
-1.52
-3.42
-5.57
-7.90
-10.28
-12.63
-14.94
-17.25
-19.58
-21.95
-24.35
-26.85
-29.63
-32.92
-36.87
-41.33
-45.74
-49.14
-50.46
-48.88
-44.23
-37.02
-28.32
-19.32
-10.98
-3.77
2.20
7.01
10.72
13.29
14.67
14.99
14.59
13.97
13.61
13.81
14.58
15.70
16.89
17.91
18.74
19.47
20.28
21.23
22.20
22.89
22.96
22.17
20.60
18.50
16.26
14.20
12.41
10.85
9.33
7.74
6.02
4.20
2.26
0.17
-2.13
-4.67
-7.38
-10.13
-12.77
-15.24
-17.63
-20.19
-23.17
-26.77
-30.84
-34.87
-38.08
-39.57
-38.72
-35.34
-29.73
-22.58
-14.72
-6.91
0.27
6.43
11.37
14.92
17.06
17.83
17.44
16.18
14.39
12.45
10.66
9.26
8.34
7.96
8.10
8.72
9.72
10.96
12.16
13.04
13.32
12.84
11.62
9.80
7.60
5.26
2.95
0.76
-1.31
-3.32
-5.36
-7.48
-9.67
-11.88
-14.03
-16.15
-18.43
-21.15
-24.57
-28.70
-33.13
-37.14
-39.83
-40.44
-38.63
-34.51
-28.60
-21.60
-14.18
-6.91
-0.22
5.52
10.06
13.21
14.96
15.50
15.20
14.50
13.77
13.26
13.06
13.19
13.59
14.20
14.92
15.64
16.19
16.44
16.26
15.67
14.78
13.71
12.58
11.37
10.01
8.39
6.41
4.07
1.43
-1.41
-4.34
-7.26
-10.09
-12.81
-15.40
-17.90
-20.40
-23.01
-25.90
-29.23
-33.02
-37.08
-40.92
-43.77
-44.75
-43.18
-38.82
-32.07
-23.83
-15.25
-7.32
-0.67
4.56
8.53
11.53
13.80
15.45
16.47
16.86
16.76
16.41
16.14
16.19
16.66
17.48
18.44
19.33
20.05
20.58
20.96
21.18
21.15
20.70
19.71
18.18
16.24
14.09
11.87
9.59
7.18
4.61
1.89
-0.86
-3.53
-6.06
-8.52
-11.04
-13.77
-16.82
-20.22
-23.98
-28.06
-32.31
-36.42
-39.82
-41.74
-41.46
-38.51
-32.96
-25.41
-16.83
-8.24
-0.46
6.03
11.11
14.83
17.33
18.72
19.17
18.90
18.25
17.61
17.33
17.61
18.47
19.74
21.17
22.56
23.77
24.75
25.48
25.97
26.14
25.92
25.23
24.03
22.37
20.33
18.07
15.75
13.52
11.46
9.57
7.77
5.92
3.89
1.62
-0.80
-3.22
-5.48
-7.50
-9.33
-11.17
-13.29
-16.03
-19.56
-23.84
-28.46
-32.63
-35.37
-35.71
-33.01
-27.21
-18.85
-8.95
1.33
10.97
19.29
26.07
31.45
35.77
39.35
42.49
45.30
47.82
50.07
52.13
54.17
56.41
59.07
62.27
66.05
70.42
75.42
81.06
87.08
92.74
96.70
97.28
92.98
83.12
68.13
49.44
28.87
8.01
-12.23
-31.50
-49.53
-65.78
-79.29
-88.99
-94.29
-95.50
-93.81
-90.86
-88.21
-86.86
-87.06
-88.56
-90.84
-93.30
-95.30
-96.16
-95.10
-91.46
-84.88
-75.53
-64.16
-51.92
-40.02
-29.45
-20.72
-13.89
-8.69
-4.71
-1.56
1.00
3.13
4.89
6.38
7.80
9.42
11.47
14.04
17.04
20.19
23.10
25.45
27.10
28.04
28.38
28.19
27.54
26.38
24.68
22.50
19.99
17.44
15.11
13.13
11.40
9.66
7.56
4.93
1.82
-1.48
-4.56
-7.15
-9.24
-11.12
-13.24
-16.05
-19.77
-24.30
-29.20
-33.81
-37.34
-39.05
-38.43
-35.29
-29.81
-22.51
-14.13
-5.47
2.71
9.82
15.47
19.48
21.98
23.25
23.71
23.76
23.68
23.65
23.75
24.01
24.44
25.04
25.78
26.68
27.74
29.00
30.42
31.86
33.03
33.57
33.12
31.55
29.01
25.87
22.58
19.50
16.82
14.50
12.41
10.34
8.12
5.61
2.74
-0.40
-3.62
-6.68
-9.36
-11.60
-13.56
-15.57
-18.08
-21.41
-25.66
-30.52
-35.33
-39.21
-41.26
-40.86
-37.86
-32.54
-25.55
-17.66
-9.63
-2.08
4.57
9.97
13.93
16.42
17.63
17.95
17.87
17.82
18.09
18.73
19.62
20.62
21.63
22.62
23.59
24.60
25.63
26.63
27.54
28.25
28.67
28.69
28.21
27.18
25.67
23.86
22.00
20.30
18.79
17.37
15.82
13.95
11.72
9.29
6.91
4.80
3.06
1.55
0.05
-1.72
-3.89
-6.39
-9.00
-11.48
-13.66
-15.55
-17.32
-19.30
-21.81
-25.10
-29.26
-34.09
-39.15
-43.70
-46.87
-47.87
-46.14
-41.59
-34.64
-26.10
-16.98
-8.20
-0.49
5.75
10.34
13.31
14.78
14.96
14.19
12.89
11.52
10.51
10.08
10.27
10.90
11.73
12.56
13.36
14.19
15.14
16.19
17.13
17.67
17.59
16.79
15.40
13.67
11.83
10.03
8.23
6.35
4.33
2.16
-0.09
-2.31
-4.45
-6.49
-8.43
-10.29
-12.13
-14.12
-16.47
-19.40
-22.96
-26.91
-30.70
-33.50
-34.55
-33.31
-29.68
-24.07
-17.25
-10.10
-3.40
2.30
6.78
10.02
12.14
13.30
13.66
13.43
12.85
12.16
11.61
11.35
11.43
11.80
12.42
13.24
14.22
15.30
16.32
17.06
17.31
16.95
15.99
14.58
12.89
11.04
9.03
6.76
4.19
1.33
-1.68
-4.66
-7.47
-10.03
-12.38
-14.61
-16.80
-19.05
-21.50
-24.33
-27.74
-31.74
-36.04
-39.91
-42.38
-42.51
-39.74
-34.16
-26.47
-17.76
-9.20
-1.69
4.27
8.60
11.53
13.42
14.61
15.31
15.62
15.54
15.16
14.64
14.23
14.19
14.59
15.35
16.24
17.05
17.62
17.95
18.04
17.87
17.35
16.36
14.86
12.95
10.83
8.70
6.71
4.85
3.03
1.12
-1.00
-3.36
-5.90
-8.50
-11.00
-13.28
-15.33
-17.28
-19.43
-22.12
-25.65
-30.05
-35.01
-39.85
-43.65
-45.44
-44.59
-40.88
-34.72
-26.93
-18.54
-10.52
-3.52
2.15
6.48
9.55
11.50
12.49
12.74
12.53
12.23
12.16
12.58
13.56
15.02
16.76
18.53
20.06
21.18
21.83
22.08
22.11
22.09
22.05
21.84
21.20
19.92
17.96
15.54
13.01
10.70
8.75
7.04
5.35
3.41
1.07
-1.61
-4.45
-7.18
-9.66
-11.88
-14.02
-16.37
-19.24
-22.79
-27.00
-31.58
-36.00
-39.58
-41.58
-41.39
-38.68
-33.55
-26.56
-18.58
-10.60
-3.46
2.37
6.84
10.11
12.45
14.07
15.06
15.52
15.60
15.57
15.74
16.37
17.49
18.93
20.40
21.64
22.56
23.21
23.71
24.13
24.42
24.42
23.96
22.96
21.46
19.63
17.65
15.69
13.83
12.13
10.54
9.03
7.47
5.78
3.89
1.80
-0.45
-2.75
-5.03
-7.22
-9.37
-11.53
-13.83
-16.38
-19.24
-22.42
-25.88
-29.59
-33.46
-37.32
-40.77
-43.20
-43.82
-42.02
-37.55
-30.73
-22.40
-13.67
-5.54
1.32
6.66
10.60
13.37
15.18
16.16
16.38
16.01
15.33
14.73
14.61
15.21
16.56
18.39
20.30
21.88
22.90
23.35
23.40
23.30
23.20
23.12
22.91
22.35
21.23
19.46
17.07
14.28
11.38
8.67
6.39
4.58
3.12
1.71
0.09
-1.92
-4.28
-6.80
-9.24
-11.45
-13.41
-15.32
-17.43
-20.06
-23.42
-27.61
-32.51
-37.70
-42.45
-45.75
-46.66
-44.54
-39.35
-31.69
-22.68
-13.54
-5.25
1.65
7.06
11.14
14.06
15.89
16.66
16.44
15.54
14.45
13.74
13.83
14.84
16.57
18.62
20.55
22.09
23.13
23.72
23.98
24.00
23.84
23.53
23.05
22.35
21.37
20.04
18.36
16.39
14.31
12.30
10.48
8.88
7.38
5.80
3.98
1.88
-0.47
-2.94
-5.46
-8.00
-10.64
-13.48
-16.59
-20.00
-23.66
-27.55
-31.66
-35.94
-40.19
-44.03
-46.78
-47.71
-46.17
-41.88
-35.13
-26.69
-17.62
-8.98
-1.54
4.35
8.71
11.81
13.96
15.42
16.36
16.89
17.09
17.08
17.01
17.06
17.39
18.08
19.13
20.43
21.84
23.15
24.19
24.85
25.08
24.88
24.29
23.39
22.28
20.98
19.49
17.75
15.70
13.39
10.95
8.64
6.65
5.09
3.81
2.56
1.04
-0.97
-3.50
-6.40
-9.43
-12.35
-14.98
-17.30
-19.45
-21.77
-24.58
-28.17
-32.54
-37.25
-41.48
-44.21
-44.53
-41.97
-36.69
-29.34
-20.85
-12.15
-3.96
3.25
9.19
13.69
16.68
18.25
18.68
18.41
17.95
17.68
17.81
18.31
19.04
19.81
20.48
21.05
21.65
22.50
23.76
25.48
27.44
29.25
30.44
30.69
29.97
28.57
26.99
25.76
25.17
25.20
25.55
25.80
25.64
25.02
24.21
23.62
23.64
24.43
25.76
27.16
28.09
28.14
27.25
25.73
24.09
23.04
23.38
25.93
31.42
40.09
51.33
63.46
74.02
80.47
80.99
75.04
63.22
46.73
26.72
4.05
-20.39
-45.19
-68.12
-86.48
-97.99
-101.75
-98.66
-91.09
-82.00
-73.85
-67.98
-64.56
-62.91
-62.16
-61.62
-60.99
-60.22
-59.35
-58.32
-56.89
-54.78
-51.86
-48.26
-44.38
-40.75
-37.82
-35.75
-34.38
-33.28
-32.04
-30.46
-28.69
-27.15
-26.27
-26.29
-27.07
-28.24
-29.36
-30.24
-31.01
-32.13
-34.03
-36.80
-39.97
-42.54
-43.33
-41.40
-36.46
-28.92
-19.80
-10.31
-1.50
6.01
12.01
16.56
19.85
22.06
23.40
24.06
24.33
24.46
24.64
25.03
25.64
26.47
27.45
28.56
29.70
30.82
31.80
32.56
33.06
33.30
33.28
32.97
32.32
31.23
29.70
27.78
25.64
23.45
21.35
19.38
17.47
15.51
13.43
11.18
8.84
6.46
4.12
1.84
-0.38
-2.60
-4.87
-7.26
-9.87
-12.80
-16.16
-20.03
-24.38
-29.05
-33.64
-37.50
-39.92
-40.15
-37.81
-32.92
-26.03
-18.03
-9.96
-2.71
3.21
7.63
10.75
12.85
14.17
14.86
14.97
14.58
13.83
13.01
12.40
12.22
12.56
13.35
14.46
15.72
17.03
18.29
19.35
20.05
20.21
19.73
18.57
16.90
14.94
12.95
11.10
9.50
8.07
6.67
5.13
3.35
1.33
-0.87
-3.13
-5.39
-7.67
-10.03
-12.59
-15.45
-18.70
-22.26
-25.98
-29.51
-32.33
-33.83
-33.45
-30.84
-25.99
-19.32
-11.55
-3.65
3.51
9.28
13.35
15.79
16.85
16.92
16.26
15.16
13.88
12.74
12.07
12.06
12.72
13.82
15.08
16.23
17.20
18.04
18.81
19.47
19.83
19.66
18.83
17.40
15.57
13.55
11.46
9.34
7.15
4.86
2.46
-0.02
-2.53
-5.06
-7.54
-9.92
-12.15
-14.17
-16.11
-18.15
-20.66
-24.00
-28.37
-33.60
-39.09
-43.84
-46.69
-46.77
-43.68
-37.75
-29.85
-21.10
-12.53
-4.85
1.57
6.61
10.29
12.72
14.06
14.58
14.62
14.50
14.51
14.77
15.31
16.08
17.03
18.11
19.24
20.34
21.35
22.17
22.80
23.19
23.25
22.80
21.65
19.63
16.84
13.62
10.52
8.02
6.36
5.35
4.50
3.23
1.22
-1.52
-4.64
-7.69
-10.34
-12.56
-14.59
-16.83
-19.66
-23.27
-27.57
-32.16
-36.34
-39.28
-40.15
-38.44
-34.05
-27.44
-19.47
-11.17
-3.47
3.05
8.22
12.15
15.06
17.20
18.68
19.59
20.02
20.16
20.26
20.53
21.09
21.86
22.68
23.37
23.88
24.33
24.88
25.64
26.51
27.17
27.23
26.47
24.95
22.99
21.10
19.65
18.74
18.18
17.64
16.81
15.58
14.05
12.47
11.11
10.06
9.31
8.67
7.92
6.91
5.67
4.30
2.99
1.85
0.94
0.31
0.17
1.01
3.48
8.22
15.56
25.35
37.02
49.82
63.00
75.78
87.26
96.18
101.10
100.75
94.52
82.66
66.07
45.88
23.10
-1.48
-26.80
-51.18
-72.28
-87.56
-95.29
-95.30
-89.21
-79.89
-70.43
-63.06
-58.69
-57.02
-57.02
-57.63
-58.22
-58.58
-58.73
-58.68
-58.30
-57.36
-55.74
-53.58
-51.27
-49.35
-48.24
-48.20
-49.16
-50.91
-53.09
-55.23
-56.83
-57.30
-56.11
-52.86
-47.40
-39.94
-30.97
-21.27
-11.68
-2.97
4.32
9.92
13.86
16.36
17.77
18.48
18.88
19.29
19.95
20.92
22.08
23.27
24.27
25.04
25.67
26.33
27.14
28.03
28.76
29.01
28.50
27.15
25.12
22.74
20.37
18.26
16.48
14.90
13.27
11.34
8.99
6.21
3.15
0.02
-3.01
-5.85
-8.54
-11.18
-13.96
-17.09
-20.71
-24.80
-29.10
-33.01
-35.77
-36.56
-34.84
-30.53
-24.01
-16.05
-7.56
0.65
7.99
14.10
18.79
22.00
23.80
24.40
24.23
23.77
23.52
23.73
24.38
25.23
25.97
26.39
26.53
26.61
26.83
27.33
27.98
28.51
28.60
28.04
26.78
24.92
22.72
20.41
18.19
16.16
14.31
12.54
10.68
8.62
6.28
3.67
0.88
-1.94
-4.64
-7.14
-9.44
-11.65
-13.99
-16.73
-20.16
-24.40
-29.30
-34.30
-38.47
-40.75
-40.29
-36.76
-30.46
-22.28
-13.42
-4.99
2.17
7.68
11.52
13.92
15.23
15.84
16.05
16.11
16.13
16.14
16.16
16.24
16.49
16.98
17.73
18.61
19.45
20.06
20.35
20.33
20.08
19.68
19.13
18.37
17.29
15.82
13.89
11.55
8.87
6.04
3.25
0.70
-1.52
-3.47
-5.35
-7.47
-10.10
-13.42
-17.42
-21.96
-26.72
-31.20
-34.78
-36.75
-36.51
-33.73
-28.54
-21.52
-13.54
-5.56
1.67
7.68
12.31
15.54
17.44
18.13
17.80
16.76
15.41
14.19
13.40
13.17
13.43
14.04
14.86
15.83
16.91
18.08
19.16
19.89
19.95
19.13
17.42
15.03
12.31
9.65
7.30
5.32
3.61
1.95
0.15
-1.87
-4.06
-6.33
-8.62
-10.94
-13.38
-16.04
-18.99
-22.26
-25.88
-29.86
-34.16
-38.46
-42.24
-44.68
-45.00
-42.67
-37.63
-30.36
-21.69
-12.60
-3.94
3.63
9.74
14.19
16.99
18.31
18.46
17.87
17.00
16.23
15.80
15.77
16.08
16.62
17.32
18.14
19.08
20.10
21.10
21.87
22.21
21.98
21.18
19.93
18.36
16.57
14.57
12.30
9.74
6.93
3.95
0.93
-2.05
-4.94
-7.69
-10.23
-12.47
-14.39
-16.06
-17.71
-19.72
-22.43
-25.99
-30.28
-34.81
-38.81
-41.40
-41.83
-39.68
-35.00
-28.29
-20.36
-12.12
-4.37
2.31
7.61
11.41
13.75
14.82
14.93
14.39
13.54
12.68
11.97
11.52
11.38
11.58
12.14
13.07
14.28
15.64
16.99
18.22
19.28
20.21
20.97
21.51
21.67
21.33
20.39
18.90
17.02
14.94
12.78
10.55
8.15
5.54
2.72
-0.16
-2.96
-5.67
-8.43
-11.54
-15.26
-19.58
-24.16
-28.28
-31.09
-31.85
-30.18
-26.15
-20.28
-13.32
-6.11
0.63
6.37
10.86
14.01
15.94
16.77
16.74
16.08
15.10
14.09
13.31
12.88
12.83
13.07
13.52
14.09
14.72
15.34
15.87
16.22
16.28
15.98
15.27
14.15
12.64
10.80
8.78
6.72
4.69
2.67
0.52
-1.92
-4.71
-7.73
-10.72
-13.47
-15.89
-18.13
-20.46
-23.20
-26.58
-30.61
-35.04
-39.39
-42.96
-44.90
-44.49
-41.30
-35.37
-27.34
-18.20
-9.08
-0.92
5.68
10.57
13.90
15.97
17.12
17.57
17.54
17.12
16.49
15.80
15.25
15.00
15.09
15.49
16.09
16.82
17.61
18.50
19.42
20.22
20.63
20.36
19.24
17.36
15.04
12.69
10.63
8.94
7.42
5.72
3.53
0.72
-2.60
-6.11
-9.44
-12.29
-14.57
-16.45
-18.28
-20.52
-23.53
-27.46
-32.06
-36.69
-40.42
-42.27
-41.46
-37.69
-31.28
-23.08
-14.19
-5.71
1.60
7.40
11.71
14.74
16.72
17.86
18.30
18.21
17.81
17.26
16.75
16.41
16.34
16.63
17.36
18.51
19.94
21.36
22.41
22.81
22.39
21.18
19.36
17.21
14.96
12.81
10.81
8.89
6.96
4.85
2.52
0.01
-2.52
-4.90
-7.01
-8.89
-10.69
-12.67
-15.11
-18.17
-21.86
-26.01
-30.18
-33.79
-36.16
-36.68
-34.97
-31.01
-25.14
-18.02
-10.47
-3.30
2.81
7.51
10.67
12.48
13.25
13.33
13.00
12.42
11.66
10.80
10.02
9.54
9.61
10.30
11.49
12.81
13.82
14.19
13.80
12.85
11.68
10.59
9.69
8.81
7.68
6.00
3.71
0.92
-2.04
-4.84
-7.28
-9.29
-11.02
-12.73
-14.69
-17.22
-20.50
-24.56
-29.12
-33.61
-37.21
-39.03
-38.40
-35.09
-29.37
-21.95
-13.79
-5.84
1.15
6.72
10.75
13.32
14.68
15.09
14.78
14.00
12.98
11.98
11.25
11.01
11.35
12.23
13.49
14.92
16.33
17.60
18.58
19.10
18.98
18.08
16.43
14.24
11.84
9.48
7.25
5.04
2.67
0.04
-2.83
-5.76
-8.51
-10.99
-13.25
-15.51
-18.04
-21.09
-24.77
-29.01
-33.52
-37.81
-41.15
-42.78
-42.05
-38.68
-32.87
-25.31
-16.96
-8.82
-1.63
4.25
8.82
12.26
14.75
16.40
17.23
17.32
16.88
16.22
15.71
15.62
16.02
16.81
17.80
18.85
19.89
20.90
21.86
22.63
22.96
22.63
21.53
19.75
17.57
15.34
13.36
11.72
10.34
8.93
7.21
4.97
2.18
-0.96
-4.15
-7.09
-9.61
-11.79
-13.91
-16.42
-19.66
-23.68
-28.11
-32.13
-34.75
-35.06
-32.58
-27.42
-20.16
-11.72
-3.01
5.27
12.71
19.14
24.51
28.80
31.95
33.95
34.92
35.15
35.19
35.63
37.04
39.65
43.32
47.46
51.43
54.67
57.01
58.68
60.19
62.07
64.73
68.35
72.88
78.00
82.98
86.64
87.42
83.85
75.07
61.24
43.45
23.25
2.03
-19.40
-40.76
-61.77
-81.77
-99.59
-113.86
-123.54
-128.35
-128.79
-125.83
-120.48
-113.50
-105.37
-96.44
-87.13
-77.97
-69.49
-62.09
-55.96
-51.00
-46.91
-43.32
-39.91
-36.49
-32.99
-29.42
-25.73
-21.82
-17.56
-12.85
-7.78
-2.57
2.35
6.55
9.67
11.62
12.53
12.74
12.61
12.33
11.95
11.34
10.37
8.99
7.29
5.44
3.60
1.83
0.09
-1.72
-3.69
-5.92
-8.53
-11.64
-15.30
-19.41
-23.57
-27.14
-29.30
-29.28
-26.68
-21.54
-14.42
-6.28
1.84
9.04
14.80
19.03
21.96
23.91
25.13
25.71
25.65
24.98
23.93
22.82
22.05
21.86
22.29
23.20
24.34
25.51
26.56
27.38
27.82
27.75
27.08
25.82
24.12
22.13
20.00
17.77
15.36
12.72
9.79
6.68
3.51
0.47
-2.37
-5.00
-7.51
-10.06
-12.86
-16.09
-19.85
-24.09
-28.47
-32.43
-35.20
-36.01
-34.30
-29.96
-23.41
-15.46
-7.14
0.65
7.29
12.49
16.29
18.86
20.39
21.08
21.09
20.59
19.83
19.08
18.58
18.56
19.08
20.11
21.46
22.91
24.26
25.35
26.08
26.33
25.99
24.97
23.25
20.95
18.28
15.52
12.83
10.28
7.82
5.36
2.89
0.47
-1.79
-3.78
-5.54
-7.23
-9.09
-11.41
-14.39
-18.04
-22.15
-26.21
-29.50
-31.20
-30.69
-27.71
-22.52
-15.83
-8.61
-1.80
3.91
8.15
10.91
12.34
12.69
12.24
11.27
10.08
8.95
8.05
7.50
7.29
7.37
7.70
8.25
9.02
9.92
10.86
11.67
12.17
12.28
11.97
11.33
10.45
9.37
7.99
6.19
3.83
0.95
-2.27
-5.50
-8.38
-10.72
-12.55
-14.10
-15.74
-17.82
-20.58
-24.03
-28.00
-32.06
-35.58
-37.82
-38.08
-35.88
-31.11
-24.19
-15.91
-7.35
0.51
6.94
11.67
14.85
16.83
17.96
18.52
18.63
18.40
17.97
17.55
17.37
17.56
