1706695887.00
64.000000
-0.00
-0.00
-0.00
-0.00
-0.00
-0.00
-0.00
-0.00
-0.00
-0.00
0.00
0.01
0.01
-0.00
-0.03
-0.05
-0.05
0.00
0.13
0.36
0.66
1.01
1.37
1.72
2.06
2.40
2.79
3.24
3.80
4.42
5.06
5.66
6.20
6.68
7.15
7.68
8.31
9.14
10.09
11.04
11.88
12.56
13.14
13.76
14.65
15.96
17.91
20.32
22.90
25.38
27.58
29.57
31.68
34.32
37.81
42.54
48.15
54.10
59.83
64.97
69.58
74.14
79.34
85.71
93.76
103.00
112.62
121.73
129.77
136.75
143.30
150.75
157.77
166.64
177.95
191.79
206.97
220.57
228.25
225.36
208.53
176.87
132.76
80.05
23.07
-34.94
-92.44
-149.16
-205.23
-260.37
-313.74
-363.87
-409.83
-450.91
-486.50
-515.74
-537.23
-549.22
-549.96
-538.37
-514.21
-478.67
-433.88
-382.45
-327.02
-269.84
-212.63
-156.66
-102.95
-52.37
-5.90
35.58
71.43
101.35
125.50
144.38
158.69
169.15
176.37
180.75
182.57
182.07
179.51
175.23
169.65
163.18
156.15
148.81
141.30
133.69
126.02
118.33
110.69
103.16
95.80
88.68
81.83
75.25
68.95
62.95
57.25
51.86
46.78
42.03
37.58
33.45
29.61
26.07
22.81
19.83
17.12
14.68
12.51
10.58
8.89
7.43
6.17
5.11
4.21
3.46
2.85
2.36
1.96
1.65
1.40
1.22
1.09
1.00
0.95
0.92
0.92
0.94
0.98
1.03
1.10
1.19
1.28
1.39
1.52
1.67
1.83
2.02
2.22
2.44
2.69
2.96
3.27
3.60
3.96
4.35
4.78
5.25
5.75
6.29
6.88
7.51
8.19
8.91
9.68
10.50
11.36
12.26
13.21
14.22
15.30
16.42
17.59
18.79
19.97
21.08
22.05
22.78
23.18
23.15
22.62
21.55
19.91
17.75
15.15
12.23
9.08
5.88
2.79
-0.06
-2.56
-4.63
-6.24
-7.39
-8.11
-8.44
-8.43
-8.14
-7.63
-6.95
-6.13
-5.18
-4.10
-2.91
-1.58
-0.10
1.48
3.15
4.88
6.67
8.49
10.36
12.30
14.31
16.44
18.59
20.68
22.65
24.40
25.87
26.97
27.67
27.95
27.88
27.34
26.35
25.03
23.65
22.58
22.24
23.09
25.56
30.08
36.50
44.71
54.50
65.56
77.53
89.97
102.48
114.67
126.27
136.54
145.00
151.35
155.45
157.21
156.46
152.73
144.97
135.36
124.37
112.23
99.11
85.26
71.07
57.05
43.66
31.27
20.08
9.63
-0.42
-10.16
-19.37
-27.58
-34.25
-39.06
-42.12
-44.03
-46.13
-49.68
-55.53
-63.88
-74.34
-86.17
-98.64
-111.35
-124.30
-138.11
-153.62
-171.74
-193.33
-218.75
-247.27
-276.56
-302.75
-321.33
-328.81
-323.89
-308.10
-285.09
-259.19
-233.78
-210.46
-189.20
-169.33
-150.46
-132.82
-116.99
-103.39
-91.88
-81.86
-72.61
-63.79
-55.54
-48.45
-43.19
-40.19
-39.50
-40.73
-43.22
-46.10
-48.50
-49.58
-48.60
-45.03
-38.62
-29.54
-18.31
-5.74
7.25
19.84
31.37
41.44
49.81
56.37
61.06
63.81
64.52
63.09
59.59
54.46
48.62
43.38
40.19
40.19
43.89
51.00
60.56
71.26
81.76
90.90
97.81
101.93
102.95
100.79
95.50
87.27
76.51
63.96
50.94
39.37
31.50
29.31
33.69
44.00
58.10
73.03
85.87
94.64
98.61
98.21
94.83
90.38
87.02
86.70
90.70
99.11
110.63
122.81
133.08
139.90
143.58
145.98
149.24
154.06
158.74
159.71
153.42
138.46
116.71
92.64
71.31
56.13
47.69
44.07
42.24
39.65
34.87
27.33
16.65
2.32
-16.15
-38.63
-63.87
-89.60
-113.17
-132.23
-145.27
-151.93
-152.93
-150.26
-147.18
-147.97
-157.05
-177.23
-207.94
-244.11
-276.92
-296.29
-294.53
-269.31
-224.62
-169.07
-112.52
-62.65
-23.04
6.43
27.81
43.01
52.88
57.57
57.79
55.58
54.14
56.59
64.45
76.66
90.02
100.60
105.60
104.55
99.32
93.05
88.61
87.38
88.87
91.06
91.20
86.85
76.48
59.80
37.82
12.71
-12.54
-34.63
-50.76
-59.34
-60.35
-55.23
-46.26
-35.84
-25.95
-18.17
-13.69
-13.26
-16.99
-23.94
-32.13
-39.16
-43.04
-43.04
-39.75
-34.41
-27.94
-20.34
-11.04
0.34
13.31
26.88
40.31
54.11
70.07
90.14
114.82
142.00
167.30
185.76
194.14
192.22
182.49
168.34
151.97
133.50
111.75
85.97
57.25
28.36
2.25
-19.84
-39.02
-57.75
-77.78
-98.47
-116.76
-128.95
-132.92
-129.58
-122.40
-115.63
-112.23
-112.89
-116.36
-120.59
-123.84
-125.16
-124.16
-120.63
-114.25
-104.77
-92.39
-77.88
-62.55
-47.87
-35.03
-24.73
-17.09
-11.79
-8.28
-5.98
-4.36
-2.96
-1.52
0.04
1.54
2.69
3.16
2.82
1.73
0.19
-1.50
-3.18
-4.94
-7.07
-9.98
-13.96
-19.14
-25.45
-32.61
-40.14
-47.34
-53.33
-57.20
-58.18
-55.90
-50.54
-42.77
-33.52
-23.75
-14.17
-5.18
3.06
10.41
16.73
21.77
25.30
27.28
27.89
27.53
26.67
25.71
24.89
24.21
23.54
22.59
21.12
19.02
16.24
12.93
9.27
5.43
1.46
-2.76
-7.47
-13.06
-19.85
-27.98
-37.14
-46.54
-54.92
-60.87
-63.23
-61.53
-56.10
-47.89
-38.13
-27.79
-17.44
-7.23
2.85
12.68
21.92
30.02
36.47
40.92
43.39
44.17
43.78
42.71
41.36
39.91
38.39
36.70
34.73
32.42
29.75
26.72
23.36
19.67
15.69
11.38
6.67
1.36
-4.82
-12.05
-20.31
-29.18
-37.84
-45.18
-50.07
-51.61
-49.45
-43.83
-35.48
-25.41
-14.56
-3.67
6.84
16.67
25.61
33.34
39.51
43.89
46.42
47.37
47.25
46.60
45.87
45.25
44.60
43.62
41.93
39.36
35.98
32.09
28.08
24.18
20.30
16.04
10.87
4.32
-3.71
-12.91
-22.70
-32.44
-41.63
-50.01
-57.41
-63.66
-68.44
-71.31
-71.89
-70.02
-65.80
-59.46
-51.34
-42.05
-32.98
-26.54
-25.86
-33.66
-50.93
-75.76
-103.59
-128.43
-144.96
-150.23
-144.24
-129.23
-108.26
-83.93
-57.94
-31.52
-6.03
16.70
34.63
46.29
51.28
50.44
45.42
37.86
28.79
18.43
6.44
-7.37
-22.61
-38.10
-52.28
-63.64
-71.06
-73.85
-71.34
-62.56
-46.35
-21.93
10.04
46.76
83.55
115.25
138.37
152.66
161.27
169.16
180.76
197.80
218.71
239.69
256.46
265.69
265.39
254.57
232.85
200.84
161.03
118.11
78.19
46.92
27.47
19.74
21.14
28.25
38.26
49.34
60.08
68.54
72.25
68.92
57.53
38.83
14.96
-11.41
-37.69
-61.31
-79.30
-88.37
-85.67
-70.03
-42.95
-8.43
28.25
62.10
89.36
107.81
116.36
114.81
104.02
86.14
64.66
43.71
26.68
15.08
8.38
4.84
2.82
1.91
2.81
6.33
12.07
17.89
20.57
17.28
6.97
-9.15
-28.30
-47.53
-64.95
-80.13
-93.56
-105.72
-116.38
-124.76
-130.18
-132.63
-132.95
-132.29
-131.31
-129.78
-126.58
-120.40
-110.50
-97.21
-81.79
-65.87
-50.74
-36.96
-24.42
-12.81
-2.06
7.41
14.90
19.91
22.48
23.30
23.40
23.71
24.71
26.32
28.13
29.70
30.77
31.35
31.55
31.53
31.28
30.64
29.34
27.19
24.09
20.17
15.72
11.10
6.62
2.44
-1.46
-5.25
-9.15
-13.46
-18.42
-24.29
-31.16
-38.95
-47.23
-55.24
-61.98
-66.45
-67.85
-65.80
-60.46
-52.40
-42.54
-31.86
-21.18
-11.12
-2.00
5.99
12.77
18.23
22.29
24.94
26.34
26.78
26.62
26.23
25.87
25.67
25.68
25.85
26.05
26.07
25.64
24.53
22.69
20.23
17.43
14.57
11.81
9.11
6.35
3.41
0.26
-2.97
-6.08
-8.90
-11.24
-12.93
-13.73
-13.44
-12.04
-9.87
-7.63
-6.25
-6.46
-8.49
-11.79
-15.27
-17.67
-17.99
-15.91
-11.67
-5.93
0.66
7.58
14.57
21.44
27.87
33.41
37.49
39.74
40.16
39.23
37.73
36.46
35.94
36.22
36.97
37.68
37.94
37.59
36.80
35.84
34.97
34.21
33.39
32.20
30.37
27.81
24.65
21.15
17.53
13.87
10.10
6.07
1.66
-3.14
-8.29
-13.74
-19.49
-25.43
-31.32
-36.59
-40.49
-42.25
-41.31
-37.53
-31.25
-23.13
-14.05
-4.87
3.67
10.99
16.77
20.91
23.47
24.65
24.72
23.98
22.74
21.33
20.03
19.04
18.40
17.99
17.62
17.08
16.22
14.94
13.22
11.02
8.31
5.07
1.37
-2.66
-6.82
-10.95
-15.00
-19.11
-23.58
-28.75
-34.88
-41.96
-49.62
-57.12
-63.47
-67.62
-68.71
-66.28
-60.35
-51.43
-40.38
-28.31
-16.31
-5.36
3.88
11.06
16.19
19.54
21.54
22.63
23.18
23.42
23.47
23.35
23.07
22.60
21.96
21.19
20.40
19.69
19.21
19.04
19.17
19.41
19.51
19.16
18.12
16.26
13.60
10.19
6.12
1.34
-4.28
-10.90
-18.64
-27.41
-36.75
-45.91
-53.83
-59.41
-61.77
-60.42
-55.44
-47.42
-37.30
-26.22
-15.22
-5.10
3.68
11.01
17.07
22.10
26.31
29.76
32.41
34.22
35.21
35.53
35.32
34.68
33.61
32.11
30.31
28.46
26.87
25.72
24.87
23.89
22.22
19.43
15.46
10.62
5.44
0.41
-4.23
-8.58
-13.01
-17.99
-23.92
-30.93
-38.80
-46.94
-54.39
-60.12
-63.13
-62.79
-58.96
-52.03
-42.79
-32.22
-21.26
-10.63
-0.84
7.84
15.22
21.14
25.51
28.38
29.93
30.56
30.71
30.80
31.05
31.48
31.92
32.11
31.92
31.30
30.31
29.01
27.35
25.13
22.15
18.27
13.63
8.61
3.67
-0.81
-4.77
-8.51
-12.54
-17.40
-23.37
-30.36
-37.87
-45.04
-50.87
-54.40
-54.92
-52.09
-46.05
-37.33
-26.79
-15.47
-4.42
5.51
13.75
20.05
24.47
27.23
28.66
29.09
28.85
28.23
27.56
27.04
26.80
26.75
26.72
26.44
25.71
24.46
22.73
20.69
18.40
15.85
12.91
9.47
5.52
1.21
-3.14
-7.24
-10.97
-14.53
-18.31
-22.83
-28.41
-35.04
-42.27
-49.27
-54.98
-58.32
-58.41
-54.84
-47.77
-37.92
-26.35
-14.26
-2.65
7.82
16.81
24.21
29.98
34.15
36.82
38.26
38.85
39.01
39.03
38.99
38.80
38.28
37.33
35.99
34.42
32.74
31.00
29.10
26.83
24.03
20.59
16.52
11.93
7.02
2.01
-2.86
-7.50
-11.99
-16.61
-21.84
-28.03
-35.21
-42.91
-50.21
-55.88
-58.87
-58.55
-54.86
-48.23
-39.29
-28.72
-17.13
-5.12
6.62
17.24
25.93
32.08
35.45
36.24
35.05
32.60
29.64
26.75
24.33
22.61
21.68
21.44
21.68
22.14
22.53
22.60
22.21
21.28
19.77
17.67
14.97
11.70
8.03
4.16
0.39
-3.05
-6.14
-9.10
-12.40
-16.58
-22.01
-28.66
-35.98
-42.97
-48.42
-51.27
-50.82
-46.95
-40.12
-31.13
-21.00
-10.64
-0.80
8.00
15.40
21.20
25.30
27.75
28.81
28.91
28.55
28.14
27.90
27.74
27.49
26.99
26.23
25.38
24.68
24.27
24.12
23.99
23.50
22.27
19.99
16.60
12.30
7.48
2.59
-2.02
-6.28
-10.38
-14.67
-19.55
-25.26
-31.81
-38.93
-46.05
-52.39
-57.00
-59.00
-57.81
-53.34
-46.09
-37.00
-27.14
-17.44
-8.51
-0.64
5.99
11.25
14.97
17.09
17.75
17.37
16.50
15.72
15.41
15.68
16.37
17.18
17.80
18.01
17.76
17.13
16.21
15.06
13.63
11.82
9.49
6.59
3.20
-0.50
-4.30
-8.05
-11.74
-15.51
-19.62
-24.31
-29.70
-35.69
-41.88
-47.61
-52.06
-54.48
-54.36
-51.55
-46.31
-39.20
-30.86
-21.92
-12.87
-4.16
3.75
10.38
15.25
18.10
19.02
18.55
17.48
16.65
16.63
17.54
19.13
20.89
22.34
23.17
23.36
23.07
22.51
21.84
21.06
20.07
18.61
16.49
13.62
10.07
6.09
1.93
-2.19
-6.22
-10.23
-14.37
-18.83
-23.79
-29.38
-35.56
-42.07
-48.24
-53.09
-55.56
-54.85
-50.76
-43.87
-35.33
-26.43
-18.21
-11.20
-5.51
-1.03
2.28
4.33
4.98
4.20
2.24
-0.40
-3.10
-5.33
-6.75
-7.29
-7.00
-5.98
-4.29
-1.93
1.06
4.47
7.86
10.67
12.36
12.70
11.87
10.51
9.47
9.51
11.08
14.15
18.24
22.56
26.18
28.11
27.52
23.77
16.68
6.71
-5.04
-16.88
-26.96
-33.72
-36.31
-34.75
-29.87
-22.86
-14.92
-6.90
0.76
7.86
14.27
19.76
23.99
26.69
27.89
27.97
27.56
27.31
27.57
28.30
29.16
29.68
29.58
28.84
27.72
26.47
25.26
24.06
22.68
20.95
18.79
16.21
13.32
10.21
6.97
3.71
0.53
-2.52
-5.47
-8.52
-11.99
-16.23
-21.42
-27.51
-34.07
-40.39
-45.61
-48.87
-49.49
-47.14
-41.96
-34.48
-25.59
-16.23
-7.23
0.90
7.98
14.02
19.11
23.23
26.29
28.19
28.99
28.99
28.70
28.69
29.35
30.77
32.68
34.59
35.98
36.55
36.34
35.65
34.94
34.55
34.57
34.82
34.94
34.57
33.56
31.97
30.10
28.28
26.79
25.74
25.00
24.32
23.33
21.76
19.45
16.46
13.08
9.85
7.47
6.66
7.95
11.59
17.44
25.00
33.71
43.06
52.84
63.15
74.19
85.83
97.09
105.85
109.01
103.36
86.68
58.83
22.14
-19.18
-60.11
-96.25
-124.59
-143.74
-153.60
-154.92
-149.00
-137.46
-122.07
-104.51
-86.14
-67.88
-50.35
-33.94
-18.97
-5.63
6.12
16.49
25.67
33.75
40.62
46.25
50.83
54.87
58.91
63.16
67.22
70.17
70.97
68.93
64.04
56.90
48.56
40.02
31.96
24.50
17.21
9.33
0.19
-10.44
-22.22
-34.33
-45.86
-56.15
-64.96
-72.38
-78.53
-83.40
-86.78
-88.50
-88.55
-87.25
-85.06
-82.45
-79.66
-76.76
-73.71
-70.57
-67.58
-65.12
-63.51
-62.85
-62.79
-62.58
-61.22
-57.62
-51.06
-41.44
-29.47
-16.68
-5.02
3.81
8.98
10.91
11.28
12.40
16.41
24.52
36.64
51.54
67.36
82.37
95.43
106.35
115.73
124.74
134.57
145.99
158.83
171.91
183.26
190.82
193.14
189.84
181.71
170.23
157.03
143.32
129.86
116.96
104.73
93.20
82.43
72.69
64.47
58.54
55.59
55.73
58.07
60.64
61.01
57.15
48.32
35.21
19.52
3.05
-12.96
-28.10
-42.51
-56.42
-69.90
-82.75
-94.66
-105.33
-114.50
-122.00
-127.84
-132.27
-135.76
-138.79
-141.59
-143.87
-144.89
-143.84
-140.31
-134.53
-127.23
-119.29
-111.17
-102.78
-93.58
-83.14
-71.58
-59.75
-48.90
-40.10
-33.80
-29.60
-26.65
-24.02
-21.23
-18.35
-15.72
-13.60
-11.93
-10.29
-8.25
-5.53
-2.23
1.33
4.71
7.53
9.53
10.53
10.47
9.40
7.50
5.04
2.36
-0.28
-2.82
-5.37
-8.19
-11.58
-15.70
-20.59
-26.22
-32.37
-38.71
-44.71
-49.65
-52.73
-53.29
-51.00
-46.03
-39.07
-31.12
-23.27
-16.35
-10.79
-6.66
-3.77
-1.84
-0.61
0.08
0.43
0.60
0.85
1.41
2.40
3.82
5.48
7.12
8.52
9.52
10.08
10.26
10.14
9.82
9.39
8.85
8.16
7.14
5.63
3.51
0.73
-2.60
-6.31
-10.20
-14.14
-18.05
-21.88
-25.65
-29.35
-32.97
-36.49
-39.79
-42.61
-44.54
-45.10
-43.86
-40.58
-35.37
-28.72
-21.40
-14.23
-7.93
-3.03
0.26
1.92
2.15
1.22
-0.47
-2.46
-4.32
-5.75
-6.67
-7.23
-7.74
-8.50
-9.74
-11.44
-13.43
-15.43
-17.14
-18.30
-18.83
-18.82
-18.60
-18.58
-19.08
-20.15
-21.44
-22.37
-22.38
-21.23
-19.08
-16.48
-14.00
-11.93
-10.12
-8.11
-5.44
-1.98
1.97
5.91
9.47
12.67
15.90
19.63
24.00
28.65
32.84
35.85
37.41
37.81
37.85
38.31
39.72
42.21
45.66
49.86
54.57
59.46
63.90
67.01
67.96
66.19
61.73
55.15
47.29
39.00
30.93
23.41
16.67
10.77
5.77
1.65
-1.67
-4.25
-6.12
-7.33
-8.06
-8.58
-9.32
-10.69
-12.89
-15.90
-19.40
-22.82
-25.51
-26.84
-26.39
-24.09
-20.29
-15.64
-10.85
-6.42
-2.49
1.14
4.67
8.15
11.34
13.95
15.83
17.10
18.10
19.11
20.25
21.36
22.18
22.49
22.28
21.69
20.92
20.15
19.44
18.82
18.25
17.70
17.08
16.23
14.91
12.91
10.04
6.28
1.70
-3.50
-9.04
-14.63
-20.01
-24.96
-29.27
-32.75
-35.18
-36.36
-36.10
-34.34
-31.21
-26.99
-22.07
-16.87
-11.74
-6.94
-2.71
0.78
3.34
4.91
5.58
5.71
5.76
6.18
7.20
8.70
10.30
11.48
11.79
11.00
9.15
6.54
3.60
0.78
-1.57
-3.31
-4.58
-5.70
-7.11
-9.11
-11.74
-14.73
-17.58
-19.89
-21.50
-22.67
-23.91
-25.87
-28.96
-33.19
-38.19
-43.19
-47.37
-49.98
-50.55
-48.84
-44.99
-39.32
-32.37
-24.77
-17.15
-10.07
-3.88
1.28
5.46
8.73
11.20
12.89
13.84
14.13
13.96
13.60
13.26
13.08
13.01
12.90
12.58
11.98
11.12
10.10
9.02
7.92
6.83
5.67
4.42
3.03
1.44
-0.39
-2.53
-5.00
-7.76
-10.70
-13.73
-16.79
-19.99
-23.49
-27.46
-31.92
-36.67
-41.32
-45.29
-48.02
-49.00
-47.94
-44.72
-39.54
-32.79
-25.08
-17.09
-9.39
-2.44
3.56
8.56
12.56
15.60
17.69
18.93
19.47
19.55
19.43
19.33
19.37
19.62
20.03
20.49
20.84
20.87
20.42
19.41
17.91
16.11
14.22
12.37
10.62
8.90
7.15
5.32
3.45
1.53
-0.50
-2.73
-5.30
-8.35
-11.92
-16.07
-20.79
-25.99
-31.46
-36.79
-41.34
-44.41
-45.38
-43.88
-39.94
-33.95
-26.58
-18.51
-10.39
-2.66
4.35
10.47
15.55
19.55
22.45
24.35
25.44
25.98
26.27
26.57
26.97
27.46
27.88
28.07
27.87
27.26
26.22
24.79
22.99
20.82
18.32
15.54
12.56
9.45
6.22
2.86
-0.72
-4.50
-8.44
-12.32
-15.91
-19.03
-21.63
-23.87
-25.99
-28.26
-30.81
-33.45
-35.76
-37.15
-36.99
-34.81
-30.41
-23.96
-15.95
-7.16
1.53
9.35
15.70
20.28
23.10
24.36
24.40
23.62
22.41
21.19
20.24
19.73
19.72
20.13
20.80
21.54
22.11
22.30
21.93
21.01
19.67
18.04
16.30
14.46
12.46
10.25
7.81
5.18
2.43
-0.36
-3.23
-6.13
-9.09
-12.08
-15.11
-18.30
-21.75
-25.47
-29.22
-32.47
-34.51
-34.72
-32.77
-28.73
-22.94
-15.91
-8.13
-0.07
7.84
15.09
21.15
25.61
28.32
29.50
29.62
29.31
29.06
29.13
29.56
30.17
30.72
30.99
30.78
30.03
28.76
27.09
25.16
23.06
20.74
18.04
14.80
10.97
6.74
2.49
-1.41
-4.78
-7.70
-10.50
-13.58
-17.18
-21.35
-25.90
-30.46
-34.63
-37.96
-40.06
-40.57
-39.22
-35.85
-30.47
-23.29
-14.71
-5.41
3.76
11.82
17.96
21.83
23.73
24.61
25.79
28.39
32.79
38.43
43.94
47.78
49.00
47.89
45.80
44.77
46.50
51.53
58.82
66.08
70.33
68.85
60.03
44.00
23.16
2.07
-13.45
-18.04
-8.70
13.60
43.89
74.58
98.12
109.69
108.73
98.89
86.12
76.14
72.13
73.73
77.50
78.73
73.57
60.48
40.72
17.56
-5.33
-25.24
-40.99
-52.74
-61.35
-67.70
-72.58
-76.63
-80.28
-83.58
-85.93
-86.11
-82.82
-75.42
-64.69
-53.09
-44.62
-43.76
-54.25
-77.54
-111.87
-152.24
-191.72
-223.49
-243.04
-249.40
-244.92
-233.85
-220.30
-206.80
-193.98
-181.07
-166.85
-150.29
-130.57
-106.79
-77.95
-43.42
-3.87
38.19
78.57
112.62
136.91
150.58
155.57
155.54
154.16
153.61
154.03
154.10
152.28
147.81
141.04
133.15
125.35
118.40
112.37
106.87
101.40
95.71
89.88
84.24
79.08
74.32
69.52
64.01
57.25
49.11
40.01
30.68
21.94
14.29
7.86
2.42
-2.43
-7.12
-11.93
-16.97
-22.15
-27.27
-32.05
-36.20
-39.43
-41.40
-41.76
-40.15
-36.34
-30.48
-23.07
-14.92
-6.91
0.25
6.18
10.80
14.29
16.91
18.91
20.46
21.59
22.30
22.64
22.67
22.58
22.54
22.67
22.91
23.08
22.92
22.22
20.86
18.88
16.39
13.57
10.51
7.26
3.87
0.38
-3.05
-6.28
-9.23
-12.02
-14.96
-18.43
-22.64
-27.32
-31.71
-34.63
-35.05
-32.47
-27.19
-20.24
-12.78
-5.78
0.40
5.82
10.73
15.25
19.23
22.42
24.63
25.88
26.31
26.04
25.11
23.51
21.28
18.72
16.29
14.41
13.27
12.70
12.26
11.45
9.91
7.59
4.66
1.46
-1.67
-4.51
-7.06
-9.48
-12.15
-15.45
-19.65
-24.71
-30.19
-35.33
-39.24
-41.11
-40.51
-37.41
-32.17
-25.42
-17.89
-10.23
-3.02
3.35
8.63
12.69
15.62
17.70
19.37
21.07
23.10
25.44
27.78
29.68
30.77
30.95
30.39
29.46
28.44
27.54
26.72
25.94
25.08
23.97
22.33
19.76
15.84
10.37
3.47
-4.41
-12.64
-20.67
-28.13
-34.81
-40.58
-45.19
-48.30
-49.63
-49.05
-46.67
-42.80
-37.75
-31.78
-25.01
-17.52
-9.52
-1.36
6.38
13.04
18.05
21.11
22.30
22.08
21.14
20.15
19.58
19.58
20.06
20.73
21.29
21.53
21.28
20.47
19.07
17.19
14.99
12.70
10.49
8.38
6.25
3.91
1.24
-1.74
-4.82
-7.86
-10.75
-13.64
-16.79
-20.42
-24.49
-28.57
-31.89
-33.49
-32.61
-28.88
-22.58
-14.50
-5.72
2.72
10.15
16.37
21.55
26.00
29.89
33.20
35.80
37.68
39.05
40.37
42.10
44.47
47.33
50.25
52.83
54.96
56.87
59.01
61.70
64.87
68.09
70.79
72.61
73.67
74.32
74.91
75.54
76.14
76.71
77.61
79.49
82.91
87.90
93.73
99.11
102.55
102.80
98.98
90.50
76.99
58.35
35.16
8.89
-18.08
-42.98
-63.41
-77.95
-86.45
-89.86
-89.64
-87.22
-83.60
-79.28
-74.56
-69.95
-66.33
-64.98
-67.15
-73.73
-85.19
-101.79
-123.93
-151.93
-185.45
-222.67
-260.05
-293.06
-317.60
-331.54
-335.33
-331.47
-323.08
-312.40
-300.15
-285.84
-268.66
-248.28
-225.01
-199.43
-171.86
-142.06
-109.28
-72.72
-32.21
11.13
54.60
94.22
125.89
146.79
156.50
157.24
152.87
147.25
142.75
139.80
137.51
134.98
132.18
130.07
129.77
131.64
134.70
137.14
137.15
133.86
127.68
119.93
112.10
105.16
99.30
94.08
88.88
83.35
77.54
71.79
66.51
61.83
57.55
53.28
48.66
43.50
37.94
32.27
26.73
21.44
16.35
11.26
6.01
0.50
-5.29
-11.33
-17.57
-23.84
-29.82
-35.01
-38.84
-40.79
-40.51
-37.93
-33.28
-27.08
-20.02
-12.82
-6.09
-0.17
4.87
9.17
12.92
16.24
19.11
21.42
23.11
24.25
24.99
25.54
25.98
26.30
26.40
26.20
25.64
24.69
23.38
21.66
19.53
16.97
14.07
10.98
7.91
5.02
2.38
-0.08
-2.53
-5.23
-8.42
-12.26
-16.76
-21.73
-26.74
-31.20
-34.43
-35.93
-35.54
-33.50
-30.26
-26.30
-21.87
-16.98
-11.54
-5.60
0.48
6.09
10.64
13.80
15.70
16.78
17.60
18.56
19.80
21.21
22.56
23.64
24.32
24.54
24.35
23.82
23.05
22.17
21.20
20.08
18.69
16.87
14.50
11.57
8.16
4.39
0.38
-3.84
-8.23
-12.79
-17.50
-22.37
-27.42
-32.65
-38.00
-43.18
-47.69
-50.80
-51.85
-50.48
-46.70
-40.94
-33.73
-25.63
-16.97
-8.01
0.93
9.49
17.15
23.46
28.19
31.42
33.50
34.90
36.06
37.22
38.46
39.64
40.59
41.18
41.42
41.45
41.47
41.66
41.99
42.27
42.15
41.28
39.46
36.81
33.66
30.60
28.18
26.74
26.33
26.63
27.09
27.07
26.09
24.08
21.50
19.42
19.24
22.37
29.54
40.41
53.39
66.03
75.79
81.03
81.59
78.79
74.82
71.73
70.71
71.80
74.27
77.27
80.41
84.00
88.86
96.04
106.30
119.76
135.64
152.00
165.87
173.91
173.33
162.85
143.26
117.03
87.34
56.90
27.25
-1.16
-28.35
-54.07
-77.48
-97.45
-113.18
-124.79
-133.42
-140.85
-148.92
-158.68
-170.11
-181.91
-191.91
-197.73
-197.71
-191.62
-180.92
-168.48
-157.84
-152.48
-155.11
-167.20
-188.46
-216.70
-247.91
-276.96
-298.90
-310.36
-310.39
-300.52
-283.80
-263.52
-242.03
-220.47
-199.10
-177.77
-156.34
-134.47
-111.32
-85.37
-54.92
-19.08
21.20
62.69
100.51
129.62
146.75
151.47
146.25
135.25
122.62
111.13
101.77
94.21
87.65
81.51
75.66
70.23
65.41
61.35
58.25
56.43
56.23
57.79
61.00
65.44
70.47
75.41
79.63
82.68
84.35
84.74
84.16
83.09
81.96
80.96
80.01
78.84
77.06
74.44
70.94
66.75
62.18
57.52
53.00
48.74
44.76
41.02
37.40
33.75
29.93
25.88
21.66
17.41
13.27
9.30
5.47
1.64
-2.29
-6.40
-10.67
-15.06
-19.55
-24.07
-28.51
-32.61
-35.93
-37.93
-38.14
-36.24
-32.25
-26.48
-19.46
-11.89
-4.47
2.19
7.65
11.67
14.29
15.74
16.37
16.61
16.77
17.06
17.52
18.08
18.66
19.19
19.64
20.05
20.43
20.75
20.97
21.02
20.82
20.29
19.35
17.93
16.00
13.54
10.64
7.39
3.97
0.51
-2.89
-6.24
-9.70
-13.47
-17.78
-22.65
-27.92
-33.09
-37.50
-40.42
-41.21
-39.62
-35.74
-30.03
-23.18
-15.93
-8.89
-2.51
2.99
7.49
10.98
13.50
15.19
16.31
17.22
18.23
19.49
20.87
22.06
22.68
22.50
21.56
20.07
18.35
16.65
15.02
13.35
11.43
9.08
6.16
2.70
-1.17
-5.21
-9.16
-12.83
-16.18
-19.41
-22.82
-26.77
-31.35
-36.31
-41.03
-44.68
-46.49
-45.98
-43.08
-38.08
-31.56
-24.10
-16.27
-8.52
-1.23
5.27
10.70
14.90
17.88
19.80
20.98
21.72
22.27
22.73
23.09
23.29
23.25
22.94
22.41
21.66
20.69
19.43
17.78
15.65
13.00
9.83
6.24
2.40
-1.52
-5.39
-9.21
-13.14
-17.44
-22.30
-27.74
-33.42
-38.68
-42.71
-44.73
-44.27
-41.30
-36.15
-29.45
-21.89
-14.08
-6.48
0.59
6.97
12.52
17.19
20.95
23.78
25.73
26.86
27.29
27.17
26.75
26.24
25.82
25.52
25.29
24.94
24.29
23.23
21.72
19.79
17.53
14.98
12.21
9.24
6.09
2.80
-0.66
-4.36
-8.42
-12.94
-17.89
-23.01
-27.81
-31.59
-33.67
-33.55
-31.08
-26.49
-20.32
-13.26
-5.94
1.12
7.58
13.18
17.76
21.25
23.74
25.47
26.84
28.18
29.65
31.19
32.54
33.43
33.74
33.52
32.97
32.27
31.45
30.34
28.72
26.38
23.29
19.57
15.51
11.40
7.44
3.70
0.05
-3.69
-7.76
-12.32
-17.39
-22.78
-28.05
-32.62
-35.86
-37.30
-36.70
-34.10
-29.74
-23.81
-16.41
-7.62
2.39
13.18
23.92
33.61
41.43
47.06
50.92
54.07
57.65
62.49
68.62
75.33
81.61
86.55
89.85
91.97
93.80
96.25
99.99
105.30
112.07
119.72
126.83
130.96
128.99
118.19
97.67
69.38
37.82
8.53
-14.17
-28.78
-36.79
-41.24
-44.67
-47.77
-49.39
-47.75
-41.88
-32.23
-20.26
-7.35
5.88
19.62
34.30
49.68
64.47
76.45
83.20
82.90
74.95
60.27
41.05
20.25
0.71
-15.66
-28.28
-37.80
-45.33
-51.61
-56.57
-59.59
-60.24
-58.89
-56.73
-55.18
-55.08
-56.32
-58.15
-60.01
-61.95
-64.54
-68.23
-73.03
-78.73
-85.53
-94.38
-106.54
-122.56
-141.21
-159.43
-173.38
-180.17
-179.19
-172.05
-161.59
-150.23
-139.01
-127.63
-115.18
-101.16
-85.90
-70.35
-55.57
-42.23
-30.44
-19.82
-9.85
-0.23
8.95
17.33
24.56
30.53
35.49
39.90
44.18
48.38
52.14
54.83
55.97
55.54
54.08
52.45
51.40
51.16
51.24
50.57
47.83
42.05
32.90
20.76
6.71
-7.87
-21.49
-32.85
-41.05
-45.66
-46.77
-44.87
-40.64
-34.81
-28.01
-20.83
-13.93
-8.05
-4.11
-2.88
-4.77
-9.58
-16.57
-24.63
-32.74
-40.19
-46.63
-51.85
-55.70
-58.03
-58.85
-58.46
-57.30
-55.72
-53.77
-51.32
-48.50
-45.97
-44.88
-46.25
-50.03
-54.70
-57.65
-56.42
-50.13
-40.17
-29.66
-21.83
-18.39
-18.80
-20.78
-21.88
-20.84
-18.09
-15.06
-12.84
-11.16
-8.33
-2.05
9.23
25.46
44.94
65.10
83.65
99.44
112.52
123.67
133.43
141.49
146.57
146.94
141.29
129.56
113.19
94.60
76.38
60.32
46.96
35.77
25.77
16.13
6.53
-3.04
-12.54
-22.10
-32.04
-42.66
-53.88
-65.05
-75.03
-82.47
-86.22
-85.68
-80.96
-72.84
-62.49
-51.27
-40.41
-30.84
-23.20
-17.69
-14.10
-11.68
-9.26
-5.48
0.76
9.78
20.88
32.46
42.57
49.56
52.62
51.83
48.00
42.12
35.11
27.63
20.12
12.90
6.15
-0.12
-6.18
-12.45
-19.43
-27.51
-36.79
-46.99
-57.45
-67.20
-75.16
-80.41
-82.50
-81.47
-77.97
-72.89
-67.14
-61.44
-56.08
-51.07
-46.15
-41.01
-35.38
-29.29
-23.04
-17.29
-12.83
-10.24
-9.64
-10.47
-11.68
-11.98
-10.34
-6.21
0.23
8.31
17.09
25.69
33.45
40.03
45.30
49.25
51.87
53.13
53.09
51.97
50.10
47.89
45.66
43.55
41.55
39.62
37.83
36.45
35.84
36.20
37.38
38.88
40.06
40.46
40.04
39.18
38.44
38.32
38.99
40.32
41.99
43.72
45.37
46.91
48.34
49.51
50.27
50.47
50.12
49.47
48.87
48.63
48.85
49.40
50.06
50.63
51.10
51.51
51.89
52.08
51.78
50.61
48.33
44.86
40.32
34.91
28.86
22.46
16.08
10.17
5.24
1.65
-0.48
-1.29
-1.06
-0.01
1.72
4.14
7.14
10.49
13.69
16.20
17.59
17.71
16.73
15.04
13.06
11.14
9.51
8.29
7.55
7.23
7.12
6.87
6.05
4.40
1.88
-1.17
-4.20
-6.69
-8.32
-9.07
-9.27
-9.35
-9.78
-10.96
-13.18
-16.56
-21.08
-26.46
-32.20
-37.58
-41.82
-44.20
-44.24
-41.80
-37.10
-30.71
-23.43
-16.07
-9.26
-3.29
1.91
6.72
11.60
16.93
22.86
29.37
36.30
43.52
51.00
58.77
66.76
74.74
82.30
88.85
93.88
97.05
98.33
98.05
96.84
95.55
95.08
96.18
99.19
103.89
109.45
114.67
118.26
119.35
117.71
113.85
108.69
103.20
97.92
92.82
87.37
80.84
72.47
61.60
47.79
31.00
11.88
-8.02
-26.44
-41.05
-50.39
-54.61
-55.45
-55.49
-56.82
-60.01
-63.80
-65.81
-63.72
-56.38
-44.22
-28.94
-12.62
2.94
16.60
27.71
35.88
40.76
42.17
40.31
35.92
30.15
24.04
18.16
12.26
5.45
-3.28
-14.50
-27.99
-42.91
-58.23
-73.26
-87.84
-102.23
-116.71
-131.22
-145.25
-157.92
-168.40
-176.07
-180.79
-182.71
-182.13
-179.39
-174.92
-169.26
-163.12
-157.25
-152.18
-148.13
-144.78
-141.51
-137.48
-131.95
-124.45
-114.92
-103.72
-91.57
-79.28
-67.44
-56.22
-45.23
-33.77
-21.05
-6.65
9.35
26.31
43.17
58.71
71.77
81.47
87.41
89.79
89.30
86.88
83.37
79.24
74.46
68.66
61.49
52.84
43.06
32.94
23.47
15.58
9.92
6.73
5.75
6.31
7.55
8.58
8.78
7.96
6.37
4.60
3.25
2.74
3.11
4.05
5.08
5.72
5.70
4.99
3.72
2.05
0.12
-1.97
-4.17
-6.45
-8.81
-11.32
-14.07
-17.19
-20.70
-24.61
-28.82
-33.24
-37.80
-42.41
-46.97
-51.30
-55.09
-57.90
-59.30
-58.90
-56.52
-52.19
-46.09
-38.48
-29.65
-19.97
-9.96
-0.29
8.34
15.34
20.44
23.77
25.76
26.99
27.93
28.87
29.84
30.70
31.29
31.50
31.34
30.90
30.30
29.58
28.62
27.24
25.21
22.44
19.01
15.19
11.26
7.49
3.98
0.66
-2.65
-6.26
-10.43
-15.35
-21.00
-27.09
-33.02
-37.92
-40.95
-41.48
-39.27
-34.51
-27.78
-19.78
-11.22
-2.71
5.31
12.48
18.56
23.37
26.85
29.04
30.04
30.04
29.29
28.08
26.75
25.58
24.73
24.19
23.77
23.23
22.30
20.82
18.71
16.05
12.96
9.62
6.21
2.83
-0.50
-3.88
-7.46
-11.35
-15.59
-20.13
-24.89
-29.75
-34.54
-38.95
-42.47
-44.47
-44.34
-41.79
-36.91
-30.23
-22.43
-14.19
-5.97
1.95
9.37
16.05
21.66
25.91
28.75
30.40
31.32
32.03
32.81
33.67
34.36
34.55
34.06
32.95
31.47
29.94
28.49
26.97
25.08
22.52
19.20
15.35
11.41
7.82
4.74
1.99
-0.91
-4.50
-9.12
-14.77
-21.09
-27.50
-33.31
-37.89
-40.73
-41.46
-39.89
-36.07
-30.27
-23.01
-14.92
-6.68
1.19
8.31
14.50
19.68
23.81
26.83
28.75
29.69
29.88
29.66
29.35
29.12
28.97
28.73
28.19
27.24
25.89
24.27
22.51
20.67
18.67
16.36
13.57
10.24
6.47
2.45
-1.55
-5.39
-9.03
-12.56
-16.15
-19.96
-24.10
-28.67
-33.68
-39.03
-44.42
-49.34
-53.10
-55.01
-54.58
-51.65
-46.41
-39.35
-31.10
-22.29
-13.48
-5.13
2.40
8.86
14.15
18.24
21.21
23.24
24.54
25.38
26.02
26.64
27.28
27.82
28.03
27.64
26.54
24.84
22.84
20.93
19.41
18.34
17.49
16.51
15.04
12.97
10.43
7.87
5.80
4.60
4.28
4.44
4.42
3.58
1.60
-1.33
-4.53
-7.14
-8.40
-7.88
-5.38
-0.75
6.14
15.25
25.95
36.76
45.56
50.21
49.44
43.22
32.64
19.13
3.64
-13.66
-33.02
-54.29
-76.32
-96.97
-113.94
-125.70
-132.11
-134.30
-133.89
-132.12
-129.41
-125.38
-119.43
-111.29
-101.29
-90.17
-78.75
-67.48
-56.22
-44.25
-30.43
-13.57
7.18
31.83
59.28
87.29
113.09
134.12
148.83
157.01
159.67
158.40
154.73
149.65
143.49
136.16
127.38
116.92
104.81
91.52
77.94
65.48
55.80
50.40
50.13
54.85
63.35
73.70
83.80
92.02
97.69
101.10
103.16
104.83
106.64
108.46
109.69
109.72
108.30
105.70
102.59
99.75
97.79
97.05
97.40
98.17
98.03
95.20
87.86
74.90
56.48
34.23
10.72
-11.47
-30.61
-46.41
-59.61
-71.38
-82.41
-92.55
-100.95
-106.71
-109.47
-109.62
-108.17
-106.13
-104.10
-102.05
-99.52
-96.04
-91.53
-86.52
-81.86
-78.46
-76.82
-76.98
-78.45
-80.48
-82.20
-82.79
-81.64
-78.46
-73.35
-66.82
-59.59
-52.44
-45.99
-40.60
-36.49
-33.77
-32.49
-32.60
-33.79
-35.44
-36.78
-37.14
-36.21
-34.26
-32.02
-30.39
-30.12
-31.53
-34.46
-38.24
-42.00
-44.75
-45.74
-44.60
-41.43
-36.73
-31.39
-26.31
-22.26
-19.68
-18.58
-18.70
-19.60
-20.81
-22.02
-23.08
-23.90
-24.36
-24.28
-23.45
-21.73
-19.19
-16.17
-13.19
-10.76
-9.14
-8.29
-7.93
-7.76
-7.60
-7.53
-7.74
-8.41
-9.62
-11.24
-13.12
-15.13
-17.25
-19.57
-22.20
-25.04
-27.78
-29.85
-30.58
-29.38
-26.03
-20.73
-14.10
-7.01
-0.32
5.31
9.53
12.26
13.67
14.03
13.63
12.72
11.53
10.27
9.17
8.39
8.01
7.93
7.90
7.61
6.85
5.57
3.86
1.87
-0.32
-2.74
-5.43
-8.37
-11.50
-14.73
-18.10
-21.80
-25.95
-30.46
-34.82
-38.26
-39.93
-39.28
-36.23
-31.18
-24.82
-17.87
-10.93
-4.42
1.30
5.88
8.97
10.37
10.15
8.74
6.89
5.41
4.85
5.29
6.35
7.34
7.62
6.82
5.01
2.53
-0.20
-2.82
-5.22
-7.47
-9.85
-12.76
-16.64
-21.87
-28.53
-36.26
-44.26
-51.34
-56.24
-57.94
-55.95
-50.47
-42.29
-32.62
-22.69
-13.49
-5.50
1.30
7.23
12.65
17.66
22.03
25.35
27.36
28.20
28.51
29.22
31.21
34.91
40.11
46.08
51.82
56.42
59.30
60.31
59.62
57.50
54.25
50.07
45.05
39.23
32.59
25.02
16.47
7.06
-2.82
-12.45
-20.97
-27.56
-31.66
-33.07
-31.85
-28.25
-22.59
-15.29
-6.92
1.81
10.22
17.77
24.20
29.49
33.72
37.02
39.47
41.14
42.13
42.44
41.91
40.19
36.82
31.46
24.07
15.01
4.93
-5.44
-15.46
-24.73
-33.03
-40.29
-46.50
-51.68
-55.82
-58.99
-61.27
-62.92
-64.32
-65.83
-67.67
-69.61
-70.91
-70.54
-67.55
-61.50
-52.72
-42.14
-30.88
-19.81
-9.23
1.03
11.30
21.61
31.61
40.57
47.77
52.82
55.81
57.27
57.88
58.24
58.62
59.00
59.16
58.84
57.91
56.30
54.04
51.23
48.04
44.77
41.75
39.33
37.69
36.71
36.03
35.26
34.08
32.47
30.63
28.82
27.11
25.27
22.77
18.92
13.18
5.34
-4.26
-14.70
-24.61
-32.58
-37.44
-38.63
-36.29
-31.06
-23.79
-15.24
-5.94
3.69
13.20
21.96
29.30
34.68
37.99
39.65
40.43
41.19
42.52
44.46
46.65
48.47
49.42
49.38
48.74
48.10
48.05
48.74
49.84
50.64
50.31
48.42
45.05
40.83
36.64
33.27
31.20
30.60
31.26
32.53
33.18
31.48
25.55
14.16
-2.53
-22.70
-43.34
-61.37
-74.78
-83.18
-87.51
-89.07
-88.59
-85.85
-80.09
-70.87
-58.74
-45.27
-32.59
-22.50
-15.88
-12.51
-11.43
-11.46
-11.76
-11.97
-12.13
-12.32
-12.42
-12.04
-10.66
-7.95
-3.99
0.69
5.30
9.11
11.76
13.27
13.94
14.15
14.13
13.93
13.49
12.72
11.61
10.24
8.71
7.07
5.34
3.48
1.44
-0.84
-3.42
-6.31
-9.51
-12.93
-16.50
-20.16
-24.00
-28.18
-32.83
-37.80
-42.53
-46.14
-47.63
-46.33
-42.13
-35.60
-27.67
-19.34
-11.33
-3.99
2.52
8.14
12.68
15.97
17.91
18.65
18.60
18.26
18.07
18.24
18.70
19.18
19.41
19.23
18.67
17.88
17.05
16.30
15.59
14.75
13.59
12.01
10.04
7.83
5.56
3.31
1.11
-1.15
-3.55
-6.14
-8.90
-11.82
-14.91
-18.33
-22.26
-26.85
-32.04
-37.53
-42.71
-46.85
-49.16
-49.12
-46.52
-41.56
-34.79
-26.92
-18.66
-10.55
-3.04
3.57
8.99
12.96
15.32
16.12
15.71
14.67
13.64
13.16
13.40
14.22
15.29
16.28
17.01
17.44
17.64
17.62
17.31
16.58
15.28
13.31
10.71
7.63
4.27
0.88
-2.35
-5.29
-7.93
-10.37
-12.83
-15.54
-18.72
-22.50
-26.80
-31.38
-35.70
-39.08
-40.84
-40.48
-37.90
-33.39
-27.53
-20.92
-14.12
-7.47
-1.28
4.22
8.75
12.11
14.21
15.20
15.41
15.21
14.95
14.86
15.05
15.51
16.22
17.05
17.81
18.25
18.15
17.40
16.01
14.15
12.04
9.86
7.67
5.48
3.27
1.02
-1.21
-3.45
-5.90
-8.84
-12.64
-17.48
-23.29
-29.60
-35.71
-40.86
-44.36
-45.78
-44.92
-41.81
-36.68
-29.91
-22.03
-13.68
-5.51
1.94
8.26
13.26
16.91
19.32
20.70
21.35
21.59
21.71
21.89
22.21
22.60
22.97
23.24
23.38
23.42
23.37
23.09
22.39
20.98
18.66
15.40
11.38
6.99
2.62
-1.43
-5.11
-8.57
-12.12
-16.10
-20.78
-26.28
-32.47
-38.92
-44.92
-49.58
-52.01
-51.60
-48.18
-42.13
-34.18
-25.25
-16.13
-7.35
0.82
8.27
14.92
20.61
25.23
28.70
31.07
32.56
33.52
34.27
35.09
36.08
37.15
38.05
38.45
38.08
36.90
35.04
32.81
30.45
28.02
25.33
22.04
17.92
12.98
7.52
2.01
-3.14
-7.81
-12.20
-16.71
-21.79
-27.68
-34.32
-41.36
-48.16
-53.91
-57.74
-58.94
-57.08
-52.13
-44.47
-34.78
-23.87
-12.48
-1.25
9.27
18.59
26.25
31.93
35.58
37.48
38.19
38.35
38.52
38.94
39.63
40.42
41.09
41.50
41.60
41.35
40.72
39.67
38.16
36.19
33.78
30.99
27.79
24.20
20.16
15.68
10.84
5.76
0.59
-4.58
-9.70
-14.84
-20.20
-26.01
-32.49
-39.61
-47.00
-53.84
-59.01
-61.35
-60.13
-55.22
-47.23
-37.21
-26.34
-15.59
-5.56
3.50
11.58
18.74
25.06
30.64
35.54
39.77
43.31
46.07
47.95
48.98
49.29
49.12
48.76
48.36
47.93
47.35
46.40
44.90
42.78
40.04
36.64
32.54
27.65
21.94
15.58
8.95
2.50
-3.37
-8.60
-13.45
-18.43
-24.10
-30.79
-38.56
-47.16
-56.15
-64.94
-72.80
-78.94
-82.53
-82.95
-79.99
-73.96
-65.56
-55.64
-44.90
-33.63
-21.75
-9.00
4.86
19.73
35.15
50.29
64.08
75.33
82.88
85.74
83.22
75.23
62.40
46.10
28.16
10.42
-5.76
-19.92
-32.62
-45.04
-58.42
-73.06
-87.81
-100.10
-106.78
-105.62
-96.68
-82.68
-68.09
-57.18
-51.70
-49.74
-46.34
-35.36
-11.90
26.00
76.70
135.07
192.97
240.13
266.03
263.13
230.62
176.58
116.89
70.08
49.99
59.97
91.52
128.43
153.99
157.69
137.79
99.84
52.26
2.60
-44.07
-84.45
-115.65
-134.75
-139.67
-130.88
-112.22
-90.08
-71.41
-61.22
-61.04
-68.89
-80.61
-91.81
-99.33
-101.84
-99.40
-92.73
-82.51
-69.30
-53.82
-37.26
-21.27
-7.55
2.57
8.43
9.94
7.19
0.26
-10.55
-24.26
-38.77
-51.01
-57.75
-56.78
-47.85
-32.84
-15.04
2.03
15.83
25.40
31.19
34.48
36.50
37.93
38.75
38.51
36.77
33.58
29.70
26.47
25.42
27.66
33.54
42.56
53.68
65.68
77.20
86.64
92.00
91.23
82.90
66.97
45.23
20.85
-2.52
-21.85
-35.41
-42.72
-44.20
-40.78
-33.78
-24.94
-16.48
-10.65
-9.08
-12.15
-18.80
-26.94
-34.15
-38.59
-39.33
-36.55
-31.10
-24.14
-16.70
-9.43
-2.64
3.58
9.19
14.07
18.03
20.90
22.63
23.37
23.42
23.19
23.02
23.13
23.57
24.24
24.97
25.60
26.01
26.13
25.84
25.04
23.56
21.33
18.33
14.72
10.73
6.64
2.64
-1.20
-4.96
-8.80
-12.95
-17.61
-22.83
-28.53
-34.32
-39.62
-43.67
-45.71
-45.20
-41.94
-36.13
-28.33
-19.35
-10.09
-1.34
6.27
12.41
16.92
19.88
21.48
21.96
21.66
20.93
20.16
19.61
19.43
19.60
19.93
20.21
20.29
20.09
19.58
18.70
17.31
15.27
12.47
8.97
5.01
0.89
-3.11
-6.92
-10.66
-14.71
-19.45
-25.15
-31.72
-38.66
-45.05
-49.81
-51.89
-50.63
-45.95
-38.40
-29.01
-18.94
-9.22
-0.51
6.89
13.00
17.91
21.62
24.04
25.01
24.54
22.89
20.68
18.64
17.40
17.21
17.86
18.79
19.35
19.04
17.67
15.37
12.44
9.19
5.76
2.12
-1.91
-6.54
-11.91
-18.06
-24.89
-32.17
-39.48
-46.24
-51.66
-54.88
-55.21
-52.30
-46.34
-38.05
-28.41
-18.49
-9.08
-0.65
6.65
12.86
18.03
22.14
25.11
26.86
27.43
27.00
25.95
24.67
23.51
22.63
21.91
21.10
19.94
18.21
15.89
13.06
9.82
6.20
2.18
-2.28
-7.17
-12.43
-18.08
-24.19
-30.90
-38.32
-46.26
-54.05
-60.61
-64.67
-65.17
-61.62
-54.34
-44.34
-32.95
-21.46
-10.71
-1.05
7.54
15.17
21.83
27.34
31.43
34.00
35.22
35.49
35.29
35.03
34.89
34.85
34.78
34.58
34.15
33.45
32.33
30.63
28.12
24.65
20.24
15.05
9.34
3.38
-2.67
-8.82
-15.29
-22.33
-30.05
-38.20
-46.04
-52.49
-56.40
-56.90
-53.78
-47.44
-38.73
-28.65
-18.02
-7.38
2.92
12.56
21.18
28.42
34.03
38.01
40.68
42.49
43.81
44.72
45.05
44.51
42.97
40.66
38.10
35.91
34.51
33.95
33.83
33.56
32.58
30.60
27.66
24.02
19.96
15.70
11.29
6.69
1.82
-3.35
-8.88
-14.79
-21.14
-27.98
-35.19
-42.36
-48.69
-53.14
-54.69
-52.69
-47.10
-38.53
-28.01
-16.66
-5.44
5.06
14.53
22.83
29.83
35.42
39.47
42.00
43.23
43.51
43.25
42.84
42.52
42.38
42.36
42.31
42.11
41.67
41.00
40.07
38.84
37.21
35.02
32.14
28.57
24.43
19.92
15.27
10.61
6.02
1.49
-3.01
-7.53
-12.18
-17.00
-22.12
-27.63
-33.62
-40.05
-46.65
-52.92
-58.03
-61.06
-61.18
-57.98
-51.61
-42.78
-32.54
-21.87
-11.51
-1.85
6.94
14.69
21.06
25.75
28.53
29.60
29.52
29.07
28.97
29.59
30.87
32.41
33.73
34.48
34.58
34.13
33.29
32.18
30.79
29.00
26.66
23.68
20.03
15.79
11.15
6.34
1.62
-2.86
-7.05
-11.05
-15.05
-19.31
-24.04
-29.39
-35.40
-41.89
-48.35
-54.00
-57.87
-59.09
-57.14
-52.09
-44.50
-35.27
-25.28
-15.24
-5.62
3.24
11.02
17.36
21.96
24.72
25.89
25.94
25.54
25.18
25.14
25.35
25.55
25.48
25.02
24.24
23.35
22.52
21.78
20.98
19.91
18.35
16.17
13.36
9.99
6.18
2.12
-1.97
-5.89
-9.51
-12.89
-16.28
-20.04
-24.57
-30.12
-36.66
-43.82
-50.90
-57.03
-61.26
-62.83
-61.35
-56.88
-49.93
-41.32
-31.89
-22.36
-13.27
-4.93
2.39
8.42
12.88
15.63
16.76
16.68
15.99
15.37
15.28
15.90
17.11
18.61
20.11
21.35
22.17
22.50
22.30
21.48
19.97
17.69
14.64
10.92
6.77
2.51
-1.53
-5.23
-8.69
-12.24
-16.29
-21.11
-26.72
-32.84
-38.90
-44.25
-48.18
-50.09
-49.51
-46.30
-40.66
-33.16
-24.61
-15.83
-7.49
0.04
6.60
12.12
16.53
19.71
21.60
22.31
22.15
21.56
21.03
20.91
21.30
22.06
22.92
23.58
23.83
23.60
22.82
21.42
19.29
16.31
12.46
7.93
3.07
-1.75
-6.27
-10.54
-14.87
-19.66
-25.18
-31.37
-37.72
-43.37
-47.33
-48.72
-47.05
-42.35
-35.17
-26.38
-16.95
-7.73
0.68
7.94
13.90
18.48
21.71
23.63
24.39
24.25
23.55
22.64
21.86
21.45
21.44
21.74
22.07
22.11
21.52
20.12
17.87
14.83
11.13
6.88
2.23
-2.67
-7.63
-12.53
-17.43
-22.54
-28.20
-34.61
-41.66
-48.80
-55.08
-59.40
-60.90
-59.17
-54.38
-47.18
-38.45
-29.03
-19.52
-10.31
-1.58
6.48
13.60
19.46
23.79
26.51
27.81
28.09
27.88
27.61
27.51
27.65
27.94
28.23
28.37
28.19
27.52
26.18
24.00
20.96
17.18
12.91
8.46
4.00
-0.47
-5.14
-10.32
-16.23
-22.90
-30.06
-37.19
-43.63
-48.66
-51.62
-51.98
-49.49
-44.25
-36.73
-27.68
-17.91
-8.13
1.23
9.91
17.70
24.33
29.45
32.77
34.29
34.35
33.59
32.76
32.38
32.63
33.38
34.22
34.80
34.89
34.45
33.59
32.40
30.85
28.82
26.09
22.56
18.28
13.50
8.58
3.86
-0.49
-4.54
-8.50
-12.67
-17.35
-22.81
-29.13
-36.14
-43.31
-49.76
-54.46
-56.46
-55.25
-50.89
-43.97
-35.37
-25.99
-16.49
-7.27
1.44
9.51
16.77
23.00
28.03
31.82
34.45
36.15
37.24
38.04
38.76
39.52
40.28
41.00
41.56
41.86
41.80
41.25
40.09
38.28
35.86
32.98
29.84
26.61
23.36
20.01
16.46
12.58
8.37
3.96
-0.42
-4.56
-8.32
-11.75
-15.09
-18.69
-22.91
-28.00
-33.95
-40.48
-47.02
-52.78
-56.89
-58.58
-57.39
-53.31
-46.83
-38.77
-30.04
-21.34
-13.04
-5.22
2.16
9.06
15.22
20.28
23.95
26.19
27.30
27.75
28.05
28.52
29.28
30.25
31.31
32.36
33.31
34.07
34.49
34.42
33.71
32.35
30.44
28.18
25.72
23.12
20.35
17.29
13.82
9.92
5.70
1.37
-2.84
-6.76
-10.36
-13.80
-17.35
-21.38
-26.16
-31.78
-38.04
-44.48
-50.42
-55.09
-57.82
-58.15
-55.95
-51.44
-45.14
-37.73
-29.80
-21.80
-13.96
-6.42
0.69
7.10
12.43
16.33
18.62
19.46
19.31
18.84
18.71
19.32
20.72
22.71
24.85
26.76
28.16
28.97
29.22
29.04
28.50
27.62
26.40
24.82
22.85
20.50
17.76
14.68
11.29
7.74
4.19
0.76
-2.53
-5.77
-9.16
-12.90
-17.17
-22.05
-27.50
-33.38
-39.38
-44.99
-49.55
-52.27
-52.59
-50.28
-45.57
-39.02
-31.40
-23.39
-15.52
-8.17
-1.63
3.82
7.96
10.68
12.12
12.58
12.53
12.44
12.67
13.35
14.43
15.68
16.82
17.60
17.89
17.69
17.08
16.18
15.06
13.73
12.07
9.94
7.22
3.91
0.16
-3.73
-7.44
-10.70
-13.46
-15.90
-18.32
-21.13
-24.64
-28.96
-33.98
-39.35
-44.51
-48.81
-51.58
-52.30
-50.67
-46.72
-40.80
-33.48
-25.41
-17.20
-9.34
-2.18
3.99
8.94
12.44
14.44
15.06
14.69
13.92
13.36
13.44
14.30
15.77
17.47
18.96
19.90
20.15
19.77
18.92
17.75
16.27
14.35
11.81
8.56
4.72
0.55
-3.57
-7.40
-10.88
-14.24
-17.82
-21.94
-26.76
-32.26
-38.19
-44.14
-49.54
-53.69
-55.89
-55.56
-52.50
-46.94
-39.46
-30.79
-21.66
-12.56
-3.87
4.13
11.11
16.79
20.99
23.73
25.24
25.91
26.17
26.34
26.63
27.04
27.53
27.96
28.24
28.29
28.09
27.61
26.79
25.49
23.48
20.56
16.64
11.86
6.54
1.09
-4.18
-9.12
-13.83
-18.54
-23.58
-29.23
-35.66
-42.81
-50.30
-57.46
-63.37
-67.09
-67.93
-65.69
-60.67
-53.52
-44.99
-35.70
-26.01
-16.14
-6.27
3.27
12.09
19.75
25.98
30.78
34.36
37.03
39.12
40.84
42.29
43.48
44.31
44.73
44.72
44.31
43.57
42.57
41.27
39.50
37.02
33.61
29.14
23.76
17.83
11.81
6.10
0.88
-3.94
-8.66
-13.67
-19.40
-26.13
-33.95
-42.60
-51.50
-59.75
-66.27
-70.09
-70.57
-67.58
-61.51
-53.14
-43.38
-33.02
-22.62
-12.42
-2.52
6.98
15.87
23.85
30.54
35.70
39.36
41.73
43.24
44.30
45.19
46.01
46.71
47.11
47.08
46.56
45.55
44.16
42.47
40.54
38.36
35.88
33.03
29.77
26.10
22.01
17.55
12.73
7.65
2.46
-2.66
-7.61
-12.43
-17.38
-22.85
-29.21
-36.66
-44.98
-53.57
-61.47
-67.63
-71.09
-71.23
-67.90
-61.43
-52.53
-42.11
-31.04
-20.03
-9.51
0.31
9.40
17.64
24.93
31.06
35.89
39.39
41.70
43.14
44.03
44.69
45.30
45.95
46.65
47.33
47.87
48.11
47.89
47.04
45.52
43.38
40.76
37.84
34.76
31.58
28.28
24.80
21.08
17.02
12.58
7.77
2.67
-2.54
-7.62
-12.42
-16.91
-21.31
-26.05
-31.57
-38.12
-45.52
-53.11
-59.84
-64.60
-66.54
-65.32
-61.13
-54.55
-46.32
-37.08
-27.33
-17.43
-7.71
1.43
9.60
16.46
21.88
25.94
28.94
31.26
33.19
34.89
36.34
37.46
38.16
38.45
38.44
38.27
38.06
37.79
37.33
36.44
34.93
32.73
30.01
27.04
24.16
21.55
19.14
16.68
13.85
10.43
6.49
2.27
-1.87
-5.71
-9.22
-12.56
-15.98
-19.76
-24.10
-29.16
-34.95
-41.25
-47.55
-53.01
-56.61
-57.47
-55.16
-49.77
-41.96
-32.72
-23.00
-13.57
-4.83
3.07
10.11
16.23
21.35
25.33
28.12
29.85
30.80
31.40
32.07
33.06
34.41
35.98
37.49
38.72
39.54
39.84
39.55
38.56
36.85
34.43
31.48
28.24
24.93
21.66
18.43
15.14
11.65
7.91
3.90
-0.31
-4.66
-9.10
-13.66
-18.43
-23.59
-29.27
-35.51
-42.04
-48.29
-53.45
-56.60
-57.08
-54.59
-49.31
-41.83
-32.93
-23.43
-14.02
-5.22
2.67
9.44
14.99
19.27
22.30
24.17
25.04
25.23
25.06
24.88
24.96
25.41
26.17
27.02
27.68
27.86
27.37
26.11
24.07
21.33
18.04
14.37
10.51
6.63
2.81
-0.95
-4.73
-8.63
-12.72
-16.99
-21.37
-25.78
-30.17
-34.58
-39.16
-44.15
-49.78
-56.13
-62.97
-69.63
-75.18
-78.54
-78.87
-75.86
-69.83
-61.62
-52.24
-42.53
-33.00
-23.85
-15.16
-7.12
-0.03
5.76
10.08
13.04
15.04
16.58
18.12
19.92
22.00
24.23
26.38
28.22
29.61
30.46
30.76
30.50
29.70
28.34
26.41
23.92
20.88
17.42
13.67
9.79
5.91
2.12
-1.56
-5.17
-8.78
-12.59
-16.79
-21.66
-27.38
-33.98
-41.24
-48.62
-55.29
-60.29
-62.72
-62.01
-58.14
-51.57
-43.18
-33.90
-24.49
-15.33
-6.56
1.79
9.62
16.62
22.43
26.80
29.71
31.44
32.41
33.02
33.55
34.15
34.83
35.60
36.38
37.08
37.52
37.51
36.94
35.76
34.04
31.85
29.30
26.44
23.25
19.78
16.02
12.04
7.92
3.75
-0.41
-4.54
-8.71
-13.03
-17.70
-22.91
-28.79
-35.30
-42.17
-48.82
-54.46
-58.24
-59.51
-57.91
-53.59
-47.05
-38.99
-30.10
-20.90
-11.73
-2.80
5.68
13.45
20.22
25.75
29.94
32.86
34.73
35.92
36.77
37.51
38.27
39.03
39.71
40.22
40.49
40.49
40.16
39.44
38.25
36.63
34.65
32.42
30.02
27.40
24.47
21.10
17.29
13.17
8.99
4.97
1.21
-2.37
-5.99
-9.98
-14.63
-20.07
-26.18
-32.53
-38.42
-42.97
-45.35
-44.99
-41.77
-35.98
-28.30
-19.52
-10.42
-1.57
6.62
13.88
20.01
24.83
28.24
30.29
31.24
31.46
31.39
31.41
31.69
32.19
32.75
33.20
33.36
33.11
32.35
30.99
29.00
26.40
23.32
19.93
16.38
12.75
8.97
4.97
0.66
-3.90
-8.55
-13.12
-17.50
-21.74
-26.03
-30.72
-36.10
-42.34
-49.29
-56.44
-62.99
-67.97
-70.51
-70.02
-66.40
-60.00
-51.59
-42.05
-32.15
-22.41
-13.07
-4.23
4.00
11.42
17.76
22.77
26.39
28.76
30.20
31.03
31.57
32.01
32.48
33.07
33.80
34.64
35.42
35.89
35.82
35.02
33.49
31.36
28.81
25.97
22.87
19.44
15.59
11.31
6.68
1.91
-2.77
-7.19
-11.31
-15.28
-19.39
-23.96
-29.24
-35.31
-41.98
-48.83
-55.17
-60.20
-63.16
-63.39
-60.63
-55.01
-47.11
-37.78
-27.97
-18.43
-9.54
-1.38
6.11
12.93
18.89
23.65
26.96
28.86
29.71
30.12
30.65
31.60
32.93
34.36
35.52
36.17
36.20
35.62
34.48
32.83
30.74
28.28
25.57
22.68
19.62
16.31
12.71
8.77
4.57
0.32
-3.80
-7.64
-11.24
-14.80
-18.64
-23.11
-28.46
-34.70
-41.58
-48.54
-54.70
-59.11
-60.94
-59.71
-55.43
-48.62
-40.12
-30.78
-21.33
-12.17
-3.53
4.49
11.72
17.94
22.86
26.32
28.30
29.03
28.96
28.61
28.45
28.77
29.60
30.75
31.84
32.55
32.67
32.18
31.23
30.00
28.60
27.00
25.01
22.48
19.34
15.71
11.82
7.89
4.01
0.17
-3.75
-7.80
-11.97
-16.18
-20.45
-24.92
-29.86
-35.42
-41.46
-47.44
-52.47
-55.56
-55.98
-53.45
-48.26
-41.06
-32.68
-23.84
-15.04
-6.65
1.02
7.68
13.05
16.97
19.47
20.80
21.43
21.80
22.28
23.06
24.13
25.37
26.55
27.46
27.95
27.94
27.42
26.48
25.19
23.56
21.58
19.15
16.23
12.85
9.15
5.35
1.65
-1.81
-5.08
-8.27
-11.65
-15.43
-19.86
-25.07
-31.05
-37.51
-43.89
-49.34
-52.92
-53.90
-51.91
-47.11
-40.07
-31.59
-22.40
-13.10
-4.09
4.33
11.86
18.24
23.25
26.86
29.14
30.41
31.00
31.30
31.58
32.00
32.59
33.26
33.83
34.15
34.13
33.74
32.99
31.88
30.34
28.21
25.36
21.75
17.46
12.74
7.92
3.20
-1.32
-5.74
-10.25
-15.09
-20.45
-26.39
-32.88
-39.69
-46.38
-52.27
-56.57
-58.50
-57.55
-53.63
-47.13
-38.79
-29.42
-19.72
-10.15
-0.94
7.68
15.48
22.19
27.61
31.78
34.89
37.27
39.20
40.81
42.08
42.99
43.53
43.75
43.69
43.33
42.58
41.30
39.40
36.80
33.46
29.29
24.29
18.55
12.39
6.29
0.72
-4.06
-8.19
-12.10
-16.42
-21.70
-28.22
-35.86
-44.18
-52.40
-59.63
-64.97
-67.74
-67.54
-64.41
-58.72
-51.03
-41.97
-32.04
-21.64
-11.03
-0.52
9.53
18.70
26.58
32.92
37.68
41.01
43.20
44.59
45.46
46.02
46.40
46.63
46.67
46.38
45.62
44.28
42.36
39.99
37.31
34.39
31.17
27.46
23.10
18.04
12.46
6.68
1.04
-4.29
-9.36
-14.45
-19.91
-26.08
-33.13
-40.94
-49.11
-56.97
-63.67
-68.41
-70.51
-69.64
-65.83
-59.46
-51.11
-41.46
-31.14
-20.65
-10.36
-0.52
8.66
17.00
24.29
30.36
35.09
38.49
40.71
42.00
42.69
43.05
43.25
43.33
43.27
42.97
42.34
41.37
40.02
38.33
36.27
33.79
30.77
27.11
22.77
17.81
12.44
6.92
1.53
-3.54
-8.26
-12.80
-17.42
-22.48
-28.24
-34.81
-42.13
-49.86
-57.45
-64.13
-69.05
-71.37
-70.56
-66.53
-59.67
-50.87
-41.07
-31.14
-21.54
-12.41
-3.70
4.60
12.33
19.13
24.67
28.73
31.39
32.92
33.75
34.23
34.65
35.11
35.62
36.07
36.33
36.23
35.67
34.59
33.02
31.04
28.80
26.35
23.71
20.79
17.48
13.70
9.44
4.82
-0.01
-4.87
-9.62
-14.22
-18.72
-23.29
-28.19
-33.71
-40.03
-47.08
-54.38
-61.10
-66.21
-68.75
-68.13
-64.34
-57.94
-49.78
-40.72
-31.37
-22.03
-12.80
-3.82
4.61
12.06
18.10
22.48
25.28
26.83
27.59
28.00
28.42
29.05
29.98
31.16
32.51
33.82
34.91
35.59
35.72
35.21
34.05
32.31
30.15
27.80
25.45
23.12
20.69
17.88
14.46
10.42
5.93
1.37
-3.00
-7.11
-11.19
-15.60
-20.69
-26.58
-33.11
-39.84
-46.15
-51.32
-54.66
-55.65
-54.00
-49.81
-43.49
-35.70
-27.16
-18.50
-10.14
-2.40
4.48
10.25
14.71
17.78
19.57
20.42
20.80
21.11
21.61
22.39
23.38
24.47
25.51
26.36
26.93
27.13
26.92
26.28
25.19
23.63
21.52
18.83
15.55
11.77
7.69
3.52
-0.55
-4.42
-8.15
-11.89
-15.85
-20.21
-25.08
-30.47
-36.26
-42.19
-47.79
-52.44
-55.43
-56.15
-54.30
-49.93
-43.46
-35.51
-26.76
-17.81
-9.15
-1.24
5.55
10.88
14.56
16.66
17.46
17.44
17.07
16.76
16.78
17.18
17.91
18.78
19.61
20.21
20.50
20.44
20.07
19.37
18.32
16.83
14.79
12.14
8.90
5.24
1.36
-2.55
-6.40
-10.25
-14.29
-18.69
-23.60
-29.07
-35.01
-41.17
-47.10
-52.11
-55.40
-56.22
-54.11
-49.09
-41.70
-32.77
-23.25
-13.86
-5.04
3.02
10.20
16.42
21.54
25.47
28.23
29.94
30.86
31.28
31.45
31.57
31.74
31.94
32.09
32.04
31.64
30.77
29.32
27.26
24.60
21.40
17.77
13.93
10.11
6.55
3.33
0.33
-2.76
-6.35
-10.83
-16.40
-23.05
-30.47
-38.19
-45.53
-51.72
-55.94
-57.52
-56.07
-51.59
-44.53
-35.63
-25.72
-15.59
-5.79
3.32
11.55
18.77
24.90
29.86
33.61
36.18
37.71
38.38
38.47
38.26
37.96
37.71
37.53
37.36
37.06
36.48
35.45
33.73
31.12
27.51
22.93
17.64
12.05
6.54
1.37
-3.47
-8.18
-13.12
-18.66
-25.07
-32.43
-40.58
-49.02
-57.01
-63.55
-67.72
-68.82
-66.65
-61.47
-53.92
-44.80
-34.80
-24.42
-13.92
-3.45
6.81
16.58
25.45
32.97
38.84
42.99
45.65
47.23
48.22
48.86
49.24
49.20
48.58
47.36
45.69
43.77
41.72
39.50
36.81
33.36
28.98
23.71
17.83
11.74
5.80
0.21
-5.01
-10.05
-15.24
-20.92
-27.42
-34.94
-43.41
-52.40
-61.14
-68.59
-73.67
-75.51
-73.69
-68.31
-59.98
-49.61
-38.09
-26.17
-14.32
-2.81
8.21
18.53
27.89
36.02
42.69
47.87
51.62
54.12
55.56
56.11
55.99
55.39
54.50
53.45
52.23
50.77
48.97
46.76
44.15
41.16
37.77
33.87
29.35
24.16
18.45
12.49
6.59
0.93
-4.54
-10.04
-15.88
-22.22
-29.12
-36.49
-44.12
-51.71
-58.85
-64.88
-69.01
-70.45
-68.66
-63.55
-55.51
-45.38
-34.07
-22.42
-10.97
-0.02
10.31
19.82
28.28
35.37
40.86
44.70
47.08
48.38
49.01
49.33
49.51
49.59
49.50
49.21
48.71
48.00
47.04
45.64
43.62
40.84
37.24
32.96
28.20
23.20
18.09
12.93
7.73
2.48
-2.81
-8.07
-13.25
-18.37
-23.53
-28.92
-34.80
-41.38
-48.65
-56.24
-63.40
-69.08
-72.21
-72.03
-68.30
-61.34
-51.92
-41.00
-29.42
-17.81
-6.54
4.11
13.86
22.34
29.23
34.30
37.59
39.42
40.28
40.67
40.97
41.38
41.90
42.47
42.97
43.33
43.42
43.11
42.22
40.58
38.16
35.09
31.63
28.09
24.65
21.34
18.00
14.39
10.30
5.72
0.82
-4.17
-8.99
-13.60
-18.13
-22.90
-28.28
-34.55
-41.76
-49.64
-57.57
-64.62
-69.76
-72.12
-71.25
-67.22
-60.55
-52.06
-42.55
-32.66
-22.75
-13.10
-3.96
4.31
11.34
16.84
20.72
23.12
24.39
24.96
25.24
25.56
26.12
27.00
28.15
29.38
30.47
31.16
31.24
30.60
29.22
27.24
24.81
22.15
19.40
16.62
13.76
10.69
7.26
3.41
-0.86
-5.42
-10.09
-14.68
-19.10
-23.35
-27.54
-31.87
-36.62
-42.05
-48.21
-54.86
-61.35
-66.69
-69.81
-69.89
-66.59
-60.23
-51.61
-41.72
-31.47
-21.51
-12.20
-3.75
3.67
9.93
14.87
18.45
20.76
22.08
22.81
23.41
24.24
25.51
27.19
29.01
30.62
31.72
32.15
31.99
31.39
30.49
29.31
27.71
25.52
22.66
19.22
15.47
11.71
8.19
4.93
1.83
-1.25
-4.41
-7.67
-11.05
-14.66
-18.76
-23.64
-29.39
-35.74
-41.95
-46.98
-49.78
-49.64
-46.36
-40.30
-32.20
-22.95
-13.39
-4.15
4.34
11.83
18.12
23.02
26.35
28.02
28.10
27.00
25.34
23.89
23.27
23.68
24.84
26.17
27.03
27.04
26.13
24.53
22.49
20.18
17.54
14.40
10.63
6.24
1.37
-3.71
-8.74
-13.51
-17.92
-22.00
-25.90
-29.91
-34.40
-39.69
-45.95
-52.97
-60.18
-66.66
-71.32
-73.23
-71.84
-67.12
-59.56
-49.99
-39.35
-28.51
-18.06
-8.34
0.53
8.48
15.41
21.13
25.44
28.23
29.62
30.00
29.88
29.78
29.99
30.50
31.10
31.48
31.43
30.84
29.76
28.28
26.41
24.16
21.44
18.20
14.44
10.27
5.81
1.27
-3.20
-7.55
-11.84
-16.26
-21.02
-26.30
-32.25
-38.92
-46.32
-54.28
-62.37
-69.79
-75.44
-78.22
-77.32
-72.56
-64.47
-54.05
-42.44
-30.57
-19.03
-8.13
1.91
10.84
18.35
24.23
28.55
31.62
33.93
35.96
37.95
39.93
41.74
43.19
44.19
44.73
44.84
44.55
43.87
42.79
41.28
39.33
36.87
33.85
30.21
25.94
21.15
15.96
10.59
5.19
-0.14
-5.40
-10.67
-16.12
-21.96
-28.42
-35.66
-43.60
-51.83
-59.56
-65.79
-69.51
-69.98
-66.96
-60.68
-51.84
-41.28
-29.88
-18.40
-7.38
2.80
11.85
19.54
25.73
30.38
33.56
35.51
36.57
37.09
37.38
37.57
37.70
37.70
37.47
36.99
36.31
35.54
34.76
33.94
32.92
31.44
29.21
26.03
21.88
16.96
11.60
6.13
0.79
-4.40
-9.57
-14.95
-20.78
-27.21
-34.28
-41.89
-49.75
-57.36
-64.01
-68.86
-71.16
-70.41
-66.53
-59.89
-51.16
-41.10
-30.38
-19.49
-8.79
1.37
10.60
18.45
24.56
28.71
30.98
31.83
32.02
32.52
34.19
37.54
42.50
48.39
54.20
58.88
61.79
62.80
62.21
60.50
58.03
54.92
51.07
46.39
40.90
34.81
28.45
22.19
16.26
10.75
5.55
0.43
-4.91
-10.76
-17.25
-24.41
-32.03
-39.74
-46.97
-53.02
-57.15
-58.70
-57.29
-52.94
-46.08
-37.45
-27.93
-18.27
-9.02
-0.53
7.06
13.62
19.06
23.34
26.54
28.89
30.72
32.35
33.95
35.50
36.81
37.68
37.93
37.57
36.73
35.63
34.41
33.17
31.81
30.15
27.98
25.12
21.53
17.32
12.77
8.08
3.33
-1.58
-6.89
-12.73
-19.03
-25.44
-31.59
-37.25
-42.53
-47.88
-53.67
-59.87
-65.74
-69.91
-70.81
-67.33
-59.32
-47.81
-34.71
-22.22
-12.07
-5.14
-1.23
0.71
2.15
4.39
8.18
13.39
19.10
23.86
26.39
26.26
24.58
24.11
28.85
42.85
68.77
106.36
151.70
197.55
234.93
255.62
254.82
232.69
194.25
147.31
99.48
55.65
17.13
-17.42
-50.10
-81.91
-112.18
-139.19
-161.19
-177.03
-186.05
-187.55
-180.49
-163.83
-137.26
-101.99
-60.80
-17.54
23.86
60.15
89.38
111.04
126.05
136.27
143.91
150.65
157.11
162.70
166.14
166.27
162.80
156.48
148.67
140.63
132.98
125.64
118.13
110.01
101.05
91.26
80.72
69.52
57.96
46.57
36.13
27.23
20.04
14.08
8.43
2.21
-4.98
-12.89
-20.90
-28.37
-35.03
-40.99
-46.60
-52.28
-58.26
-64.70
-71.51
-78.37
-84.58
-89.07
-90.68
-88.46
-82.14
-72.25
-60.01
-46.95
-34.50
-23.74
-15.20
-9.07
-5.16
-3.16
-2.65
-3.26
-4.67
-6.69
-9.14
-11.91
-14.84
-17.79
-20.63
-23.38
-26.32
-29.98
-35.10
-42.42
-52.37
-65.00
-79.83
-96.00
-112.51
-128.44
-143.11
-156.25
-167.85
-178.18
-187.70
-196.97
-206.54
-216.81
-227.69
-238.63
-248.60
-256.36
-260.87
-261.50
-258.20
-251.27
-241.08
-227.89
-211.79
-192.95
-171.73
-148.69
-124.21
-98.10
-69.74
-38.48
-4.52
30.75
65.32
97.81
128.67
159.98
193.88
230.30
265.62
293.37
306.93
302.62
281.42
248.02
208.21
165.93
122.22
76.34
28.09
-20.47
-65.16
-101.38
-126.44
-140.73
-147.36
-150.56
-153.62
-157.77
-162.09
-164.65
-163.94
-159.91
-153.98
-148.29
-144.50
-142.94
-142.49
-141.24
-137.48
-130.52
-120.81
-109.50
-97.85
-86.72
-76.48
-67.21
-58.77
-50.70
-42.17
-31.93
-18.68
-1.55
19.52
43.62
69.00
93.46
114.76
130.96
140.85
144.12
141.47
134.53
125.48
116.46
108.97
103.47
99.34
95.25
89.83
82.14
72.07
60.24
47.72
35.65
24.83
15.62
7.95
1.47
-4.24
-9.51
-14.44
-18.94
-22.62
-24.96
-25.40
-23.50
-19.05
-12.10
-2.99
7.72
19.31
31.03
42.13
51.98
60.20
66.64
71.30
74.26
75.62
75.47
74.07
71.82
69.24
66.85
64.98
63.68
62.75
61.96
61.10
60.12
58.96
57.46
55.32
52.22
47.99
42.75
36.91
31.01
25.46
20.41
15.66
10.76
5.21
-1.35
-8.91
-17.06
-24.98
-31.63
-35.96
-37.17
-34.89
-29.25
-20.83
-10.43
1.10
13.00
24.60
35.30
44.53
51.76
56.65
59.15
59.61
58.68
57.11
55.56
54.39
53.69
53.30
53.00
52.60
51.95
50.98
49.58
47.60
44.86
41.18
36.50
30.92
24.74
18.36
12.17
6.35
0.80
-4.89
-11.29
-18.85
-27.70
-37.47
-47.28
-55.88
-61.97
-64.48
-62.86
-57.16
-48.03
-36.46
-23.53
-10.20
2.87
15.21
26.49
36.34
44.41
50.38
54.20
56.07
56.53
56.26
55.85
55.59
55.46
55.23
54.68
53.69
52.26
50.34
47.77
44.28
39.63
33.76
26.94
19.64
12.44
5.74
-0.31
-5.86
-11.22
-16.70
-22.60
-29.15
-36.54
-44.74
-53.43
-61.85
-68.80
-73.00
-73.41
-69.60
-61.88
-51.20
-38.76
-25.65
-12.65
-0.18
11.51
22.17
31.46
39.01
44.62
48.31
50.44
51.49
51.95
52.13
52.15
51.94
51.38
50.37
48.93
47.13
45.06
42.74
40.06
36.85
32.94
28.28
22.96
17.23
11.37
5.63
0.08
-5.41
-11.10
-17.36
-24.46
-32.50
-41.31
-50.46
-59.17
-66.45
-71.31
-73.02
-71.30
-66.46
-59.14
-50.12
-39.99
-29.13
-17.73
-6.11
5.22
15.56
24.19
30.70
35.09
37.72
39.17
39.96
40.38
40.56
40.47
40.08
39.40
38.48
37.41
36.22
34.89
33.28
31.20
28.38
24.62
19.91
14.42
8.56
2.74
-2.74
-7.79
-12.60
-17.53
-22.96
-29.16
-36.24
-44.12
-52.52
-60.96
-68.72
-74.89
-78.50
-78.76
-75.29
-68.22
-58.24
-46.33
-33.53
-20.73
-8.57
2.52
12.25
20.38
26.70
31.16
33.86
35.15
35.52
35.47
35.40
35.57
35.99
36.53
37.00
37.18
36.88
36.01
34.58
32.63
30.29
27.67
24.80
21.61
17.91
13.50
8.34
2.55
-3.49
-9.36
-14.74
-19.57
-24.13
-28.92
-34.44
-40.97
-48.43
-56.35
-63.98
-70.44
-74.82
-76.38
-74.69
-69.68
-61.74
-51.55
-40.03
-28.04
-16.35
-5.50
4.15
12.35
18.96
23.88
27.16
28.92
29.48
29.28
28.87
28.69
29.06
29.98
31.20
32.33
33.02
33.16
32.83
32.22
31.45
30.43
28.87
26.44
22.98
18.62
13.72
8.77
4.08
-0.21
-4.25
-8.30
-12.65
-17.53
-23.11
-29.51
-36.72
-44.45
-52.13
-58.79
-63.33
-64.77
-62.54
-56.77
-48.15
-37.81
-26.87
-16.13
-6.02
3.37
11.96
19.53
25.66
29.86
31.92
32.03
30.87
29.32
28.18
27.88
28.38
29.33
30.24
30.71
30.50
29.56
27.89
25.56
22.61
19.15
15.26
11.03
6.53
1.79
-3.19
-8.40
-13.83
-19.48
-25.41
-31.68
-38.46
-45.91
-54.08
-62.77
-71.46
-79.29
-85.22
-88.21
-87.50
-82.78
-74.30
-62.84
-49.51
-35.52
-21.88
-9.28
1.96
11.79
20.19
27.09
32.37
35.95
37.95
38.78
39.01
39.22
39.74
40.61
41.58
42.30
42.50
42.08
41.12
39.76
38.07
36.00
33.38
30.00
25.74
20.61
14.78
8.55
2.27
-3.74
-9.35
-14.59
-19.70
-25.04
-30.94
-37.66
-45.30
-53.71
-62.54
-71.13
-78.58
-83.82
-85.82
-83.85
-77.71
-67.83
-55.23
-41.26
-27.15
-13.85
-1.84
8.74
17.90
25.65
31.94
36.72
40.09
42.33
43.87
45.14
46.34
47.38
47.96
47.77
46.66
44.77
42.44
40.05
37.80
35.69
33.52
31.03
28.07
24.55
20.50
16.00
11.14
5.99
0.66
-4.79
-10.32
-15.94
-21.75
-27.93
-34.67
-42.14
-50.44
-59.37
-68.41
-76.63
-82.79
-85.66
-84.33
-78.57
-68.87
-56.36
-42.39
-28.26
-14.88
-2.76
7.92
17.09
24.67
30.54
34.64
37.04
38.07
38.22
38.05
38.02
38.40
39.20
40.25
41.29
42.02
42.24
41.78
40.60
38.68
36.12
33.01
29.45
25.51
21.24
16.76
12.14
7.46
2.80
-1.87
-6.58
-11.41
-16.42
-21.69
-27.34
-33.59
-40.59
-48.34
-56.42
-63.97
-69.73
-72.41
-71.10
-65.55
-56.33
-44.56
-31.60
-18.60
-6.36
4.68
14.25
22.10
28.00
31.82
33.70
34.13
33.83
33.62
34.09
35.47
37.59
40.00
42.14
43.62
44.22
43.98
43.10
41.76
39.99
37.70
34.64
30.62
25.66
19.98
13.99
8.06
2.46
-2.79
-7.90
-13.18
-19.01
-25.64
-33.20
-41.57
-50.38
-58.95
-66.33
-71.50
-73.49
-71.71
-66.05
-56.99
-45.43
-32.54
-19.46
-7.03
4.30
14.41
23.29
30.87
36.85
40.85
42.65
42.43
40.91
39.05
37.78
37.57
38.33
39.59
40.76
41.45
41.58
41.24
40.48
39.20
37.13
34.05
29.89
24.85
19.32
13.74
8.43
3.49
-1.19
-5.89
-10.96
-16.72
-23.34
-30.88
-39.16
-47.85
-56.38
-64.03
-69.97
-73.32
-73.37
-69.72
-62.46
-52.16
-39.74
-26.29
-12.77
0.02
11.56
21.49
29.51
35.46
39.37
41.56
42.53
42.89
43.13
43.47
43.92
44.31
44.53
44.58
44.47
44.30
44.01
43.46
42.48
40.93
38.78
36.12
33.08
29.80
26.33
22.65
18.72
14.52
10.07
5.35
0.26
-5.41
-11.83
-19.01
-26.78
-34.77
-42.55
-49.62
-55.53
-59.74
-61.78
-61.34
-58.43
-53.42
-46.88
-39.29
-30.88
-21.65
-11.57
-0.92
9.67
19.30
26.96
31.75
33.07
30.72
25.02
16.91
7.81
-0.62
-6.87
-9.93
-9.40
-5.50
1.19
9.93
19.93
30.49
41.12
51.67
62.34
73.30
84.37
94.66
102.73
107.10
106.92
102.36
94.59
85.39
76.38
68.57
62.06
56.07
49.32
40.51
28.85
14.44
-1.62
-17.51
-31.15
-40.90
-46.00
-46.60
-43.49
-37.72
-30.31
-22.18
-14.25
-7.45
-2.59
-0.11
0.16
-1.00
-2.48
-3.25
-2.77
-1.16
0.94
2.64
3.28
2.70
1.26
-0.27
-1.14
-0.88
0.43
2.23
3.71
4.19
3.28
0.93
-2.63
-7.09
-12.09
-17.35
-22.57
-27.63
-32.62
-37.89
-43.93
-51.00
-58.81
-66.31
-71.98
-74.32
-72.47
-66.53
-57.58
-47.13
-36.70
-27.38
-19.75
-14.01
-10.20
-8.33
-8.45
-10.44
-13.89
-18.08
-22.03
-24.84
-25.92
-25.17
-22.99
-19.98
-16.71
-13.41
-10.08
-6.57
-2.82
0.97
4.50
7.41
9.51
10.77
11.24
10.91
9.64
7.25
3.51
-1.70
-8.42
-16.58
-25.96
-36.12
-46.32
-55.55
-62.68
-66.72
-67.20
-64.26
-58.68
-51.52
-43.78
-36.06
-28.60
-21.41
-14.52
-8.09
-2.43
2.23
5.92
8.93
11.80
15.01
18.85
23.26
27.81
31.90
34.85
36.12
35.41
32.73
28.40
22.84
16.53
9.81
2.95
-3.83
-10.24
-15.96
-20.63
-24.02
-26.14
-27.34
-28.28
-29.68
-32.20
-36.12
-41.23
-46.86
-51.99
-55.59
-56.82
-55.30
-51.13
-44.83
-37.08
-28.52
-19.65
-10.78
-2.17
5.82
12.72
18.03
21.40
22.85
22.79
21.95
21.09
20.78
21.19
22.14
23.22
24.06
24.49
24.57
24.45
24.25
23.89
23.10
21.61
19.29
16.30
12.99
9.73
6.73
3.97
1.17
-2.03
-5.91
-10.61
-16.05
-21.86
-27.42
-31.89
-34.35
-34.04
-30.59
-24.22
-15.71
-6.14
3.41
12.13
19.59
25.72
30.56
34.18
36.58
37.77
37.86
37.15
36.03
34.90
34.04
33.49
33.21
33.03
32.86
32.58
32.11
31.27
29.81
27.49
24.18
19.97
15.19
10.30
5.74
1.79
-1.57
-4.62
-7.85
-11.77
-16.73
-22.72
-29.33
-35.77
-41.06
-44.29
-44.78
-42.30
-37.04
-29.58
-20.68
-11.21
-1.89
6.73
14.36
20.90
26.28
30.41
33.20
34.64
34.89
34.35
33.55
32.93
32.67
32.62
32.45
31.83
30.66
29.08
27.37
25.71
24.12
22.43
20.40
17.83
14.70
11.14
7.36
3.64
0.08
-3.28
-6.60
-10.11
-14.03
-18.54
-23.61
-28.97
-34.13
-38.42
-41.13
-41.69
-39.79
-35.50
-29.26
-21.75
-13.71
-5.80
1.50
7.98
13.59
18.35
22.31
25.47
27.81
29.31
30.02
30.11
29.84
29.47
29.21
29.17
29.29
29.43
29.35
28.81
27.68
25.91
23.64
21.10
18.54
16.05
13.60
11.01
8.10
4.79
1.22
-2.35
-5.62
-8.36
-10.62
-12.57
-14.60
-17.10
-20.42
-24.78
-30.21
-36.50
-43.17
-49.50
-54.58
-57.54
-57.73
-54.96
-49.55
-42.32
-34.22
-26.12
-18.58
-11.79
-5.76
-0.41
4.23
8.08
11.07
13.20
14.62
15.54
16.20
16.77
17.39
18.08
18.81
19.47
19.89
19.96
19.60
18.81
17.55
15.84
13.64
10.99
8.02
4.93
1.95
-0.81
-3.35
-5.82
-8.36
-11.03
-13.80
-16.59
-19.40
-22.27
-25.38
-28.81
-32.63
-36.80
-41.16
-45.46
-49.32
-52.26
-53.69
-53.07
-50.11
-44.95
-38.13
-30.46
-22.83
-15.85
-9.86
-4.91
-0.91
2.22
4.52
6.02
6.85
7.22
7.47
7.91
8.71
9.84
11.05
12.10
12.76
12.99
12.86
12.50
11.99
11.30
10.34
9.02
7.33
5.34
3.15
0.83
-1.61
-4.17
-6.80
-9.35
-11.71
-13.83
-15.85
-18.07
-20.83
-24.39
-28.80
-33.80
-38.85
-43.21
-46.05
-46.69
-44.73
-40.23
-33.70
-25.91
-17.71
-9.76
-2.51
3.79
8.96
12.83
15.30
16.41
16.39
15.66
14.74
14.07
13.93
14.37
15.23
16.21
17.00
17.37
17.24
16.73
15.97
15.07
13.94
12.30
9.85
6.41
2.16
-2.52
-7.10
-11.22
-14.81
-18.07
-21.36
-25.01
-29.22
-34.03
-39.36
-44.97
-50.44
-55.13
-58.22
-58.93
-56.70
-51.51
-43.89
-34.72
-24.99
-15.50
-6.68
1.28
8.29
14.23
18.85
21.95
23.58
24.10
24.14
24.40
25.32
26.99
29.10
31.18
32.72
33.44
33.29
32.48
31.29
29.99
28.69
27.30
25.62
23.41
20.49
16.84
12.61
8.08
3.56
-0.70
-4.63
-8.33
-12.05
-16.13
-20.91
-26.64
-33.36
-40.79
-48.26
-54.84
-59.41
-60.98
-58.96
-53.37
-44.87
-34.54
-23.59
-12.95
-3.18
5.59
13.40
20.30
26.23
31.08
34.76
37.36
39.18
40.61
42.05
43.74
45.67
47.59
49.12
49.89
49.68
48.50
46.56
44.25
41.90
39.68
37.51
35.16
32.37
29.00
25.14
20.99
16.81
12.76
8.88
5.04
1.01
-3.46
-8.57
-14.39
-20.85
-27.68
-34.37
-40.19
-44.26
-45.74
-44.10
-39.34
-31.99
-23.04
-13.53
-4.27
4.34
12.21
19.38
25.72
30.87
34.45
36.30
36.65
36.11
35.45
35.23
35.62
36.38
37.11
37.41
37.18
36.57
35.83
35.16
34.53
33.76
32.48
30.45
27.56
23.94
19.81
15.50
11.22
7.18
3.46
0.05
-3.17
-6.44
-10.10
-14.45
-19.65
-25.59
-31.85
-37.64
-42.02
-44.07
-43.15
-39.05
-32.09
-23.00
-12.73
-2.28
7.54
16.13
23.17
28.43
31.80
33.29
33.09
31.61
29.52
27.56
26.30
25.95
26.33
26.93
27.22
26.85
25.78
24.19
22.39
20.55
18.67
16.55
13.96
10.75
6.95
2.81
-1.36
-5.24
-8.73
-11.90
-15.02
-18.47
-22.65
-27.80
-33.95
-40.78
-47.63
-53.52
-57.36
-58.30
-55.94
-50.46
-42.54
-33.10
-23.09
-13.22
-4.02
4.17
11.15
16.78
21.05
24.03
25.92
26.93
27.36
27.51
27.67
28.09
28.85
29.84
30.76
31.33
31.30
30.65
29.44
27.85
25.97
23.80
21.26
18.24
14.66
10.52
6.01
1.35
-3.14
-7.27
-11.04
-14.74
-18.79
-23.68
-29.60
-36.36
-43.33
-49.59
-54.20
-56.37
-55.65
-51.97
-45.67
-37.35
-27.80
-17.86
-8.30
0.25
7.39
12.94
16.94
19.62
21.27
22.24
22.81
23.17
23.40
23.55
23.63
23.67
23.70
23.73
23.73
23.64
23.42
22.96
22.17
20.87
18.84
15.96
12.28
8.02
3.59
-0.64
-4.46
-7.89
-11.18
-14.68
-18.72
-23.37
-28.43
-33.30
-37.11
-38.90
-37.89
-33.82
-27.03
-18.44
-9.18
-0.28
7.59
14.21
19.51
23.54
26.24
27.55
27.56
26.56
25.04
23.56
22.51
22.03
21.99
22.13
22.23
22.12
21.72
21.01
19.90
18.30
16.11
13.33
10.02
6.35
2.54
-1.19
-4.68
-7.86
-10.77
-13.65
-16.83
-20.67
-25.38
-30.81
-36.34
-40.93
-43.43
-42.88
-38.90
-31.81
-22.59
-12.52
-2.83
5.66
12.65
18.26
22.88
26.84
30.26
33.01
34.76
35.29
34.62
33.18
31.71
31.01
31.57
33.39
35.87
38.09
39.19
38.65
36.52
33.42
30.30
28.29
28.52
31.79
38.06
45.93
52.38
53.38
45.00
25.08
-5.53
-42.89
-81.10
-114.36
-138.68
-152.77
-157.44
-154.46
-145.35
-131.07
-112.41
-90.79
-68.46
-48.10
-31.82
-20.35
-12.84
-7.48
-2.54
2.74
7.97
12.14
14.41
14.78
14.14
13.86
15.08
18.17
22.58
27.19
30.88
32.97
33.44
32.78
31.65
30.46
29.29
27.81
25.59
22.33
17.99
12.93
7.69
2.84
-1.29
-4.74
-7.84
-11.14
-15.18
-20.30
-26.49
-33.44
-40.46
-46.66
-51.09
-52.94
-51.74
-47.54
-40.90
-32.75
-24.11
-15.76
-8.19
-1.55
4.17
8.99
12.79
15.51
17.16
17.93
18.24
18.55
19.22
20.38
21.87
23.33
24.37
24.71
24.34
23.42
22.17
20.79
19.32
17.63
15.61
13.16
10.37
7.43
4.54
1.84
-0.72
-3.36
-6.33
-9.88
-14.15
-19.09
-24.51
-29.97
-34.85
-38.41
-39.92
-38.92
-35.31
-29.38
-21.80
-13.31
-4.70
3.39
10.54
16.44
20.98
24.17
26.15
27.07
27.16
26.64
25.75
24.82
24.16
24.04
24.49
25.33
26.12
26.47
26.08
24.95
23.29
21.30
19.06
16.53
13.57
10.15
6.33
2.33
-1.62
-5.34
-8.86
-12.31
-15.94
-19.94
-24.48
-29.66
-35.43
-41.63
-47.83
-53.41
-57.57
-59.55
-58.78
-55.06
-48.62
-40.06
-30.21
-19.88
-9.79
-0.47
7.73
14.63
20.16
24.40
27.50
29.69
31.21
32.26
33.02
33.62
34.14
34.65
35.17
35.67
36.01
36.03
35.57
34.49
32.78
30.46
27.68
24.56
21.23
17.77
14.20
10.52
6.68
2.67
-1.48
-5.69
-9.85
-13.86
-17.72
-21.58
-25.74
-30.55
-36.29
-42.96
-50.10
-56.85
-62.07
-64.68
-63.99
-59.88
-52.80
-43.61
-33.30
-22.73
-12.55
-3.20
5.12
12.29
18.30
23.23
27.14
30.13
32.29
33.78
34.77
35.43
35.98
36.53
37.19
37.96
38.77
39.45
39.78
39.49
38.37
36.36
33.61
30.44
27.19
24.14
21.35
18.67
15.88
12.74
9.12
5.04
0.65
-3.84
-8.24
-12.45
-16.49
-20.53
-24.86
-29.78
-35.49
-41.80
-48.11
-53.35
-56.29
-55.94
-51.90
-44.63
-35.23
-25.11
-15.39
-6.73
0.76
7.19
12.68
17.16
20.47
22.58
23.70
24.26
24.73
25.40
26.26
27.13
27.76
28.03
27.95
27.60
27.04
26.25
25.11
23.52
21.40
18.78
15.77
12.47
9.05
5.67
2.48
-0.38
-2.85
-5.02
-7.08
-9.30
-11.94
-15.17
-19.04
-23.48
-28.28
-33.04
-37.20
-39.98
-40.63
-38.62
-33.84
-26.72
-18.10
-8.99
-0.27
7.44
13.85
18.87
22.48
24.70
25.62
25.44
24.52
23.27
22.10
21.31
20.97
21.01
21.25
21.45
21.40
20.97
20.11
18.79
17.00
14.76
12.08
8.96
5.46
1.65
-2.33
-6.31
-10.13
-13.68
-16.99
-20.28
-23.87
-28.07
-32.99
-38.37
-43.59
-47.78
-50.04
-49.75
-46.72
-41.19
-33.79
-25.26
-16.38
-7.77
0.09
6.90
12.45
16.61
19.37
20.85
21.32
21.16
20.77
20.49
20.51
20.83
21.30
21.72
21.92
21.84
21.46
20.80
19.78
18.22
15.90
12.71
8.71
4.15
-0.58
-5.14
-9.31
-13.12
-16.74
-20.48
-24.64
-29.49
-35.15
-41.51
-48.14
-54.20
-58.64
-60.39
-58.71
-53.51
-45.33
-35.25
-24.47
-14.02
-4.48
3.98
11.44
17.94
23.37
27.47
30.03
31.03
30.83
30.05
29.32
29.07
29.38
30.02
30.59
30.79
30.46
29.70
28.66
27.47
26.15
24.58
22.56
19.98
16.81
13.15
9.22
5.24
1.35
-2.43
-6.17
-10.05
-14.25
-18.94
-24.26
-30.20
-36.56
-42.80
-48.04
-51.26
-51.55
-48.46
-42.19
-33.57
-23.73
-13.77
-4.46
3.88
11.17
17.44
22.64
26.62
29.32
30.84
31.46
31.64
31.82
32.29
33.08
34.04
34.87
35.33
35.27
34.66
33.53
31.96
30.01
27.75
25.21
22.41
19.35
15.95
12.14
7.93
3.43
-1.11
-5.41
-9.31
-12.85
-16.29
-20.02
-24.33
-29.36
-34.91
-40.48
-45.28
-48.38
-48.95
-46.48
-40.98
-33.05
-23.67
-13.96
-4.85
3.12
9.76
15.10
19.24
22.23
24.12
25.02
25.12
24.76
24.27
23.92
23.81
23.90
24.03
24.03
23.75
23.12
22.10
20.70
18.95
16.83
14.35
11.50
8.28
4.73
0.90
-3.09
-7.10
-11.10
-15.14
-19.47
-24.35
-29.93
-35.97
-41.86
-46.61
-49.24
-49.02
-45.79
-39.90
-32.07
-23.19
-14.01
-5.15
2.98
10.04
15.72
19.81
22.23
23.19
23.13
22.68
22.38
22.57
23.26
24.21
25.09
25.64
25.73
25.38
24.69
23.71
22.50
21.03
19.27
17.14
14.52
11.32
7.50
3.19
-1.37
-5.83
-9.92
-13.59
-17.02
-20.61
-24.82
-29.95
-35.98
-42.40
-48.26
-52.39
-53.74
-51.71
-46.38
-38.50
-29.13
-19.37
-10.04
-1.53
5.98
12.45
17.78
21.85
24.58
26.03
26.50
26.41
26.25
26.36
26.93
27.86
28.88
29.64
29.89
29.57
28.76
27.65
26.35
24.78
22.74
20.00
16.47
12.30
7.84
3.50
-0.36
-3.64
-6.50
-9.27
-12.37
-16.24
-21.12
-27.01
-33.57
-40.11
-45.72
-49.48
-50.61
-48.70
-43.87
-36.67
-27.97
-18.73
-9.82
-1.89
4.72
9.87
13.57
15.96
17.22
17.61
17.50
17.21
17.06
17.25
17.82
18.65
19.54
20.26
20.66
20.67
20.32
19.68
18.81
17.67
16.13
14.03
11.26
7.85
3.97
-0.09
-4.02
-7.68
-11.08
-14.43
-18.02
-22.15
-26.99
-32.45
-38.13
-43.40
-47.46
-49.53
-49.10
-45.97
-40.30
-32.64
-23.73
-14.37
-5.35
2.71
9.43
14.62
18.30
20.55
21.49
21.29
20.26
18.82
17.52
16.80
16.87
17.57
18.51
19.23
19.42
19.05
18.33
17.43
16.42
15.11
13.27
10.72
7.53
4.03
0.60
-2.45
-5.06
-7.46
-10.04
-13.21
-17.25
-22.25
-28.11
-34.63
-41.41
-47.85
-53.11
-56.26
-56.42
-53.19
-46.76
-37.96
-27.97
-17.94
-8.65
-0.41
6.78
12.98
18.09
21.91
24.31
25.41
25.67
25.73
26.16
27.23
28.78
30.39
31.51
31.77
31.08
29.68
27.95
26.24
24.62
22.92
20.82
18.03
14.52
10.51
6.38
2.43
-1.22
-4.68
-8.16
-11.88
-15.94
-20.37
-25.20
-30.39
-35.79
-40.94
-45.11
-47.41
-47.04
-43.66
-37.48
-29.26
-20.01
-10.69
-1.99
5.73
12.33
17.67
21.63
24.09
25.09
24.92
24.09
23.23
22.86
23.23
24.26
25.61
26.85
27.61
27.75
27.27
26.27
24.83
22.94
20.52
17.50
13.89
9.85
5.64
1.54
-2.25
-5.72
-9.06
-12.58
-16.59
-21.24
-26.36
-31.43
-35.69
-38.31
-38.66
-36.44
-31.79
-25.22
-17.41
-9.12
-1.04
6.25
12.29
16.81
19.69
21.05
21.19
20.52
19.47
18.46
17.73
17.46
17.67
18.29
19.14
19.97
20.47
20.34
19.34
17.40
14.58
11.07
7.09
2.83
-1.55
-6.00
-10.44
-14.90
-19.46
-24.27
-29.44
-34.88
-40.12
-44.30
-46.42
-45.59
-41.49
-34.44
-25.37
-15.40
-5.59
3.38
11.15
17.59
22.65
26.27
28.47
29.34
29.15
28.27
27.08
25.93
25.06
24.64
24.68
25.06
25.54
25.75
25.29
23.89
21.43
18.01
13.92
9.53
5.19
1.14
-2.60
-6.15
-9.84
-14.02
-18.98
-24.69
-30.60
-35.68
-38.61
-38.20
-33.86
-25.89
-15.38
-3.85
7.25
17.02
25.25
32.31
38.72
44.86
50.65
55.72
59.56
61.83
62.63
62.48
62.18
62.56
64.23
67.39
71.72
76.25
79.36
78.95
72.85
59.48
38.67
11.94
-17.65
-46.30
-70.62
-88.63
-100.05
-106.10
-108.63
-109.32
-109.20
-108.49
-106.88
-103.91
-99.19
-92.58
-84.13
-74.07
-62.73
-50.56
-38.09
-25.86
-14.40
-4.15
4.56
11.56
16.89
20.79
23.67
26.02
28.26
30.56
32.85
34.89
36.39
37.19
37.32
36.93
36.25
35.47
34.63
33.62
32.28
30.38
27.75
24.38
20.41
16.16
11.96
8.06
4.54
1.23
-2.13
-5.87
-10.21
-15.25
-20.91
-26.94
-32.88
-38.10
-41.86
-43.46
-42.40
-38.57
-32.30
-24.24
-15.24
-6.09
2.63
10.56
17.56
23.56
28.44
32.07
34.34
35.23
35.01
34.11
33.04
32.23
31.93
32.14
32.71
33.40
33.94
34.12
33.74
32.69
30.92
28.58
25.91
23.19
20.57
18.00
15.30
12.24
8.77
5.08
1.53
-1.53
-3.97
-5.97
-7.92
-10.27
-13.34
-17.21
-21.77
-26.86
-32.20
-37.37
-41.74
-44.50
-44.84
-42.21
-36.64
-28.70
-19.43
-9.89
-0.91
7.06
13.94
19.76
24.48
27.97
30.12
30.97
30.79
30.08
29.29
28.76
28.56
28.59
28.66
28.67
28.57
28.31
27.80
26.92
25.54
23.64
21.29
18.61
15.74
12.74
9.64
6.46
3.23
0.04
-3.03
-5.98
-8.81
-11.64
-14.54
-17.60
-20.87
-24.47
-28.47
-32.97
-37.89
-42.93
-47.52
-50.90
-52.26
-51.00
-46.98
-40.58
-32.62
-24.11
-15.98
-8.81
-2.84
1.98
5.81
8.69
10.60
11.45
11.34
10.54
9.56
8.91
8.93
9.67
10.88
12.19
13.21
13.68
13.53
12.78
11.55
9.95
8.07
5.91
3.44
0.61
-2.54
-5.88
-9.19
-12.28
-15.07
-17.64
-20.16
-22.77
-25.60
-28.62
-31.80
-35.07
-38.36
-41.40
-43.77
-44.86
-44.02
-40.86
-35.41
-28.21
-20.11
-12.00
-4.59
1.75
6.91
10.93
13.85
15.69
16.45
16.29
15.47
14.39
13.50
13.07
13.21
13.75
14.34
14.63
14.38
13.58
12.41
11.13
9.90
8.71
7.36
5.55
3.09
0.01
-3.52
-7.19
-10.77
-14.12
-17.24
-20.19
-23.09
-26.16
-29.65
-33.86
-38.96
-44.85
-51.02
-56.59
-60.47
-61.77
-60.00
-55.28
-48.26
-39.85
-31.06
-22.65
-15.15
-8.75
-3.43
0.93
4.46
7.23
9.26
10.63
11.48
12.07
12.68
13.51
14.60
15.76
16.76
17.46
17.89
18.20
18.50
18.69
18.50
17.56
15.65
12.84
9.44
5.91
2.60
-0.35
-3.00
-5.58
-8.33
-11.44
-15.02
-19.13
-23.73
-28.68
-33.65
-38.10
-41.34
-42.62
-41.40
-37.56
-31.46
-23.88
-15.75
-7.85
-0.68
5.59
10.94
15.31
18.56
20.54
21.25
20.93
20.03
18.98
18.09
17.41
16.82
16.18
15.45
14.71
14.09
13.67
13.34
12.84
11.84
10.09
7.54
4.36
0.86
-2.67
-6.06
-9.30
-12.51
-15.88
-19.55
-23.65
-28.18
-32.99
-37.66
-41.49
-43.63
-43.27
-39.95
-33.71
-25.08
-14.88
-3.95
6.99
17.41
26.89
34.97
41.29
45.61
48.04
49.06
49.44
49.92
51.07
53.02
55.54
58.18
60.56
62.44
63.89
65.17
66.67
68.74
71.42
74.23
75.96
74.93
69.42
58.38
42.05
21.97
0.42
-20.52
-39.76
-57.34
-73.98
-90.13
-105.47
-118.97
-129.35
-135.70
-137.76
-135.71
-129.81
-120.25
-107.28
-91.57
-74.37
-57.37
-42.20
-29.89
-20.71
-14.19
-9.58
-6.06
-3.02
0.01
3.32
7.09
11.30
15.75
20.05
23.81
26.76
28.82
30.17
31.06
31.71
32.08
31.88
30.76
28.45
25.03
20.85
16.43
12.21
8.30
4.57
0.66
-3.81
-9.15
-15.48
-22.68
-30.35
-37.71
-43.68
-47.12
-47.14
-43.47
-36.48
-27.12
-16.52
-5.68
4.79
14.64
23.75
32.01
39.24
45.14
49.50
52.31
53.80
54.35
54.46
54.55
54.94
55.70
56.71
57.68
58.31
58.39
57.89
57.02
56.05
55.21
54.53
53.78
52.56
50.49
47.37
43.28
38.66
34.09
30.14
27.14
24.95
23.03
20.56
16.72
11.18
4.30
-2.72
-8.11
-10.04
-7.24
0.49
12.16
25.63
38.02
46.26
47.80
41.31
27.31
8.09
-12.84
-31.81
-46.07
-54.31
-56.60
-53.84
-47.03
-37.08
-24.93
-11.94
0.04
9.17
14.20
15.12
13.09
9.88
7.04
5.31
4.51
3.91
2.74
0.70
-2.04
-4.93
-7.41
-9.20
-10.45
-11.62
-13.31
-16.01
-19.94
-24.94
-30.54
-36.00
-40.42
-42.93
-42.84
-39.76
-33.84
-25.65
-16.12
-6.19
3.25
11.66
18.73
24.29
28.25
30.60
31.42
30.98
29.76
28.30
27.08
26.38
26.22
26.46
26.83
27.12
27.12
26.72
25.84
24.39
22.35
19.72
16.60
13.14
9.55
5.97
2.49
-0.90
-4.35
-8.03
-12.14
-16.78
-21.91
-27.28
-32.41
-36.62
-39.11
-39.22
-36.54
-31.18
-23.74
-15.16
-6.51
1.33
7.81
12.77
16.24
18.38
19.26
18.99
17.70
15.72
13.51
11.51
10.03
9.13
8.63
8.25
7.73
6.91
5.70
4.04
1.89
-0.74
-3.88
-7.42
-11.28
-15.36
-19.64
-24.12
-28.80
-33.75
-39.06
-44.87
-51.28
-58.24
-65.30
-71.62
-76.12
-77.87
-76.51
-72.41
-66.62
-60.41
-54.87
-50.56
-47.57
-45.77
-45.13
-45.97
-48.79
-53.92
-61.11
-69.42
-77.41
-83.58
-87.08
-88.00
-87.41
-86.95
-88.22
-92.23
-98.97
-107.15
-114.20
-116.67
-110.75
-93.19
-62.19
-18.37
34.83
91.47
144.25
186.15
212.19
220.55
212.84
193.34
167.66
141.25
118.22
100.92
90.07
85.25
85.46
89.28
95.05
100.90
105.15
106.64
105.14
101.32
96.50
91.98
88.34
85.25
81.55
75.99
67.82
57.29
45.59
34.40
25.27
19.03
15.66
14.35
13.93
13.22
11.36
7.94
2.89
-3.70
-11.66
-20.84
-31.09
-42.13
-53.48
-64.41
-73.91
-80.87
-84.23
-83.33
-78.12
-69.24
-57.91
-45.62
-33.77
-23.24
-14.37
-7.00
-0.79
4.48
8.82
12.01
13.84
14.31
13.70
12.44
11.03
9.79
8.85
8.18
7.76
7.57
7.61
7.81
7.99
7.95
7.56
6.86
5.92
4.81
3.38
1.26
-1.98
-6.57
-12.32
-18.56
-24.22
-28.19
-29.57
-27.87
-23.22
-16.25
-7.89
0.88
9.31
17.08
24.27
31.14
37.84
44.24
49.94
54.49
57.58
59.29
59.92
59.86
59.38
58.57
57.38
55.81
53.86
51.62
49.10
46.23
42.84
38.77
33.89
28.23
21.97
15.42
8.95
2.87
-2.74
-8.11
-13.68
-19.91
-26.95
-34.47
-41.61
-47.28
-50.55
-50.93
-48.52
-43.83
-37.58
-30.45
-22.97
-15.67
-9.01
-3.47
0.56
3.01
4.08
4.20
3.91
3.61
3.46
3.46
3.49
3.46
3.43
3.52
3.90
4.62
5.55
6.33
6.52
5.76
3.89
1.10
-2.30
-5.92
-9.56
-13.23
-17.11
-21.39
-26.16
-31.22
-36.16
-40.31
-42.92
-43.33
-41.17
-36.48
-29.75
-21.79
-13.46
-5.46
1.80
8.20
13.74
18.42
22.18
24.93
26.66
27.46
27.48
26.92
25.91
24.55
22.96
21.23
19.48
17.82
16.31
14.92
13.52
11.94
9.98
7.56
4.71
1.57
-1.67
-4.94
-8.30
-11.97
-16.22
-21.28
-27.13
-33.54
-39.98
-45.75
-50.10
-52.39
-52.21
-49.55
-44.74
-38.30
-30.96
-23.33
-15.96
-9.30
-3.74
0.44
3.09
4.27
4.23
3.35
2.05
0.72
-0.33
-0.88
-0.80
-0.05
1.25
2.81
4.32
5.48
6.17
6.35
6.11
5.53
4.71
3.70
2.56
1.32
-0.01
-1.49
-3.22
-5.31
-7.83
-10.82
-14.17
-17.64
-20.82
-23.16
-24.08
-23.12
-20.17
-15.51
-9.78
-3.81
1.59
5.84
8.65
10.00
10.01
8.92
7.01
4.58
1.95
-0.54
-2.62
-4.16
-5.12
-5.61
-5.84
-6.04
-6.36
-6.92
-7.77
-8.90
-10.32
-11.97
-13.83
-15.81
-17.88
-19.98
-22.16
-24.49
-27.09
-30.08
-33.46
-37.03
-40.34
-42.77
-43.59
-42.27
-38.60
-32.89
-25.83
-18.34
-11.25
-5.10
-0.09
3.89
7.01
9.41
11.15
12.21
12.65
12.66
12.51
12.53
12.92
13.71
14.84
16.11
17.36
18.45
19.20
19.50
19.18
18.18
16.50
14.27
11.71
8.97
6.11
3.01
-0.56
-4.81
-9.81
-15.33
-20.79
-25.46
-28.52
-29.41
-27.90
-24.27
-19.08
-13.12
-7.11
-1.57
3.16
6.88
9.47
10.78
10.74
9.42
7.09
4.19
1.26
-1.25
-3.06
-4.13
-4.59
-4.66
-4.58
-4.57
-4.84
-5.55
-6.79
-8.50
-10.53
-12.65
-14.70
-16.72
-18.91
-21.59
-25.06
-29.36
-34.15
-38.80
-42.42
-44.18
-43.50
-40.26
-34.78
-27.71
-19.87
-12.04
-4.86
1.21
5.91
9.07
10.64
10.78
9.85
8.39
6.96
6.02
5.80
6.20
7.00
7.88
8.63
9.06
9.08
8.62
7.61
6.08
4.10
1.85
-0.60
-3.28
-6.39
-10.19
-14.87
-20.40
-26.47
-32.47
-37.66
-41.22
-42.49
-41.10
-37.08
-30.88
-23.31
-15.31
-7.76
-1.22
4.04
8.02
10.83
12.50
13.01
12.41
10.89
8.88
6.99
5.73
5.37
5.84
6.73
7.51
7.74
7.25
6.12
4.62
3.02
1.49
0.03
-1.53
-3.44
-5.95
-9.28
-13.47
-18.38
-23.63
-28.59
-32.46
-34.49
-34.10
-31.09
-25.73
-18.62
-10.55
-2.27
5.66
12.86
19.05
23.96
27.34
29.01
29.05
27.82
25.90
23.98
22.58
21.99
22.18
22.94
23.97
24.95
25.66
25.93
25.67
24.83
23.48
21.72
19.71
17.58
15.36
12.91
10.00
6.44
2.26
-2.08
-5.73
-7.62
-6.82
-2.84
4.22
13.62
24.30
35.07
44.95
53.28
59.85
64.89
68.99
72.75
76.37
79.26
80.04
76.89
68.21
53.31
32.69
7.90
-18.91
-45.47
-69.78
-90.12
-105.03
-113.33
-114.37
-108.31
-96.24
-80.14
-62.50
-45.89
-32.50
-23.84
-20.53
-22.20
-27.56
-34.72
-41.66
-46.68
-48.77
-47.64
-43.56
-37.13
-29.05
-20.06
-10.87
-2.26
5.01
10.35
13.47
14.51
13.99
12.66
11.31
10.54
10.63
11.55
13.00
14.62
16.04
17.07
17.67
17.82
17.56
16.85
15.58
13.68
11.09
7.84
4.00
-0.30
-4.96
-9.88
-14.81
-19.34
-22.77
-24.33
-23.31
-19.33
-12.59
-3.77
6.10
15.86
24.58
31.58
36.50
39.16
39.59
37.97
34.71
30.51
26.19
22.59
20.25
19.27
19.30
19.69
19.72
18.93
17.18
14.66
11.75
8.79
5.90
2.92
-0.48
-4.71
-10.06
-16.55
-23.89
-31.52
-38.63
-44.28
-47.53
-47.58
-44.10
-37.25
-27.79
-16.88
-5.70
4.83
14.19
22.17
28.77
33.89
37.42
39.24
39.43
38.37
36.67
34.97
33.77
33.19
33.01
32.75
31.91
30.18
27.52
24.22
20.63
17.03
13.47
9.77
5.67
0.96
-4.48
-10.61
-17.35
-24.47
-31.60
-38.08
-43.07
-45.60
-44.98
-40.96
-33.88
-24.55
-14.03
-3.35
6.68
15.44
22.63
28.09
31.80
33.92
34.69
34.43
33.48
32.18
30.82
29.72
29.11
29.12
29.67
30.42
30.88
30.48
28.79
25.75
21.60
16.77
11.73
6.81
2.05
-2.70
-7.73
-13.32
-19.68
-26.84
-34.59
-42.42
-49.43
-54.51
-56.57
-54.85
-49.18
-40.08
-28.62
-16.16
-3.98
7.00
16.29
23.79
29.60
33.89
36.74
38.26
38.63
38.16
37.27
36.36
35.69
35.30
35.05
34.73
34.13
33.12
31.69
29.80
27.38
24.34
20.59
16.13
11.03
5.56
0.04
-5.24
-10.13
-14.74
-19.49
-24.88
-31.34
-38.87
-46.90
-54.32
-59.79
-62.05
-60.37
-54.73
-45.72
-34.46
-22.12
-9.83
1.62
11.69
20.09
26.70
31.46
34.43
35.75
35.71
34.76
33.46
32.39
31.99
32.44
33.54
34.92
36.09
36.66
36.45
35.41
33.54
30.82
27.24
22.80
17.65
12.08
6.46
1.11
-3.81
-8.33
-12.67
-17.22
-22.43
-28.63
-35.86
-43.68
-51.12
-56.87
-59.61
-58.43
-53.08
-44.05
-32.39
-19.41
-6.37
5.69
16.08
24.47
30.80
35.23
37.98
39.40
39.84
39.72
39.41
39.27
39.43
39.82
40.18
40.19
39.65
38.57
37.12
35.46
33.61
31.39
28.50
24.70
19.95
14.49
8.74
3.20
-1.80
-6.16
-10.09
-13.97
-18.27
-23.39
-29.52
-36.52
-43.89
-50.71
-55.87
-58.26
-57.15
-52.34
-44.27
-33.84
-22.11
-10.06
1.57
12.23
21.48
28.95
34.34
37.58
38.89
38.80
38.03
37.28
37.01
37.38
38.18
39.01
39.44
39.14
38.05
36.34
34.25
31.92
29.32
26.18
22.19
17.20
11.37
5.20
-0.65
-5.62
-9.52
-12.59
-15.38
-18.55
-22.63
-27.84
-33.92
-40.24
-45.74
-49.26
-49.74
-46.55
-39.75
-29.99
-18.41
-6.23
5.53
16.27
25.71
33.82
40.55
45.75
49.18
50.69
50.38
48.73
46.60
45.05
45.03
47.15
51.39
56.99
62.43
65.70
64.68
57.72
44.05
24.03
-0.86
-28.48
-56.41
-82.42
-104.61
-121.50
-132.03
-135.69
-132.80
-124.64
-113.38
-101.63
-91.74
-85.10
-81.77
-80.56
-79.52
-76.68
-70.68
-61.20
-48.76
-34.57
-19.97
-6.11
6.24
16.65
24.95
31.15
35.37
37.84
38.93
39.12
38.88
38.62
38.60
38.86
39.31
39.71
39.84
39.52
38.72
37.51
35.98
34.15
31.95
29.22
25.84
21.87
17.45
12.82
8.06
3.02
-2.64
-9.32
-17.25
-26.27
-35.69
-44.42
-51.18
-54.82
-54.61
-50.49
-43.03
-33.30
-22.59
-12.17
-3.02
4.24
9.41
12.59
14.12
14.38
13.79
12.69
11.36
9.98
8.76
7.86
7.43
7.51
8.05
8.82
9.43
9.51
8.70
6.84
3.96
0.29
-3.83
-8.07
-12.18
-16.14
-20.07
-24.25
-28.99
-34.57
-41.05
-48.20
-55.43
-61.77
-66.08
-67.26
-64.58
-57.93
-47.91
-35.69
-22.66
-10.13
1.00
10.33
17.80
23.58
27.87
30.86
32.75
33.78
34.25
34.45
34.54
34.62
34.65
34.59
34.36
33.95
33.31
32.39
31.08
29.27
26.78
23.56
19.66
15.25
10.56
5.80
1.00
-3.99
-9.50
-15.85
-23.23
-31.35
-39.51
-46.51
-51.06
-52.00
-48.71
-41.26
-30.43
-17.43
-3.58
10.00
22.61
33.92
43.80
52.13
58.74
63.42
66.13
67.12
66.93
66.32
65.96
66.28
67.26
68.57
69.75
70.52
70.87
71.07
71.49
72.34
73.45
74.23
73.77
71.14
65.70
57.42
46.93
35.37
23.95
13.41
3.73
-5.90
-16.74
-29.89
-45.83
-64.20
-83.97
-103.78
-122.30
-138.30
-150.70
-158.44
-160.58
-156.43
-145.97
-129.94
-109.96
-88.13
-66.65
-47.39
-31.51
-19.46
-10.92
-5.08
-0.92
2.50
5.82
9.25
12.68
15.81
18.43
20.52
22.20
23.58
24.64
25.08
24.51
22.64
19.42
15.10
10.14
5.03
0.15
-4.32
-8.38
-12.18
-16.01
-20.23
-25.28
-31.50
-38.92
-47.04
-54.79
-60.69
-63.25
-61.49
-55.26
-45.25
-32.72
-19.15
-5.78
6.54
17.40
26.66
34.34
40.51
45.25
48.63
50.75
51.74
51.83
51.32
50.57
49.90
49.43
49.14
48.89
48.51
47.93
47.10
46.01
44.54
42.49
39.70
36.12
31.87
27.16
22.24
17.27
12.39
7.63
3.07
-1.30
-5.55
-9.89
-14.62
-20.10
-26.56
-34.03
-42.19
-50.36
-57.54
-62.58
-64.41
-62.35
-56.34
-46.95
-35.20
-22.33
-9.51
2.41
12.88
21.61
28.51
33.59
37.02
39.03
39.99
40.32
40.39
40.48
40.77
41.22
41.75
42.13
42.14
41.59
40.47
38.84
36.83
34.51
31.80
28.55
24.63
20.03
14.94
9.71
4.68
0.05
-4.16
-8.14
-12.17
-16.61
-21.77
-27.89
-34.92
-42.53
-49.93
-56.05
-59.70
-59.90
-56.20
-48.80
-38.52
-26.59
-14.24
-2.51
7.97
16.94
24.39
30.33
34.81
37.88
39.67
40.45
40.64
40.69
41.03
41.89
43.30
45.10
47.00
48.73
50.08
50.95
51.33
51.23
50.71
49.79
48.54
47.03
45.38
43.70
42.04
40.41
38.82
37.31
36.02
35.10
34.50
33.92
32.80
30.61
27.31
23.60
20.91
20.86
24.59
32.26
42.92
54.68
65.22
72.04
72.75
65.28
48.26
21.60
-12.99
-51.95
-90.55
-124.09
-149.12
-164.11
-169.29
-165.90
-155.41
-139.04
-117.99
-93.81
-68.75
-45.53
-26.72
-13.95
-7.42
-5.94
-7.60
-10.54
-13.64
-16.57
-19.56
-22.88
-26.42
-29.68
-32.05
-33.18
-33.34
-33.31
-34.16
-36.73
-41.31
-47.46
-54.10
-59.87
-63.46
-63.96
-61.08
-55.08
-46.66
-36.72
-26.10
-15.43
-5.17
4.35
12.77
19.71
24.84
28.01
29.42
29.56
29.17
28.91
29.20
30.10
31.39
32.67
33.55
33.82
33.45
32.64
31.57
30.41
29.15
27.58
25.42
22.42
18.51
13.85
8.84
3.95
-0.47
-4.29
-7.67
-10.95
-14.59
-18.96
-24.25
-30.39
-37.01
-43.47
-48.88
-52.34
-53.12
-50.78
-45.38
-37.43
-27.70
-17.13
-6.56
3.39
12.30
19.90
25.97
30.32
32.85
33.66
33.12
31.85
30.56
29.85
29.97
30.76
31.77
32.46
32.41
31.46
29.72
27.40
24.77
21.91
18.81
15.32
11.35
6.90
2.17
-2.52
-6.81
-10.49
-13.61
-16.53
-19.77
-23.87
-29.14
-35.61
-42.88
-50.28
-56.86
-61.63
-63.65
-62.26
-57.26
-49.04
-38.50
-26.86
-15.34
-4.82
4.21
11.62
17.45
21.76
24.55
25.90
26.03
25.42
24.66
24.30
24.66
25.70
27.11
28.48
29.45
29.82
29.53
28.62
27.14
25.12
22.54
19.40
15.70
11.53
7.03
2.44
-2.00
-6.10
-9.79
-13.19
-16.54
-20.28
-24.80
-30.37
-36.95
-44.08
-50.86
-56.13
-58.77
-57.98
-53.61
-46.09
-36.36
-25.51
-14.56
-4.27
4.90
12.71
19.04
23.83
27.08
28.85
29.37
29.04
28.41
28.07
28.41
29.56
31.30
33.17
34.67
35.41
35.27
34.31
32.76
30.79
28.47
25.75
22.53
18.75
14.52
10.03
5.55
1.26
-2.84
-6.92
-11.22
-15.98
-21.43
-27.62
-34.51
-41.75
-48.72
-54.48
-57.99
-58.34
-55.12
-48.55
-39.42
-28.82
-17.85
-7.34
2.12
10.26
16.88
21.92
25.39
27.43
28.33
28.51
28.46
28.62
29.24
30.34
31.65
32.75
33.24
32.98
32.04
30.74
29.38
28.06
26.59
24.60
21.74
17.89
13.20
8.09
3.02
-1.68
-5.89
-9.67
-13.22
-16.80
-20.76
-25.41
-31.00
-37.52
-44.56
-51.26
-56.37
-58.65
-57.21
-51.91
-43.35
-32.72
-21.34
-10.31
-0.35
8.26
15.44
21.16
25.35
27.96
29.14
29.27
28.94
28.75
29.12
30.15
31.60
33.05
34.07
34.39
33.99
33.04
31.75
30.24
28.45
26.18
23.22
19.51
15.14
10.38
5.52
0.80
-3.65
-7.83
-11.85
-15.83
-19.98
-24.59
-29.95
-36.20
-43.15
-50.18
-56.27
-60.24
-61.11
-58.33
-52.04
-42.95
-32.17
-20.89
-10.10
-0.43
7.85
14.66
20.00
23.78
25.97
26.70
26.38
25.64
25.17
25.47
26.62
28.33
30.13
31.55
32.32
32.38
31.83
30.83
29.50
27.86
25.82
23.22
19.93
15.96
11.44
6.65
1.88
-2.63
-6.86
-10.88
-14.95
-19.34
-24.31
-29.98
-36.29
-42.90
-49.15
-54.12
-56.81
-56.44
-52.69
-45.80
-36.52
-25.93
-15.14
-5.05
3.73
10.95
16.61
20.83
23.79
25.66
26.62
26.91
26.85
26.84
27.16
27.93
29.01
30.01
30.53
30.26
29.16
27.47
25.49
23.51
21.54
19.39
16.74
13.41
9.45
5.14
0.88
-3.03
-6.55
-9.87
-13.35
-17.32
-21.98
-27.34
-33.29
-39.54
-45.65
-50.95
-54.68
-56.08
-54.62
-50.14
-42.94
-33.71
-23.37
-12.89
-3.08
5.40
12.18
17.10
20.16
21.56
21.68
21.12
20.66
21.11
23.06
26.65
31.47
36.69
41.34
44.65
46.29
46.38
45.27
43.29
40.63
37.25
33.07
28.17
22.84
17.53
12.64
8.40
4.73
1.34
-2.19
-6.17
-10.79
-16.06
-21.92
-28.19
-34.64
-40.82
-46.13
-49.86
-51.30
-50.04
-46.00
-39.57
-31.47
-22.55
-13.64
-5.40
1.76
7.56
11.91
14.82
16.42
17.02
17.03
16.94
17.12
17.77
18.82
20.01
21.02
21.60
21.63
21.18
20.37
19.33
18.06
16.47
14.44
11.92
8.96
5.76
2.51
-0.64
-3.66
-6.61
-9.65
-12.93
-16.62
-20.87
-25.77
-31.27
-37.06
-42.50
-46.71
-48.77
-48.06
-44.43
-38.31
-30.46
-21.73
-12.84
-4.23
3.75
10.80
16.50
20.47
22.52
22.79
21.80
20.29
19.02
18.44
18.66
19.35
20.04
20.28
19.86
18.88
17.58
16.23
14.91
13.48
11.72
9.44
6.65
3.55
0.42
-2.53
-5.20
-7.65
-10.01
-12.49
-15.31
-18.75
-23.07
-28.36
-34.44
-40.67
-46.09
-49.59
-50.29
-47.78
-42.27
-34.46
-25.34
-15.90
-6.92
1.07
7.82
13.23
17.31
20.11
21.73
22.38
22.36
22.07
21.87
22.02
22.54
23.29
23.99
24.38
24.31
23.78
22.85
21.56
19.86
17.69
15.00
11.80
8.20
4.39
0.56
-3.09
-6.53
-9.83
-13.25
-17.09
-21.62
-27.02
-33.18
-39.73
-45.94
-50.89
-53.66
-53.53
-50.22
-44.01
-35.62
-26.05
-16.26
-7.00
1.26
8.25
13.83
17.86
20.34
21.43
21.50
21.09
20.73
20.82
21.50
22.66
24.07
25.42
26.48
27.09
27.19
26.71
25.62
23.86
21.43
18.40
14.92
11.22
7.47
3.76
0.06
-3.76
-7.90
-12.54
-17.76
-23.56
-29.73
-35.79
-40.99
-44.44
-45.32
-43.16
-38.04
-30.56
-21.73
-12.66
-4.31
2.69
8.08
11.89
14.35
15.70
16.18
15.94
15.16
14.06
12.99
12.28
12.20
12.78
13.81
14.92
15.69
15.81
15.14
13.71
11.60
8.96
5.92
2.59
-0.90
-4.50
-8.17
-11.99
-16.05
-20.53
-25.49
-30.82
-36.11
-40.68
-43.63
-44.10
-41.57
-36.10
-28.32
-19.24
-9.95
-1.35
6.09
12.18
16.88
20.20
22.19
22.92
22.61
21.66
20.54
19.71
19.50
20.00
21.06
22.27
23.13
23.16
22.08
19.88
16.85
13.42
9.95
6.57
3.22
-0.38
-4.51
-9.38
-15.07
-21.53
-28.58
-35.86
-42.73
-48.32
-51.67
-51.99
-48.91
-42.72
-34.21
-24.49
-14.64
-5.45
2.71
9.71
15.59
20.40
24.12
26.70
28.19
28.77
28.73
28.43
28.19
28.17
28.35
28.57
28.57
28.12
27.06
25.34
23.01
20.13
16.81
13.13
9.23
5.19
1.04
-3.27
-7.90
-13.07
-18.94
-25.49
-32.48
-39.39
-45.49
-49.93
-52.00
-51.19
-47.44
-41.05
-32.65
-23.06
-13.02
-3.15
6.12
14.45
21.58
27.30
31.54
34.43
36.27
37.53
38.59
39.70
40.86
41.88
42.55
42.71
42.38
41.67
40.75
39.65
38.24
36.30
33.57
29.97
25.58
20.70
15.68
10.83
6.30
1.98
-2.32
-6.89
-11.93
-17.50
-23.43
-29.29
-34.40
-37.93
-39.07
-37.22
-32.31
-24.82
-15.71
-6.21
2.57
9.88
15.54
19.79
23.04
25.62
27.61
28.90
29.35
29.05
28.30
27.52
27.07
27.06
27.27
27.32
26.92
25.91
24.37
22.48
20.38
18.16
15.80
13.21
10.29
6.97
3.23
-0.87
-5.17
-9.48
-13.67
-17.69
-21.67
-25.85
-30.42
-35.55
-41.22
-47.25
-53.22
-58.50
-62.34
-63.99
-62.84
-58.68
-51.76
-42.75
-32.57
-22.14
-12.25
-3.39
4.15
10.32
15.16
18.81
21.45
23.28
24.52
25.36
25.98
26.52
27.08
27.73
28.41
29.03
29.43
29.50
29.15
28.37
27.24
25.79
24.05
21.97
19.49
16.52
13.09
9.31
5.36
1.47
-2.25
-5.84
-9.44
-13.30
-17.65
-22.59
-28.14
-34.12
-40.25
-46.05
-50.84
-53.83
-54.30
-51.80
-46.32
-38.42
-29.05
-19.27
-9.95
-1.66
5.48
11.44
16.28
19.95
22.37
23.56
23.81
23.54
23.26
23.33
23.82
24.61
25.44
26.16
26.67
26.98
27.02
26.64
25.66
23.98
21.62
18.74
15.53
12.09
8.49
4.69
0.74
-3.23
-7.05
-10.59
-13.90
-17.20
-20.77
-24.88
-29.58
-34.61
-39.53
-43.69
-46.45
-47.26
-45.75
-41.78
-35.52
-27.41
-18.16
-8.58
0.51
8.46
14.90
19.72
23.06
25.16
26.30
26.75
26.80
26.74
26.84
27.26
27.97
28.77
29.35
29.48
29.08
28.31
27.41
26.61
26.00
25.49
24.88
23.94
22.51
20.53
18.09
15.39
12.77
10.58
9.10
8.35
8.07
7.67
6.48
3.95
-0.04
-5.00
-9.84
-13.16
-13.64
-10.49
-3.77
5.58
15.85
25.07
31.41
33.67
31.46
25.13
15.61
3.99
-8.79
-22.17
-35.93
-49.97
-63.93
-76.83
-87.11
-92.96
-92.99
-86.85
-75.43
-60.76
-45.28
-31.25
-20.12
-12.46
-8.19
-6.88
-8.02
-11.08
-15.45
-20.32
-24.84
-28.27
-30.32
-31.20
-31.62
-32.53
-34.71
-38.55
-43.81
-49.73
-55.18
-58.99
-60.24
-58.46
-53.79
-46.80
-38.33
-29.19
-19.98
-11.00
-2.37
5.76
13.10
19.25
23.80
26.59
27.77
27.82
27.38
27.03
27.16
27.86
28.97
30.19
31.15
31.58
31.38
30.60
29.43
28.01
26.34
24.25
21.50
17.95
13.70
9.11
4.64
0.60
-2.97
-6.33
-9.87
-13.95
-18.74
-24.27
-30.36
-36.69
-42.73
-47.67
-50.55
-50.53
-47.20
-40.77
-32.11
-22.40
-12.79
-4.15
3.10
8.86
13.24
16.35
18.38
19.59
20.31
20.91
21.70
22.78
24.03
25.23
26.15
26.65
26.75
26.49
25.89
24.89
23.37
21.23
18.47
15.15
11.45
7.54
3.60
-0.26
-3.97
-7.53
-11.03
-14.60
-18.41
-22.57
-27.09
-31.72
-35.97
-39.12
-40.26
-38.57
-33.51
-25.12
-14.00
-1.26
11.84
24.18
34.99
43.95
51.11
56.69
61.04
64.51
67.43
70.05
72.49
74.74
76.76
78.52
80.28
82.50
85.89
90.98
97.83
105.54
112.07
114.49
109.72
95.59
71.84
40.40
4.94
-30.32
-62.01
-88.32
-108.96
-124.48
-135.26
-141.11
-141.36
-135.54
-123.90
-107.68
-88.79
-69.26
-50.70
-34.10
-19.91
-8.26
0.89
7.50
11.60
13.27
12.78
10.64
7.52
4.18
1.27
-0.84
-2.06
-2.67
-3.03
-3.58
-4.54
-5.95
-7.73
-9.71
-11.80
-13.96
-16.26
-18.76
-21.52
-24.49
-27.67
-31.08
-34.79
-38.89
-43.33
-47.87
-51.94
-54.80
-55.63
-53.81
-49.07
-41.63
-32.11
-21.48
-10.69
-0.60
8.23
15.53
21.25
25.45
28.26
29.85
30.43
30.33
29.95
29.64
29.64
29.99
30.57
31.09
31.29
30.86
29.63
27.52
24.53
20.80
16.44
11.61
6.39
0.81
-5.19
-11.68
-18.68
-26.10
-33.65
-40.83
-46.95
-51.20
-52.83
-51.34
-46.64
-39.15
-29.70
-19.29
-8.89
0.84
9.51
17.01
23.29
28.24
31.75
33.69
34.13
33.36
31.92
30.38
29.22
28.65
28.56
28.59
28.34
27.45
25.80
23.44
20.53
17.24
13.69
9.97
6.15
2.24
-1.77
-6.00
-10.68
-16.05
-22.11
-28.52
-34.49
-38.94
-40.77
-39.31
-34.45
-26.74
-17.14
-6.73
3.54
13.05
21.43
28.51
34.20
38.45
41.31
42.92
43.57
43.58
43.29
42.90
42.51
42.05
41.46
40.65
39.64
38.50
37.24
35.82
34.06
31.75
28.75
25.03
20.77
16.23
11.64
7.09
2.51
-2.38
-7.93
-14.35
-21.62
-29.33
-36.67
-42.54
-45.87
-45.87
-42.38
-35.83
-27.17
-17.51
-7.82
1.29
9.50
16.67
22.67
27.31
30.43
32.06
32.51
32.31
32.00
31.94
32.07
32.13
31.83
31.26
31.02
32.08
35.35
41.14
48.88
57.14
64.11
68.29
69.07
66.98
63.48
60.37
59.23
61.03
65.93
73.24
81.42
88.01
89.94
84.09
68.34
42.64
9.52
-26.25
-58.90
-83.41
-96.94
-99.28
-92.40
-79.20
-62.48
-44.32
-26.30
-9.89
3.21
11.30
13.29
9.35
1.03
-9.09
-18.39
-25.04
-28.53
-29.50
-29.17
-28.64
-28.45
-28.53
-28.49
-28.03
-27.20
-26.43
-26.33
-27.42
-29.84
-33.33
-37.37
-41.41
-45.09
-48.25
-50.85
-52.77
-53.63
-52.83
-49.81
-44.30
-36.55
-27.28
-17.49
-8.16
0.01
6.70
11.85
15.59
18.07
19.40
19.78
19.49
18.90
18.41
18.29
18.59
19.17
19.72
19.98
19.73
18.89
17.41
15.34
12.74
9.66
6.20
2.46
-1.45
-5.48
-9.67
-14.16
-19.12
-24.71
-30.86
-37.25
-43.24
-47.99
-50.64
-50.57
-47.52
-41.70
-33.69
-24.30
-14.40
-4.78
3.96
11.45
17.54
22.20
25.51
27.60
28.69
29.07
29.04
28.86
28.70
28.58
28.45
28.23
27.81
27.11
25.98
24.29
21.87
18.70
14.88
10.67
6.37
2.19
-1.85
-5.94
-10.31
-15.22
-20.73
-26.79
-33.15
-39.46
-45.30
-50.16
-53.55
-55.07
-54.52
-52.00
-47.81
-42.20
-35.13
-26.29
-15.23
-1.90
13.02
28.19
42.04
53.50
62.57
70.31
78.27
87.52
97.96
108.25
116.32
120.27
119.03
112.52
101.40
86.66
69.43
50.90
32.32
14.94
-0.30
-12.90
-22.88
-30.46
-35.83
-39.05
-40.23
-39.94
-39.26
-39.68
-42.51
-48.40
-57.14
-67.67
-78.51
-88.10
-95.11
-98.56
-97.97
-93.43
-85.50
-75.18
-63.56
-51.62
-40.12
-29.56
-20.26
-12.46
-6.25
-1.54
2.01
4.87
7.48
10.13
12.80
15.33
17.48
19.12
20.30
21.16
21.84
22.37
22.65
22.47
21.64
20.02
17.60
14.48
10.82
6.89
2.91
-0.92
-4.53
-7.98
-11.47
-15.32
-19.80
-25.14
-31.39
-38.39
-45.68
-52.52
-58.02
-61.24
-61.51
-58.56
-52.68
-44.54
-35.06
-25.13
-15.48
-6.64
1.04
7.30
12.02
15.22
17.13
18.19
18.90
19.75
20.95
22.50
24.17
25.67
26.84
27.67
28.30
28.85
29.32
29.47
28.94
27.33
24.42
20.28
15.25
9.89
4.74
0.18
-3.69
-7.07
-10.38
-14.14
-18.70
-24.18
-30.33
-36.58
-42.06
-45.85
-47.12
-45.38
-40.61
-33.21
-23.96
-13.81
-3.66
5.76
13.98
20.77
26.05
29.86
32.26
33.36
33.41
32.77
31.95
31.45
31.65
32.61
34.00
35.25
35.74
35.16
33.58
31.39
28.99
26.60
24.10
21.12
17.34
12.67
7.40
2.02
-2.95
-7.29
-11.13
-14.87
-19.05
-24.06
-30.13
-37.18
-44.83
-52.44
-59.04
-63.57
-65.05
-62.89
-57.10
-48.38
-37.84
-26.69
-15.90
-6.02
2.72
10.32
16.73
21.88
25.64
28.04
29.28
29.75
29.93
30.20
30.76
31.54
32.34
32.88
33.01
32.77
32.30
31.75
31.11
30.13
28.48
25.85
22.19
17.74
12.98
8.40
4.33
0.76
-2.58
-6.12
-10.23
-15.16
-21.03
-27.76
-35.10
-42.55
-49.26
-54.18
-56.32
-55.00
-50.15
-42.36
-32.64
-22.12
-11.67
-1.85
7.09
14.95
21.52
26.50
29.71
31.25
31.53
31.21
30.96
31.18
31.90
32.83
33.60
33.95
33.83
33.37
32.68
31.74
30.37
28.33
25.46
21.76
17.48
12.95
8.51
4.40
0.63
-2.94
-6.58
-10.63
-15.38
-20.97
-27.41
-34.45
-41.62
-48.13
-53.06
-55.43
-54.53
-50.16
-42.72
-33.09
-22.41
-11.72
-1.77
7.02
14.48
20.55
25.20
28.43
30.29
31.05
31.03
30.67
30.35
30.25
30.32
30.32
30.00
29.24
28.06
26.69
25.33
23.99
22.50
20.54
17.83
14.29
10.11
5.66
1.30
-2.71
-6.38
-9.97
-13.87
-18.46
-24.01
-30.49
-37.53
-44.38
-50.05
-53.54
-54.02
-51.14
-45.07
-36.53
-26.51
-16.08
-6.11
2.82
10.39
16.43
20.84
23.59
24.80
24.74
23.84
22.60
21.46
20.74
20.53
20.80
21.39
22.06
22.57
22.63
22.01
20.54
18.21
15.11
11.47
7.62
3.88
0.47
-2.59
-5.47
-8.52
-12.13
-16.61
-22.03
-28.13
-34.40
-40.06
-44.23
-46.07
-45.06
-41.10
-34.60
-26.42
-17.56
-8.94
-1.14
5.60
11.30
15.95
19.51
21.84
22.86
22.74
21.85
20.73
19.87
19.59
19.94
20.76
21.76
22.61
23.06
22.92
22.05
20.39
17.94
14.78
11.10
7.11
2.98
-1.20
-5.45
-9.79
-14.28
-19.00
-24.06
-29.53
-35.31
-41.00
-45.85
-48.87
-49.08
-45.91
-39.39
-30.20
-19.43
-8.29
2.17
11.28
18.72
24.41
28.39
30.76
31.70
31.46
30.46
29.19
28.10
27.47
27.33
27.46
27.55
27.39
26.87
26.01
24.83
23.25
21.13
18.33
14.84
10.79
6.47
2.17
-1.93
-5.84
-9.75
-13.98
-18.88
-24.61
-31.05
-37.60
-43.32
-47.02
-47.67
-44.76
-38.47
-29.68
-19.65
-9.64
-0.54
7.18
13.48
18.44
22.18
24.69
26.03
26.33
25.95
25.31
24.81
24.62
24.75
25.04
25.28
25.33
25.07
24.47
23.47
21.99
19.92
17.21
13.83
9.92
5.68
1.41
-2.63
-6.33
-9.76
-13.22
-17.10
-21.65
-26.77
-31.93
-36.22
-38.64
-38.40
-35.24
-29.52
-22.10
-14.02
-6.21
0.76
6.64
11.41
15.03
17.43
18.53
18.33
17.08
15.26
13.47
12.24
11.92
12.54
13.83
15.31
16.43
16.77
16.09
14.44
12.07
9.29
6.37
3.45
0.50
-2.59
-5.99
-9.84
-14.27
-19.34
-25.00
-30.98
-36.81
-41.78
-45.09
-46.01
-44.15
-39.48
-32.49
-23.99
-14.95
-6.24
1.46
7.77
12.51
15.68
17.39
17.85
17.40
16.44
15.42
14.69
14.45
14.70
15.29
15.98
16.49
16.60
16.14
15.04
13.27
10.90
8.03
4.74
1.11
-2.81
-7.01
-11.56
-16.52
-22.04
-28.18
-34.87
-41.80
-48.39
-53.81
-57.17
-57.72
-55.11
-49.44
-41.36
-31.78
-21.75
-12.09
-3.34
4.28
10.70
15.94
19.91
22.58
24.04
24.57
24.62
24.63
24.86
25.34
25.88
26.26
26.34
26.11
25.60
24.83
23.65
21.83
19.16
15.59
11.29
6.60
1.95
-2.40
-6.37
-10.16
-14.15
-18.79
-24.39
-31.03
-38.35
-45.55
-51.54
-55.18
-55.60
-52.52
-46.29
-37.77
-28.05
-18.12
-8.67
-0.07
7.50
13.95
19.17
23.09
25.72
27.26
28.08
28.58
29.03
29.53
29.95
30.11
29.82
29.11
28.14
27.09
26.03
24.82
23.15
20.75
17.51
13.55
9.19
4.75
0.43
-3.79
-8.05
-12.60
-17.68
-23.44
-29.90
-36.84
-43.75
-49.79
-53.97
-55.35
-53.40
-48.18
-40.28
-30.72
-20.52
-10.51
-1.21
7.13
14.31
20.12
24.32
26.76
27.56
27.17
26.21
25.30
24.80
24.70
24.74
24.62
24.20
23.55
22.88
22.26
21.58
20.51
18.63
15.71
11.82
7.32
2.68
-1.66
-5.50
-8.97
-12.40
-16.21
-20.72
-26.11
-32.33
-39.18
-46.17
-52.58
-57.39
-59.51
-58.14
-53.02
-44.65
-34.15
-22.88
-12.00
-2.18
6.41
13.88
20.32
25.69
29.79
32.43
33.63
33.68
33.06
32.33
31.91
32.01
32.55
33.26
33.82
33.98
33.62
32.76
31.44
29.66
27.34
24.40
20.87
16.89
12.72
8.61
4.71
0.98
-2.76
-6.80
-11.40
-16.78
-23.00
-29.94
-37.22
-44.16
-49.88
-53.42
-54.04
-51.43
-45.79
-37.77
-28.28
-18.27
-8.46
0.62
8.69
15.59
21.23
25.55
28.60
30.52
31.54
31.99
32.16
32.27
32.45
32.72
33.04
33.35
33.56
33.62
33.45
32.94
31.92
30.21
27.68
24.35
20.43
16.26
12.20
8.51
5.22
2.15
-1.01
-4.61
-8.98
-14.30
-20.54
-27.42
-34.32
-40.38
-44.56
-46.01
-44.23
-39.32
-31.87
-22.74
-12.91
-3.08
6.17
14.56
21.81
27.70
32.00
34.65
35.80
35.83
35.31
34.74
34.50
34.65
35.03
35.29
35.12
34.31
32.88
31.00
28.83
26.48
23.89
20.93
17.56
13.86
10.06
6.44
3.14
0.07
-3.08
-6.67
-11.03
-16.29
-22.40
-29.07
-35.78
-41.76
-46.16
-48.10
-47.01
-42.84
-36.10
-27.78
-18.95
-10.46
-2.84
3.76
9.33
13.79
17.04
18.94
19.50
19.02
17.99
16.98
16.43
16.52
17.15
18.04
18.82
19.22
19.04
18.23
16.84
14.98
12.80
10.40
7.87
5.28
2.68
0.13
-2.34
-4.83
-7.57
-10.85
-14.90
-19.69
-24.74
-29.26
-32.28
-32.98
-30.97
-26.40
-19.95
-12.55
-5.12
1.61
7.23
11.57
14.61
16.42
17.03
16.57
15.23
13.34
11.33
9.64
8.61
8.30
8.53
8.93
9.07
8.64
7.44
5.46
2.79
-0.41
-3.94
-7.62
-11.27
-14.85
-18.39
-22.06
-25.99
-30.29
-34.95
-39.83
-44.64
-48.97
-52.24
-53.79
-52.99
-49.43
-43.13
-34.62
-24.82
-14.81
-5.54
2.34
8.60
13.25
16.47
18.43
19.25
19.11
18.26
17.02
15.72
14.60
13.72
13.02
12.35
11.62
10.77
9.82
8.76
7.59
6.22
4.53
2.39
-0.24
-3.37
-6.88
-10.61
-14.47
-18.48
-22.79
-27.54
-32.61
-37.49
-41.21
-42.68
-41.07
-36.19
-28.56
-19.23
-9.42
-0.17
7.89
14.49
19.55
23.09
25.15
25.85
25.46
24.34
22.96
21.69
20.73
20.12
19.76
19.51
19.23
18.83
18.19
17.17
15.59
13.34
10.40
6.86
2.90
-1.36
-5.88
-10.69
-15.85
-21.35
-27.09
-32.91
-38.51
-43.50
-47.32
-49.33
-48.94
-45.80
-40.04
-32.26
-23.46
-14.72
-6.90
-0.51
4.34
7.84
10.23
11.67
12.28
12.13
11.34
10.13
8.80
7.59
6.69
6.15
5.88
5.75
5.54
5.03
4.04
2.44
0.21
-2.56
-5.69
-9.12
-12.88
-17.12
-22.05
-27.74
-34.08
-40.75
-47.22
-52.83
-56.80
-58.36
-56.85
-52.03
-44.14
-33.97
-22.67
-11.42
-1.14
7.65
14.83
20.47
24.68
27.54
29.10
29.44
28.83
27.60
26.21
25.04
24.30
24.04
24.05
24.01
23.48
22.14
19.83
16.57
12.55
8.03
3.28
-1.48
-6.15
-10.72
-15.33
-20.23
-25.74
-32.09
-39.22
-46.66
-53.49
-58.48
-60.49
-58.81
-53.35
-44.74
-34.07
-22.56
-11.28
-0.98
7.96
15.38
21.31
25.81
29.02
31.18
32.57
33.48
34.18
34.83
35.49
36.11
36.56
36.71
36.51
35.89
34.84
33.32
31.26
28.58
25.24
21.31
16.95
12.41
7.91
3.59
-0.60
-4.87
-9.56
-15.01
-21.43
-28.70
-36.30
-43.31
-48.54
-50.85
-49.53
-44.47
-36.24
-25.89
-14.59
-3.34
7.14
16.50
24.53
31.10
36.14
39.65
41.74
42.76
43.11
43.24
43.46
43.85
44.30
44.55
44.39
43.74
42.72
41.50
40.19
38.75
36.93
34.44
31.05
26.77
21.83
16.60
11.47
6.66
2.16
-2.24
-6.96
-12.42
-18.93
-26.51
-34.66
-42.45
-48.61
-51.84
-51.25
-46.64
-38.56
-28.13
-16.63
-5.24
5.29
14.54
22.38
28.74
33.56
36.81
38.60
39.24
39.18
38.95
38.93
39.27
39.89
40.55
41.02
41.19
41.05
40.61
39.83
38.56
36.58
33.71
29.93
25.35
20.20
14.74
9.18
3.69
-1.61
-6.71
-11.67
-16.72
-22.12
-28.09
-34.73
-41.81
-48.79
-54.85
-59.04
-60.47
-58.58
-53.33
-45.24
-35.24
-24.41
-13.69
-3.72
5.11
12.56
18.42
22.51
24.85
25.72
25.68
25.43
25.51
26.19
27.35
28.60
29.48
29.63
28.97
27.62
25.86
23.91
21.82
19.48
16.65
13.17
9.10
4.71
0.39
-3.55
-7.06
-10.33
-13.74
-17.69
-22.40
-27.89
-33.90
-39.96
-45.33
-49.22
-50.80
-49.49
-45.07
-37.86
-28.54
-18.08
-7.45
2.54
11.28
18.39
23.64
26.99
28.56
28.69
27.86
26.66
25.63
25.15
25.37
26.14
27.09
27.75
27.78
26.99
25.48
23.51
21.31
18.97
16.37
13.24
9.41
4.97
0.26
-4.29
-8.41
-12.16
-15.89
-20.13
-25.32
-31.60
-38.73
-46.17
-53.12
-58.69
-62.03
-62.42
-59.50
-53.38
-44.66
-34.29
-23.37
-12.84
-3.32
4.91
11.78
17.27
21.38
24.08
25.47
25.82
25.61
25.34
25.36
25.75
26.34
26.85
27.06
26.92
26.57
26.15
25.73
25.11
23.92
21.78
18.43
13.97
8.76
3.41
-1.56
-5.87
-9.58
-13.06
-16.79
-21.21
-26.54
-32.77
-39.55
-46.29
-52.14
-56.12
-57.36
-55.32
-49.95
-41.78
-31.79
-21.06
-10.56
-0.94
7.53
14.71
20.48
24.67
27.13
27.90
27.35
26.16
25.09
24.71
25.18
26.19
27.18
27.64
27.32
26.29
24.81
23.15
21.43
19.54
17.26
14.40
10.88
6.79
2.40
-2.01
-6.16
-9.90
-13.24
-16.37
-19.61
-23.38
-28.01
-33.65
-40.11
-46.80
-52.80
-57.02
-58.50
-56.63
-51.38
-43.28
-33.26
-22.43
-11.82
-2.21
5.95
12.47
17.34
20.68
22.69
23.64
23.90
23.85
23.83
24.09
24.69
25.57
26.53
27.32
27.77
27.82
27.49
26.83
25.88
24.57
22.74
20.21
16.90
12.92
8.53
4.10
-0.08
-3.88
-7.40
-10.90
-14.69
-19.09
-24.23
-30.07
-36.32
-42.42
-47.59
-50.94
-51.72
-49.46
-44.15
-36.24
-26.54
-16.05
-5.75
3.53
11.17
16.85
20.44
22.10
22.23
21.41
20.30
19.45
19.20
19.58
20.36
21.17
21.74
21.94
21.82
21.51
21.07
20.38
19.20
17.27
14.47
10.91
6.91
2.86
-0.93
-4.34
-7.44
-10.51
-13.85
-17.77
-22.44
-27.82
-33.59
-39.11
-43.45
-45.61
-44.80
-40.73
-33.76
-24.79
-15.03
-5.56
2.80
9.64
14.85
18.46
20.56
21.34
21.09
20.19
19.09
18.12
17.48
17.12
16.96
16.91
16.90
16.93
16.93
16.71
15.99
14.48
12.01
8.60
4.52
0.11
-4.25
-8.30
-12.02
-15.57
-19.27
-23.51
-28.57
-34.46
-40.79
-46.77
-51.36
-53.54
-52.61
-48.44
-41.46
-32.54
-22.71
-12.88
-3.69
4.49
11.49
17.25
21.72
24.90
26.87
27.83
28.12
28.11
28.10
28.27
28.57
28.80
28.70
28.09
26.87
25.08
22.82
20.14
17.05
13.52
9.55
5.22
0.68
-3.88
-8.34
-12.72
-17.20
-22.05
-27.52
-33.70
-40.38
-47.07
-52.93
-56.98
-58.33
-56.42
-51.21
-43.23
-33.40
-22.77
-12.23
-2.37
6.51
14.23
20.62
25.55
28.92
30.86
31.72
31.98
32.08
32.30
32.68
33.04
33.18
32.93
32.28
31.29
30.03
28.55
26.71
24.32
21.22
17.37
12.92
8.19
3.50
-0.93
-5.14
-9.30
-13.72
-18.71
-24.51
-31.13
-38.34
-45.51
-51.70
-55.79
-56.80
-54.21
-48.13
-39.32
-28.89
-17.96
-7.38
2.38
11.12
18.71
25.04
29.91
33.17
34.87
35.29
34.92
34.31
33.90
33.89
34.22
34.62
34.80
34.54
33.77
32.56
31.07
29.33
27.32
24.84
21.68
17.73
13.11
8.16
3.29
-1.15
-5.08
-8.67
-12.32
-16.44
-21.31
-26.96
-33.16
-39.39
-44.86
-48.69
-50.06
-48.45
-43.80
-36.57
-27.63
-17.95
-8.39
0.48
8.39
15.24
20.99
25.57
28.90
31.02
32.14
32.61
32.82
33.12
33.64
34.33
35.05
35.67
36.02
36.02
35.59
34.64
33.13
31.05
28.45
25.40
21.96
18.16
14.05
9.72
5.36
1.16
-2.80
-6.63
-10.67
-15.30
-20.81
-27.22
-34.23
-41.19
-47.29
-51.72
-53.74
-52.96
-49.31
-43.08
-34.85
-25.36
-15.36
-5.50
3.71
11.88
18.69
23.88
27.33
29.11
29.58
29.29
28.85
28.74
29.13
29.90
30.70
31.13
30.89
29.97
28.55
26.91
25.29
23.75
22.15
20.26
17.84
14.78
11.17
7.21
3.20
-0.64
-4.18
-7.46
-10.67
-14.10
-18.07
-22.80
-28.31
-34.24
-39.93
-44.52
-47.09
-46.99
-43.94
-38.16
-30.26
-21.11
-11.68
-2.80
4.92
11.12
15.69
18.66
20.15
20.38
19.67
18.44
17.17
16.29
16.06
16.47
17.32
18.26
18.95
19.16
18.76
17.72
16.07
13.83
11.07
7.86
4.37
0.82
-2.55
-5.60
-8.29
-10.83
-13.60
-17.00
-21.39
-26.89
-33.35
-40.32
-47.06
-52.69
-56.34
-57.29
-55.17
-50.08
-42.56
-33.47
-23.72
-14.07
-5.09
2.91
9.70
15.11
19.00
21.39
22.51
22.78
22.77
22.92
23.40
24.10
24.73
24.94
24.58
23.73
22.59
21.38
20.13
18.70
16.84
14.29
10.97
6.99
2.63
-1.84
-6.18
-10.31
-14.29
-18.24
-22.32
-26.77
-31.81
-37.61
-44.15
-51.00
-57.37
-62.15
-64.29
-63.15
-58.72
-51.60
-42.75
-33.14
-23.51
-14.29
-5.71
2.07
8.84
14.37
18.51
21.32
23.08
24.24
25.31
26.62
28.27
30.10
31.78
32.96
33.43
33.15
32.26
30.99
29.47
27.71
25.57
22.89
19.54
15.58
11.17
6.54
1.91
-2.62
-7.03
-11.39
-15.87
-20.65
-25.97
-32.07
-39.00
-46.48
-53.79
-59.84
-63.43
-63.65
-60.18
-53.43
-44.38
-34.19
-23.91
-14.19
-5.31
2.68
9.73
15.72
20.46
23.82
25.88
26.95
27.52
28.07
28.97
30.31
31.94
33.54
34.78
35.49
35.66
35.41
34.84
33.95
32.60
30.57
27.70
23.99
19.62
14.87
10.02
5.19
0.36
-4.59
-9.79
-15.27
-20.99
-26.89
-32.92
-38.98
-44.88
-50.17
-54.13
-55.95
-54.92
-50.70
-43.51
-34.08
-23.36
-12.37
-1.82
7.75
16.03
22.76
27.74
30.85
32.27
32.49
32.24
32.19
32.68
33.54
34.27
34.35
33.58
32.16
30.63
29.41
28.61
27.95
26.91
25.06
22.19
18.41
13.97
9.17
4.28
-0.42
-4.70
-8.40
-11.59
-14.64
-18.08
-22.47
-28.02
-34.46
-40.94
-46.27
-49.30
-49.22
-45.81
-39.45
-30.92
-21.18
-11.12
-1.47
7.24
14.59
20.32
24.29
26.54
27.36
27.21
26.66
26.24
26.32
26.99
28.13
29.39
30.40
30.87
30.65
29.77
28.38
26.62
24.54
22.03
18.93
15.08
10.55
5.51
0.29
-4.82
-9.61
-14.04
-18.28
-22.62
-27.42
-33.03
-39.59
-46.86
-54.12
-60.19
-63.79
-63.95
-60.31
-53.27
-43.82
-33.14
-22.23
-11.76
-2.02
6.88
14.75
21.32
26.33
29.63
31.37
31.99
32.08
32.22
32.74
33.72
34.92
36.02
36.69
36.75
36.19
35.10
33.57
31.61
29.17
26.11
22.34
17.87
12.92
7.78
2.81
-1.75
-5.93
-9.95
-14.17
-18.90
-24.38
-30.65
-37.55
-44.76
-51.68
-57.52
-61.28
-62.03
-59.23
-52.90
-43.75
-32.91
-21.63
-10.86
-1.15
7.42
14.87
21.22
26.41
30.30
32.92
34.46
35.32
35.92
36.54
37.20
37.78
38.08
37.99
37.53
36.81
35.93
34.89
33.58
31.77
29.26
25.96
21.92
17.41
12.82
8.51
4.67
1.24
-2.10
-5.79
-10.26
-15.78
-22.40
-29.92
-37.91
-45.77
-52.73
-57.91
-60.52
-59.94
-55.98
-48.94
-39.58
-28.86
-17.76
-7.03
2.86
11.64
19.19
25.36
30.01
33.11
34.79
35.39
35.39
35.29
35.47
36.08
37.00
37.94
38.52
38.49
37.71
36.25
34.29
31.97
29.39
26.49
23.16
19.32
15.04
10.48
5.92
1.59
-2.43
-6.22
-10.11
-14.44
-19.53
-25.49
-32.20
-39.31
-46.23
-52.20
-56.42
-58.16
-56.94
-52.69
-45.71
-36.68
-26.50
-16.02
-5.99
3.07
10.79
16.95
21.44
24.25
25.56
25.74
25.33
24.84
24.67
24.95
25.55
26.13
26.35
26.01
25.11
23.82
22.32
20.71
18.93
16.79
14.12
10.84
7.13
3.26
-0.42
-3.71
-6.65
-9.45
-12.44
-15.88
-19.95
-24.66
-29.89
-35.38
-40.61
-44.80
-47.03
-46.50
-42.83
-36.30
-27.72
-18.27
-8.96
-0.50
6.79
12.80
17.42
20.51
21.96
21.88
20.68
19.00
17.50
16.60
16.40
16.74
17.30
17.84
18.19
18.30
18.12
17.55
16.40
14.50
11.73
8.16
4.03
-0.26
-4.40
-8.21
-11.77
-15.37
-19.36
-24.06
-29.55
-35.67
-42.01
-47.97
-52.81
-55.74
-56.11
-53.52
-47.98
-39.96
-30.28
-19.89
-9.68
-0.23
8.12
15.22
20.98
25.28
28.09
29.53
29.96
29.91
29.86
30.12
30.64
31.12
31.18
30.51
29.09
27.08
24.77
22.37
19.89
17.18
13.98
10.07
5.44
0.32
-4.93
-9.96
-14.61
-18.95
-23.30
-28.07
-33.59
-40.02
-47.19
-54.60
-61.42
-66.62
-69.23
-68.62
-64.65
-57.75
-48.75
-38.60
-28.10
-17.80
-7.99
1.09
9.17
16.00
21.32
25.09
27.49
28.93
29.88
30.75
31.74
32.85
33.84
34.46
34.53
34.02
32.98
31.50
29.55
26.98
23.57
19.25
14.12
8.54
3.00
-2.17
-6.87
-11.36
-16.06
-21.38
-27.52
-34.40
-41.70
-48.90
-55.39
-60.45
-63.35
-63.47
-60.48
-54.50
-46.06
-36.01
-25.27
-14.56
-4.40
4.91
13.12
20.02
25.43
29.33
31.88
33.46
34.51
35.44
36.55
37.90
39.43
40.92
42.14
42.90
43.09
42.75
41.89
40.54
38.58
35.83
32.19
27.69
22.64
17.46
12.63
8.31
4.38
0.42
-4.14
-9.71
-16.44
-24.01
-31.79
-38.79
-43.94
-46.35
-45.44
-41.17
-34.04
-24.96
-15.04
-5.25
3.75
11.67
18.46
24.11
28.54
31.64
33.32
33.74
33.26
32.39
31.57
31.08
30.91
30.93
30.94
30.81
30.49
29.87
28.84
27.24
24.93
21.92
18.29
14.25
10.04
5.86
1.86
-1.96
-5.75
-9.79
-14.35
-19.65
-25.59
-31.76
-37.38
-41.54
-43.37
-42.34
-38.30
-31.61
-22.96
-13.23
-3.32
5.99
14.08
20.58
25.24
28.04
29.13
28.86
27.71
26.25
24.94
24.06
23.64
23.52
23.43
23.15
22.51
21.40
19.75
17.51
14.66
11.28
7.50
3.53
-0.48
-4.47
-8.47
-12.63
-17.13
-22.17
-27.96
-34.55
-41.86
-49.43
-56.43
-61.72
-64.21
-63.11
-58.30
-50.35
-40.31
-29.41
-18.69
-8.80
-0.09
7.28
13.27
17.83
21.00
22.96
24.00
24.46
24.66
24.77
24.87
24.99
25.12
25.29
25.45
25.48
25.12
24.08
22.11
19.19
15.53
11.47
7.38
3.47
-0.24
-3.85
-7.53
-11.48
-15.86
-20.95
-26.98
-33.98
-41.61
-48.95
-54.75
-57.71
-56.97
-52.41
-44.67
-34.91
-24.41
-14.18
-4.79
3.52
10.75
16.90
21.93
25.73
28.29
29.71
30.26
30.30
30.12
29.89
29.64
29.33
28.91
28.40
27.79
27.03
25.96
24.35
22.00
18.87
15.15
11.13
7.14
3.42
0.01
-3.23
-6.59
-10.41
-14.99
-20.49
-26.74
-33.29
-39.41
-44.23
-46.96
-47.05
-44.26
-38.77
-31.12
-22.05
-12.39
-2.99
5.49
12.58
18.03
21.79
24.00
24.95
24.99
24.53
23.87
23.20
22.58
21.97
21.34
20.75
20.31
20.13
20.17
20.22
19.91
18.90
16.96
14.10
10.57
6.71
2.85
-0.82
-4.28
-7.66
-11.20
-15.25
-20.09
-25.93
-32.65
-39.69
-46.09
-50.66
-52.28
-50.33
-44.89
-36.74
-27.07
-17.11
-7.77
0.50
7.63
13.69
18.65
22.33
24.53
25.16
24.45
22.96
21.33
20.10
19.50
19.42
19.54
19.59
19.40
18.99
18.40
17.58
16.34
14.43
11.66
7.99
3.67
-0.94
-5.44
-9.55
-13.29
-16.89
-20.70
-25.05
-30.09
-35.60
-40.99
-45.39
-47.84
-47.57
-44.24
-38.06
-29.69
-20.10
-10.24
-0.94
7.22
13.88
18.82
21.97
23.39
23.33
22.20
20.54
18.83
17.40
16.45
16.03
16.12
16.62
17.36
18.08
18.44
18.07
16.75
14.42
11.17
7.28
3.06
-1.22
-5.40
-9.49
-13.65
-18.14
-23.22
-29.07
-35.64
-42.53
-48.96
-53.92
-56.35
-55.44
-50.92
-43.14
-33.01
-21.74
-10.47
-0.07
8.94
16.35
22.11
26.26
28.95
30.43
31.03
31.14
31.01
30.75
30.33
29.63
28.69
27.61
26.64
25.96
25.56
25.21
24.51
23.04
20.52
16.93
12.52
7.71
2.95
-1.47
-5.50
-9.33
-13.36
-18.03
-23.66
-30.30
-37.52
-44.53
-50.20
-53.44
-53.48
-50.06
-43.57
-34.84
-24.88
-14.60
-4.61
4.69
13.07
20.24
25.90
29.78
31.88
32.48
32.17
31.58
31.25
31.42
32.02
32.76
33.30
33.37
32.83
31.68
29.99
27.86
25.31
22.33
18.88
14.92
10.51
5.84
1.19
-3.22
-7.33
-11.30
-15.51
-20.42
-26.37
-33.32
-40.83
-48.06
-53.92
-57.39
-57.71
-54.62
-48.34
-39.55
-29.22
-18.37
-7.96
1.28
8.87
14.63
18.66
21.23
22.70
23.40
23.60
23.45
23.10
22.65
22.20
21.84
21.60
21.42
21.22
20.86
20.18
19.04
17.29
14.84
11.72
8.09
4.17
0.24
-3.54
-7.14
-10.65
-14.32
-18.45
-23.33
-29.06
-35.43
-41.75
-47.00
-49.96
-49.68
-45.77
-38.61
-29.22
-18.93
-8.90
0.10
7.72
13.96
18.85
22.36
24.43
25.15
24.77
23.80
22.80
22.19
22.15
22.55
23.07
23.40
23.33
22.73
21.60
19.89
17.56
14.60
11.03
6.95
2.53
-2.01
-6.53
-10.99
-15.47
-20.15
-25.24
-30.90
-37.16
-43.83
-50.39
-56.08
-59.93
-61.00
-58.73
-53.08
-44.64
-34.41
-23.56
-12.97
-3.19
5.59
13.31
19.83
24.97
28.51
30.47
31.14
31.10
30.91
30.93
31.24
31.61
31.76
31.52
30.93
30.13
29.20
28.02
26.27
23.61
19.87
15.20
10.04
4.87
0.05
-4.39
-8.68
-13.18
-18.20
-23.88
-30.18
-36.88
-43.57
-49.56
-53.94
-55.73
-54.12
-48.88
-40.41
-29.76
-18.28
-7.27
2.35
10.13
16.02
20.18
22.89
24.41
25.06
25.13
24.89
24.53
24.13
23.67
23.14
22.54
21.89
21.22
20.52
19.71
18.65
17.15
15.05
12.27
8.81
4.79
0.42
-4.09
-8.58
-13.09
-17.81
-23.01
-28.84
-35.12
-41.23
-46.18
-48.89
-48.50
-44.68
-37.76
-28.54
-18.11
-7.50
2.51
11.37
18.77
24.47
28.37
30.53
31.29
31.27
31.25
31.99
33.92
37.04
40.90
44.76
47.84
49.68
50.21
49.83
49.24
49.23
50.36
52.86
56.49
60.47
63.52
63.91
59.72
49.33
32.14
9.00
-17.79
-45.05
-69.68
-89.39
-103.06
-110.42
-111.52
-106.36
-95.14
-78.63
-58.67
-37.99
-19.53
-5.46
3.54
8.31
10.60
12.20
14.19
16.65
18.97
20.37
20.39
19.16
17.28
15.49
14.22
13.48
12.85
11.78
9.95
7.37
4.36
1.34
-1.37
-3.79
-6.19
-8.95
-12.36
-16.48
-21.19
-26.27
-31.60
-37.18
-43.09
-49.23
-55.22
-60.29
-63.42
-63.66
-60.41
-53.69
-44.13
-32.76
-20.77
-9.17
1.35
10.48
18.13
24.36
29.24
32.87
35.41
37.09
38.21
39.03
39.69
40.22
40.54
40.53
40.17
39.51
38.61
37.50
36.09
34.18
31.57
28.14
23.98
19.32
14.49
9.72
5.11
0.56
-4.10
-9.11
-14.68
-20.95
-27.89
-35.23
-42.35
-48.27
-51.89
-52.29
-49.13
-42.72
-34.04
-24.30
-14.51
-5.28
3.15
10.73
17.34
22.74
26.64
28.93
29.79
29.70
29.21
28.79
28.66
28.81
29.12
29.45
29.68
29.74
29.47
28.69
27.22
24.96
21.95
18.41
14.60
10.80
7.17
3.76
0.46
-2.83
-6.27
-9.99
-14.16
-18.91
-24.25
-29.98
-35.55
-40.12
-42.70
-42.42
-38.87
-32.19
-23.14
-12.74
-2.11
7.88
16.67
23.90
29.38
33.02
34.85
35.12
34.32
33.11
32.05
31.53
31.53
31.79
31.91
31.56
30.66
29.29
27.64
25.83
23.94
21.87
19.51
16.72
13.43
9.70
5.68
1.62
-2.22
-5.63
-8.59
-11.27
-14.09
-17.51
-21.92
-27.36
-33.28
-38.62
-41.98
-42.12
-38.34
-30.77
-20.32
-8.38
3.60
14.56
23.93
31.62
37.78
42.53
45.86
47.54
47.26
44.67
39.51
31.57
20.80
7.40
-7.93
-23.94
-38.99
-51.37
-59.74
-63.49
-62.75
-58.21
-50.90
-42.03
-32.91
-24.92
-19.37
-17.15
-18.40
-22.50
-28.23
-34.29
-39.84
-44.69
-49.20
-53.90
-59.07
-64.49
-69.44
-72.87
-73.79
-71.52
-65.95
-57.50
-46.99
-35.41
-23.63
-12.28
-1.72
7.82
16.13
22.97
28.11
31.46
33.18
33.71
33.60
33.46
33.66
34.32
35.30
36.27
36.94
37.10
36.72
35.90
34.79
33.49
31.94
29.92
27.23
23.70
19.47
14.89
10.40
6.33
2.76
-0.58
-4.11
-8.29
-13.37
-19.41
-26.22
-33.43
-40.47
-46.55
-50.70
-52.02
-49.94
-44.47
-36.24
-26.28
-15.76
-5.54
3.86
12.25
19.55
25.59
30.13
33.01
34.22
34.07
33.14
32.10
31.52
31.63
32.37
33.40
34.31
34.84
34.91
34.54
33.78
32.58
30.82
28.37
25.22
21.53
17.59
13.65
9.91
6.41
3.06
-0.27
-3.71
-7.36
-11.27
-15.51
-20.17
-25.37
-31.15
-37.36
-43.53
-48.81
-52.16
-52.62
-49.66
-43.41
-34.66
-24.56
-14.28
-4.74
3.54
10.33
15.60
19.31
21.46
22.14
21.63
20.41
19.07
18.17
18.02
18.63
19.70
20.80
21.62
22.06
22.27
22.42
22.58
22.55
21.92
20.28
17.38
13.27
8.28
2.86
-2.54
-7.58
-12.10
-16.13
-19.84
-23.53
-27.54
-32.08
-37.06
-41.98
-46.02
-48.24
-47.90
-44.68
-38.83
-30.98
-21.95
-12.56
-3.44
4.93
12.16
17.94
22.03
24.33
24.98
24.39
23.06
21.54
20.25
19.41
19.04
19.04
19.27
19.55
19.76
19.71
19.22
18.07
16.09
13.23
9.59
5.41
0.96
-3.53
-7.90
-12.15
-16.28
-20.35
-24.48
-28.84
-33.70
-39.31
-45.66
-52.38
-58.56
-62.96
-64.39
-62.13
-56.21
-47.39
-36.87
-25.77
-14.91
-4.76
4.43
12.39
18.77
23.29
25.91
26.97
27.15
27.16
27.52
28.41
29.65
30.91
31.88
32.37
32.36
31.94
31.23
30.34
29.19
27.60
25.28
22.00
17.72
12.73
7.53
2.71
-1.38
-4.82
-8.08
-11.89
-16.86
-23.29
-30.92
-39.00
-46.50
-52.28
-55.47
-55.54
-52.38
-46.31
-37.94
-28.08
-17.58
-7.25
2.28
10.59
17.51
22.99
27.06
29.80
31.31
31.78
31.50
30.86
30.29
30.04
30.20
30.63
31.06
31.21
30.84
29.82
28.16
25.92
23.20
20.11
16.70
13.00
9.05
4.95
0.83
-3.22
-7.27
-11.56
-16.42
-22.14
-28.82
-36.16
-43.51
-49.98
-54.57
-56.43
-55.06
-50.44
-43.05
-33.75
-23.59
-13.53
-4.29
3.68
10.14
14.95
18.06
19.58
19.76
19.10
18.17
17.48
17.37
17.90
18.94
20.22
21.45
22.38
22.85
22.73
21.97
20.50
18.33
15.50
12.12
8.37
4.46
0.56
-3.24
-7.05
-11.11
-15.68
-20.97
-26.93
-33.14
-38.88
-43.12
-44.89
-43.43
-38.54
-30.60
-20.52
-9.52
1.21
10.78
18.62
24.55
28.60
30.91
31.67
31.16
29.71
27.76
25.80
24.20
23.21
22.84
22.86
22.96
22.73
21.89
20.27
17.83
14.61
10.74
6.39
1.80
-2.77
-7.12
-11.23
-15.27
-19.67
-24.85
-31.05
-38.05
-45.16
-51.24
-55.10
-55.78
-52.88
-46.64
-37.83
-27.49
-16.69
-6.24
3.35
11.81
18.99
24.72
28.85
31.30
32.24
32.07
31.37
30.71
30.38
30.46
30.75
31.00
30.98
30.59
29.82
28.67
27.18
25.34
23.09
20.35
17.07
13.20
8.76
3.87
-1.37
-6.93
-12.85
-19.08
-25.37
-31.13
-35.43
-37.36
-36.17
-31.70
-24.31
-14.78
-4.08
6.94
17.61
27.51
36.32
43.76
49.66
53.91
56.63
58.15
58.94
59.53
60.34
61.54
63.08
64.65
65.96
66.78
67.10
67.06
66.78
66.18
64.90
62.26
57.45
49.73
38.59
23.78
5.33
-16.39
-40.52
-65.51
-89.20
-109.07
-122.80
-128.77
-126.45
-116.49
-100.41
-80.39
-58.76
-37.77
-19.30
-4.62
5.72
11.95
14.88
15.64
15.31
14.74
14.39
14.49
15.08
16.15
17.67
19.53
21.57
23.55
25.21
26.34
26.86
26.78
26.14
25.01
23.37
21.18
18.40
15.07
11.33
7.39
3.48
-0.20
-3.65
-7.03
-10.64
-14.80
-19.60
-24.69
-29.35
-32.55
-33.30
-31.05
-25.83
-18.31
-9.52
-0.59
7.61
14.57
20.08
24.19
27.01
28.60
29.05
28.48
27.16
25.47
23.82
22.52
21.68
21.15
20.69
20.07
19.18
18.04
16.66
14.98
12.88
10.23
7.04
3.52
-0.07
-3.49
-6.72
-9.91
-13.36
-17.33
-21.92
-26.99
-32.08
-36.55
-39.56
-40.39
-38.54
-34.06
-27.42
-19.56
-11.48
-4.02
2.31
7.36
11.16
13.80
15.39
16.05
15.98
15.45
14.77
14.15
13.71
13.43
13.26
13.16
13.12
13.08
12.85
12.18
10.75
8.40
5.19
1.43
-2.42
-5.99
-9.16
-12.08
-15.08
-18.56
-22.76
-27.71
-33.13
-38.46
-42.96
-45.80
-46.27
-43.99
-39.07
-32.11
-24.03
-15.75
-8.02
-1.20
4.62
9.48
13.40
16.31
18.14
18.92
18.82
18.17
17.32
16.57
16.06
15.76
15.56
15.32
14.96
14.44
13.72
12.73
11.34
9.41
6.92
3.98
0.80
-2.45
-5.65
-8.89
-12.39
-16.41
-21.12
-26.44
-32.06
-37.39
-41.68
-44.16
-44.22
-41.63
-36.63
-29.88
-22.21
-14.45
-7.11
-0.49
5.30
10.16
13.90
16.29
17.27
16.99
15.88
14.52
13.39
12.79
12.65
12.75
12.76
12.44
11.68
10.56
9.22
7.81
6.32
4.61
2.53
-0.00
-2.95
-6.07
-9.11
-11.89
-14.43
-16.95
-19.80
-23.32
-27.69
-32.81
-38.22
-43.08
-46.37
-47.12
-44.77
-39.41
-31.78
-23.00
-14.22
-6.24
0.55
6.06
10.34
13.36
15.10
15.61
15.14
14.11
13.03
12.28
12.07
12.40
13.15
14.12
15.11
15.89
16.24
16.00
15.12
13.66
11.77
9.62
7.33
4.97
2.58
0.10
-2.51
-5.42
-8.80
-12.79
-17.36
-22.15
-26.50
-29.51
-30.29
-28.34
-23.67
-16.86
-8.84
-0.62
7.04
13.70
19.15
23.35
26.23
27.74
27.90
26.89
25.06
22.94
21.02
19.70
19.14
19.24
19.70
20.07
19.96
19.11
17.50
15.32
12.80
10.17
7.48
4.70
1.71
-1.54
-5.09
-8.97
-13.20
-17.82
-22.79
-27.84
-32.42
-35.71
-36.87
-35.30
-30.86
-23.99
-15.59
-6.76
1.53
8.66
14.37
18.70
21.82
23.85
24.86
24.93
24.24
23.10
21.87
20.84
20.19
19.88
19.76
19.62
19.22
18.43
17.17
15.44
13.34
10.98
8.44
5.75
2.86
-0.27
-3.63
-7.19
-10.90
-14.79
-18.95
-23.41
-27.99
-32.14
-35.05
-35.93
-34.26
-30.06
-23.87
-16.56
-9.00
-1.86
4.49
9.89
14.27
17.54
19.70
20.78
20.93
20.42
19.48
18.34
17.14
15.97
14.88
13.89
12.94
11.98
10.96
9.85
8.67
7.47
6.20
4.76
2.99
0.78
-1.87
-4.77
-7.66
-10.37
-12.95
-15.66
-18.89
-22.97
-27.99
-33.66
-39.28
-43.89
-46.54
-46.54
-43.68
-38.31
-31.15
-23.15
-15.21
-7.95
-1.70
3.46
7.62
10.88
13.31
14.96
15.87
16.18
16.08
15.81
15.61
15.56
15.64
15.68
15.53
15.12
14.51
13.81
13.04
12.12
10.80
8.87
6.23
3.05
-0.34
-3.54
-6.32
-8.69
-10.94
-13.49
-16.75
-20.94
-26.02
-31.66
-37.25
-42.03
-45.28
-46.37
-45.04
-41.37
-35.80
-29.00
-21.65
-14.32
-7.37
-1.04
4.51
9.04
12.29
14.08
14.45
13.76
12.58
11.54
11.10
11.37
12.13
13.00
13.65
13.91
13.81
13.47
13.00
12.34
11.40
9.98
7.95
5.23
1.88
-1.92
-5.93
-9.82
-13.36
-16.42
-19.09
-21.65
-24.47
-27.91
-32.14
-37.09
-42.38
-47.34
-51.15
-53.01
-52.37
-49.05
-43.38
-36.07
-28.02
-20.10
-12.88
-6.63
-1.44
2.75
6.00
8.28
9.65
10.23
10.30
10.25
10.41
10.99
11.97
13.18
14.34
15.29
15.93
16.28
16.29
15.88
14.88
13.14
10.64
7.51
4.00
0.32
-3.39
-7.11
-10.96
-15.06
-19.56
-24.51
-29.82
-35.17
-40.00
-43.51
-44.86
-43.39
-38.87
-31.68
-22.62
-12.81
-3.29
5.18
12.17
17.59
21.46
23.91
25.06
25.07
24.22
22.87
21.42
20.22
19.45
19.12
19.11
19.26
19.41
19.37
18.96
17.99
16.28
13.73
10.38
6.48
2.33
-1.79
-5.72
-9.48
-13.27
-17.39
-22.19
-27.92
-34.63
-42.01
-49.34
-55.46
-59.09
-59.16
-55.22
-47.63
-37.44
-26.06
-14.76
-4.43
4.53
12.02
18.04
22.54
25.52
27.09
27.50
27.16
26.41
25.55
24.77
24.20
23.96
24.10
24.57
25.16
25.54
25.36
24.37
22.44
19.65
16.18
12.26
8.14
3.97
-0.14
-4.19
-8.27
-12.52
-17.16
-22.39
-28.32
-34.82
-41.33
-46.89
-50.33
-50.60
-47.17
-40.25
-30.71
-19.78
-8.64
1.88
11.35
19.59
26.53
32.07
36.05
38.44
39.42
39.47
39.20
39.21
39.79
40.92
42.22
43.22
43.56
43.13
42.11
40.71
39.12
37.29
35.05
32.19
28.57
24.28
19.48
14.47
9.49
4.70
0.06
-4.67
-9.84
-15.76
-22.46
-29.52
-36.06
-40.95
-43.13
-41.99
-37.47
-30.04
-20.52
-9.84
1.15
11.70
21.17
29.08
35.08
39.04
41.09
41.57
41.01
39.96
38.89
38.12
37.78
37.81
38.02
38.25
38.34
38.19
37.79
37.06
35.87
34.03
31.43
28.00
23.95
19.60
15.34
11.42
7.89
4.55
1.07
-2.88
-7.54
-12.96
-19.00
-25.36
-31.52
-36.78
-40.33
-41.36
-39.31
-34.11
-26.21
-16.56
-6.28
3.65
12.54
20.09
26.16
30.66
33.47
34.54
34.00
32.27
30.02
27.98
26.72
26.45
27.05
28.13
29.27
30.08
30.35
30.08
29.38
28.44
27.47
26.57
25.71
24.73
23.43
21.63
19.33
16.70
14.04
11.62
9.52
7.66
5.76
3.63
1.38
-0.50
-1.18
0.26
4.66
12.43
23.35
36.44
49.86
61.08
67.32
66.29
56.84
39.51
16.45
-9.11
-33.65
-54.29
-69.39
-78.56
-82.45
-82.11
-78.62
-72.83
-65.42
-57.10
-48.77
-41.45
-36.07
-33.11
-32.49
-33.58
-35.56
-37.70
-39.59
-41.25
-42.83
-44.57
-46.60
-48.97
-51.68
-54.61
-57.55
-60.08
-61.65
-61.56
-59.19
-54.22
-46.68
-37.08
-26.28
-15.26
-4.96
3.94
11.10
16.47
20.26
22.74
24.22
24.95
25.09
24.82
24.34
23.85
23.56
23.61
24.02
24.63
25.15
25.23
24.54
22.93
20.41
17.14
13.40
9.49
5.62
1.95
-1.51
-4.89
-8.41
-12.37
-17.00
-22.41
-28.43
-34.59
-40.07
-43.92
-45.25
-43.51
-38.70
-31.33
-22.34
-12.75
-3.45
4.95
12.14
17.99
22.41
25.36
26.89
27.19
26.63
25.66
24.68
23.98
23.62
23.50
23.42
23.19
22.67
21.84
20.69
19.22
17.38
15.04
12.09
8.45
4.18
-0.47
-5.14
-9.51
-13.41
-16.96
-20.50
-24.50
-29.28
-34.77
-40.48
-45.49
-48.73
-49.36
-46.96
-41.68
-34.13
-25.15
-15.58
-6.19
2.46
9.87
15.64
19.53
21.51
21.84
20.98
19.56
18.20
17.33
17.20
17.80
18.91
20.16
21.25
21.90
21.97
21.40
20.16
18.24
15.70
12.64
9.30
5.94
2.75
-0.24
-3.23
-6.58
-10.67
-15.71
-21.60
-27.87
-33.65
-37.92
-39.62
-38.07
-33.15
-25.39
-15.86
-5.86
3.44
11.26
17.34
21.82
24.95
26.96
27.95
27.97
27.18
25.88
24.46
23.27
22.47
21.99
21.65
21.23
20.60
19.70
18.42
16.58
13.96
10.42
6.06
1.26
-3.52
-7.91
-11.86
-15.67
-19.83
-24.79
-30.67
-37.13
-43.37
-48.36
-51.05
-50.70
-47.01
-40.25
-31.13
-20.59
-9.66
0.79
10.15
18.01
24.21
28.67
31.52
32.97
33.39
33.16
32.60
31.95
31.38
31.00
30.87
31.02
31.33
31.55
31.32
30.28
28.22
25.15
21.28
16.92
12.41
7.96
3.64
-0.59
-4.88
-9.41
-14.39
-19.96
-26.14
-32.70
-39.13
-44.60
-48.12
-48.80
-46.16
-40.31
-31.90
-21.95
-11.57
-1.61
7.37
15.05
21.25
25.88
28.90
30.47
30.87
30.56
29.95
29.35
28.90
28.55
28.21
27.76
27.10
26.18
24.96
23.50
21.87
20.09
18.18
16.01
13.43
10.31
6.64
2.57
-1.66
-5.86
-10.01
-14.28
-19.02
-24.49
-30.72
-37.38
-43.72
-48.74
-51.45
-51.12
-47.53
-40.96
-32.21
-22.30
-12.21
-2.71
5.76
13.01
19.01
23.70
27.02
28.97
29.69
29.55
29.02
28.60
28.57
28.91
29.35
29.57
29.33
28.65
27.72
26.76
25.81
24.70
23.09
20.68
17.40
13.47
9.30
5.32
1.73
-1.56
-4.86
-8.53
-12.81
-17.83
-23.51
-29.63
-35.75
-41.22
-45.16
-46.73
-45.33
-40.81
-33.60
-24.57
-14.81
-5.25
3.43
10.93
17.11
21.91
25.32
27.33
28.09
27.88
27.09
26.06
25.05
24.15
23.29
22.40
21.43
20.45
19.49
18.60
17.69
16.57
15.01
12.78
9.79
6.08
1.90
-2.34
-6.27
-9.72
-12.80
-15.96
-19.71
-24.42
-30.02
-35.98
-41.34
-45.04
-46.19
-44.32
-39.48
-32.18
-23.29
-13.78
-4.57
3.64
10.48
15.78
19.55
21.88
22.89
22.82
21.96
20.73
19.53
18.70
18.39
18.55
18.96
19.34
19.37
18.78
17.40
15.18
12.19
8.63
4.75
0.80
-3.13
-7.12
-11.40
-16.25
-21.93
-28.49
-35.75
-43.23
-50.15
-55.54
-58.36
-57.86
-53.71
-46.27
-36.47
-25.64
-15.06
-5.69
1.98
7.87
12.12
14.94
16.53
17.14
17.11
16.82
16.56
16.54
16.75
17.06
17.36
17.52
17.51
17.21
16.48
15.12
13.02
10.17
6.78
3.14
-0.47
-3.95
-7.43
-11.23
-15.74
-21.21
-27.64
-34.67
-41.58
-47.39
-51.08
-51.81
-49.12
-43.11
-34.45
-24.21
-13.57
-3.53
5.27
12.60
18.48
22.99
26.20
28.11
28.78
28.44
27.45
26.31
25.40
24.94
24.90
25.10
25.25
25.12
24.49
23.26
21.31
18.58
15.07
10.93
6.38
1.76
-2.70
-6.93
-11.06
-15.38
-20.14
-25.47
-31.17
-36.75
-41.44
-44.35
-44.69
-42.07
-36.58
-28.85
-19.87
-10.67
-2.10
5.33
11.40
16.04
19.21
20.91
21.24
20.51
19.20
17.86
16.94
16.64
16.90
17.42
17.90
18.08
17.82
17.12
15.98
14.47
12.62
10.48
8.05
5.33
2.23
-1.37
-5.60
-10.58
-16.37
-22.82
-29.56
-35.89
-40.90
-43.61
-43.32
-39.82
-33.53
-25.34
-16.39
-7.64
0.24
6.95
12.40
16.51
19.17
20.28
19.97
18.58
16.77
15.17
14.26
14.15
14.62
15.22
15.51
15.23
14.32
12.89
11.10
9.05
6.73
4.12
1.19
-2.09
-5.76
-9.86
-14.46
-19.60
-25.08
-30.44
-34.96
-37.78
-38.19
-35.84
-30.85
-23.72
-15.15
-5.85
3.58
12.63
20.79
27.47
32.14
34.39
34.21
32.05
28.73
25.26
22.56
21.29
21.68
23.59
26.48
29.52
31.86
32.77
31.88
29.18
24.92
19.30
12.43
4.25
-5.22
-15.78
-26.93
-37.97
-48.11
-56.61
-62.80
-66.10
-66.10
-62.67
-56.07
-47.06
-36.63
-25.83
-15.46
-6.05
2.15
8.96
14.21
17.77
19.56
19.74
18.68
16.91
15.04
13.58
12.82
12.78
13.23
13.75
13.90
13.33
11.80
9.30
5.95
2.05
-2.11
-6.26
-10.28
-14.27
-18.53
-23.40
-29.15
-35.75
-42.72
-49.19
-53.98
-55.90
-54.09
-48.30
-38.97
-27.16
-14.27
-1.59
9.94
19.90
28.29
35.25
40.93
45.32
48.32
49.90
50.17
49.47
48.18
46.65
45.11
43.60
42.05
40.33
38.31
35.91
33.09
29.86
26.23
22.27
18.01
13.53
8.87
4.09
-0.86
-6.12
-11.92
-18.51
-25.95
-33.94
-41.73
-48.18
-52.05
-52.37
-48.76
-41.50
-31.54
-20.12
-8.46
2.49
12.20
20.52
27.53
33.31
37.92
41.33
43.51
44.54
44.62
44.12
43.42
42.85
42.59
42.57
42.63
42.49
41.95
40.82
39.00
36.40
32.95
28.67
23.73
18.44
13.15
8.06
3.06
-2.36
-8.79
-16.55
-25.31
-33.92
-40.69
-44.02
-42.94
-37.58
-29.12
-19.34
-10.08
-2.74
1.95
4.05
4.42
4.62
6.60
12.11
22.03
35.86
51.68
66.83
78.89
86.62
90.20
90.89
90.16
88.93
87.29
84.79
80.96
75.76
69.55
62.80
55.68
47.95
39.08
28.65
16.74
3.98
-8.60
-19.91
-29.02
-35.39
-38.76
-39.12
-36.74
-32.07
-25.81
-18.72
-11.60
-5.09
0.32
4.30
6.68
7.48
6.89
5.35
3.43
1.65
0.38
-0.30
-0.55
-0.69
-1.02
-1.70
-2.73
-3.95
-5.13
-6.15
-7.00
-7.82
-8.79
-10.10
-11.80
-13.86
-16.19
-18.76
-21.64
-24.92
-28.66
-32.76
-36.91
-40.60
-43.25
-44.31
-43.49
-40.71
-36.29
-30.74
-24.65
-18.54
-12.76
-7.51
-2.90
0.93
3.83
5.70
6.56
6.66
6.35
6.01
5.84
5.83
5.83
5.64
5.14
4.41
3.56
2.74
2.00
1.26
0.34
-0.95
-2.79
-5.26
-8.33
-11.85
-15.59
-19.19
-22.18
-24.10
-24.67
-24.03
-22.84
-22.08
-22.76
-25.49
-30.25
-36.55
-43.76
-51.43
-59.33
-67.24
-74.66
-80.62
-83.97
-83.71
-79.52
-71.83
-61.61
-49.93
-37.61
-25.11
-12.71
-0.72
10.39
20.08
27.96
33.88
38.05
40.80
42.44
43.11
42.75
41.28
38.72
35.26
31.16
26.70
21.97
16.91
11.42
5.49
-0.79
-7.19
-13.51
-19.61
-25.33
-30.40
-34.35
-36.55
-36.44
-33.77
-28.86
-22.50
-15.76
-9.67
-4.93
-1.83
-0.25
0.18
-0.17
-0.95
-1.98
-3.22
-4.69
-6.35
-8.11
-9.76
-11.09
-11.94
-12.32
-12.42
-12.50
-12.84
-13.55
-14.64
-16.00
-17.46
-18.91
-20.28
-21.61
-23.00
-24.60
-26.52
-28.88
-31.74
-35.11
-38.90
-42.86
-46.54
-49.32
-50.47
-49.42
-45.91
-40.18
-32.93
-25.14
-17.73
-11.31
-6.15
-2.17
0.80
2.83
3.92
3.99
3.10
1.46
-0.53
-2.40
-3.73
-4.27
-3.98
-3.07
-1.89
-0.85
-0.30
-0.44
-1.29
-2.72
-4.56
-6.65
-8.91
-11.31
-13.83
-16.56
-19.60
-23.08
-27.06
-31.38
-35.65
-39.16
-41.16
-40.91
-38.05
-32.62
-25.11
-16.34
-7.22
1.45
9.10
15.42
20.28
23.64
25.56
26.16
25.72
24.60
23.29
22.10
21.15
20.32
19.41
18.24
16.72
14.89
12.88
10.86
9.09
7.83
7.26
7.38
7.91
8.34
8.05
6.46
3.16
-2.03
-9.01
-17.24
-25.74
-33.05
-37.54
-37.75
-33.00
-23.66
-11.13
2.61
15.70
26.92
35.93
43.08
48.92
53.74
57.36
59.35
59.23
56.80
52.16
45.47
36.72
