1705313518.00
64.000000
-0.00
-0.00
-0.00
-0.00
-0.00
-0.00
-0.00
-0.00
-0.00
-0.00
0.00
0.01
0.01
-0.00
-0.03
-0.05
-0.05
0.00
0.13
0.36
0.66
1.01
1.37
1.72
2.06
2.40
2.79
3.24
3.80
4.42
5.06
5.66
6.20
6.68
7.15
7.68
8.31
9.14
10.09
11.04
11.88
12.56
13.14
13.76
14.65
15.96
17.91
20.32
22.90
25.38
27.58
29.57
31.68
34.32
37.81
42.54
48.15
54.10
59.83
64.97
69.58
74.14
79.34
85.71
93.76
103.00
112.62
121.73
129.77
136.75
143.30
150.75
157.77
166.64
177.95
191.79
206.97
220.57
228.25
225.36
208.53
176.87
132.76
80.05
23.07
-34.94
-92.44
-149.16
-205.23
-260.37
-313.74
-363.88
-409.83
-450.91
-486.50
-515.72
-537.20
-549.18
-549.90
-538.28
-514.08
-478.51
-433.67
-382.19
-326.71
-269.47
-212.20
-156.16
-102.39
-51.74
-5.20
36.36
72.28
102.28
126.52
145.49
159.90
170.47
177.81
182.32
184.30
183.96
181.58
177.51
172.17
165.95
159.20
152.18
145.02
137.81
130.56
123.35
116.22
109.25
102.51
96.05
89.91
84.10
78.63
73.52
68.76
64.38
60.39
56.77
53.53
50.66
48.16
46.03
44.27
42.88
41.84
41.14
40.75
40.59
40.56
40.54
40.36
39.85
38.83
37.14
34.67
31.35
27.19
22.22
16.60
10.53
4.25
-1.95
-7.82
-13.11
-17.62
-21.20
-23.80
-25.41
-26.07
-25.90
-25.03
-23.62
-21.82
-19.75
-17.51
-15.19
-12.80
-10.40
-8.00
-5.60
-3.19
-0.74
1.76
4.34
7.02
9.81
12.69
15.61
18.56
21.53
24.54
27.59
30.72
33.99
37.46
41.06
44.78
48.60
52.53
56.61
60.86
65.33
70.08
75.21
80.56
86.05
91.63
97.27
102.98
108.74
114.59
120.56
126.73
132.83
138.66
144.03
148.73
152.51
155.02
155.80
154.17
151.47
148.18
144.59
140.86
137.11
133.41
129.78
126.21
122.72
119.30
115.61
111.37
106.32
100.27
93.03
84.49
74.62
63.50
51.31
38.10
24.05
9.42
-5.46
-20.22
-34.50
-47.92
-60.15
-70.88
-80.07
-87.73
-93.96
-98.91
-102.74
-105.61
-107.61
-108.73
-108.93
-108.18
-106.43
-103.66
-99.88
-95.15
-89.53
-83.08
-75.82
-67.80
-59.11
-49.94
-40.60
-31.47
-22.95
-15.37
-8.88
-3.45
1.04
4.71
7.56
9.39
9.85
8.56
5.26
-0.01
-6.94
-15.08
-24.02
-33.61
-44.13
-56.15
-70.32
-87.11
-106.56
-128.32
-151.73
-176.11
-201.03
-226.37
-252.44
-279.88
-309.72
-343.09
-380.69
-422.05
-464.98
-505.53
-538.77
-560.13
-566.76
-558.16
-536.07
-503.44
-463.39
-418.40
-370.26
-320.32
-269.97
-220.63
-173.71
-130.31
-91.07
-56.22
-25.66
0.85
23.72
43.34
60.14
74.55
86.98
97.77
107.17
115.38
122.37
127.98
131.96
134.16
134.58
133.51
131.47
129.05
126.79
125.01
123.75
122.78
121.66
120.03
117.64
114.53
110.92
107.08
103.20
99.38
95.65
92.04
88.64
85.43
82.29
78.98
75.36
71.47
67.69
64.50
62.25
60.95
60.24
59.54
58.31
56.20
53.18
49.48
45.56
42.01
39.34
37.71
36.89
36.22
34.88
32.37
28.72
24.55
20.80
18.19
17.04
17.10
17.88
18.88
19.85
20.78
21.79
22.92
24.10
25.08
25.60
25.41
24.42
22.74
20.65
18.62
17.08
16.27
16.18
16.49
16.77
16.70
16.25
15.64
15.17
14.97
14.95
14.82
14.33
13.38
12.10
10.69
9.38
8.25
7.33
6.56
5.91
5.30
4.66
3.94
3.21
2.69
2.66
3.34
4.73
6.63
8.67
10.49
11.89
12.85
13.48
13.94
14.38
14.88
15.48
16.11
16.61
16.77
16.43
15.53
14.21
12.78
11.62
11.01
11.08
11.77
12.86
14.10
15.19
15.93
16.24
16.15
15.78
15.28
14.71
14.02
13.08
11.76
10.03
8.01
5.96
4.20
3.09
2.85
3.59
5.21
7.43
9.90
12.25
14.24
15.72
16.65
17.03
16.87
16.28
15.46
14.71
14.26
14.16
14.19
14.03
13.35
12.04
10.31
8.50
6.96
5.86
5.17
4.73
4.38
4.01
3.64
3.23
2.68
1.87
0.70
-0.89
-2.83
-5.04
-7.41
-9.76
-11.84
-13.40
-14.15
-13.89
-12.70
-10.81
-8.60
-6.42
-4.48
-2.80
-1.28
0.16
1.53
2.73
3.65
4.21
4.43
4.50
4.78
5.68
7.53
10.33
13.70
16.91
19.19
20.04
19.60
18.54
17.77
17.95
19.24
21.21
23.20
24.58
24.97
24.13
21.63
16.88
9.37
-0.79
-12.63
-24.54
-34.92
-42.79
-47.92
-50.36
-49.84
-45.36
-35.56
-19.68
1.56
25.46
47.97
65.00
73.87
74.19
67.88
58.44
49.82
45.27
46.47
53.09
63.13
73.85
83.08
90.24
96.67
105.09
118.32
137.99
163.58
192.35
220.07
242.20
255.06
256.52
246.13
224.72
193.99
156.13
113.75
69.89
27.99
-8.51
-36.98
-56.32
-67.43
-72.87
-75.78
-78.68
-82.67
-87.31
-91.34
-93.72
-94.20
-93.47
-92.55
-92.23
-92.59
-93.06
-92.79
-91.09
-87.74
-82.96
-77.25
-71.07
-64.65
-58.01
-51.08
-43.84
-36.47
-29.19
-22.26
-15.80
-9.74
-3.82
2.24
8.77
15.94
23.69
31.74
39.53
46.34
51.48
54.44
55.06
53.58
50.50
46.40
41.72
36.71
31.40
25.83
20.14
14.59
9.50
5.09
1.32
-2.03
-5.26
-8.55
-11.78
-14.69
-16.92
-18.34
-19.06
-19.41
-19.79
-20.39
-21.25
-22.24
-23.27
-24.32
-25.49
-26.90
-28.66
-30.86
-33.47
-36.41
-39.41
-41.98
-43.52
-43.46
-41.60
-38.22
-34.09
-30.15
-27.19
-25.56
-25.13
-25.53
-26.46
-27.83
-29.83
-32.74
-36.79
-42.03
-48.25
-55.15
-62.37
-69.63
-76.82
-84.01
-91.46
-99.51
-108.37
-118.05
-128.38
-139.05
-149.88
-160.88
-172.29
-184.41
-197.37
-210.97
-224.55
-237.02
-246.96
-252.80
-253.05
-246.72
-233.53
-214.05
-189.62
-161.85
-132.19
-101.47
-69.69
-36.06
0.55
40.70
83.67
126.81
165.85
195.91
213.02
215.49
204.43
183.25
156.30
127.51
99.47
73.51
50.35
30.70
15.50
5.54
0.85
0.44
2.59
5.51
8.02
9.89
11.75
14.50
18.63
23.94
29.59
34.48
37.86
39.53
39.80
39.26
38.41
37.40
36.13
34.31
31.69
28.22
24.15
19.90
15.88
12.39
9.40
6.60
3.51
-0.25
-4.81
-9.88
-14.84
-19.01
-21.75
-22.64
-21.49
-18.35
-13.41
-7.06
0.11
7.41
14.16
19.88
24.22
27.07
28.43
28.46
27.53
26.27
25.45
25.79
27.55
30.29
33.06
34.75
34.50
32.18
28.36
24.10
20.47
18.17
17.19
16.94
16.45
14.85
11.77
7.58
3.41
0.79
1.20
5.55
13.82
25.05
37.37
48.39
55.59
57.05
52.10
42.01
29.79
19.34
13.87
14.43
19.34
24.86
27.06
23.71
15.31
4.82
-3.72
-6.74
-2.28
9.85
28.42
51.56
77.13
103.00
127.05
147.29
162.01
170.12
171.31
166.11
155.59
141.04
123.66
104.29
83.56
62.22
41.42
22.63
7.08
-4.84
-13.95
-21.69
-28.96
-34.89
-36.33
-28.71
-7.96
27.25
74.11
126.09
174.82
212.69
235.05
240.93
232.40
213.30
187.90
160.12
133.28
110.02
92.33
81.35
77.12
78.49
83.30
88.82
92.17
91.03
84.09
71.53
55.01
37.17
20.67
7.16
-3.24
-12.05
-21.68
-34.44
-51.45
-71.99
-93.35
-111.62
-123.03
-125.33
-118.74
-105.83
-90.57
-76.78
-66.91
-61.63
-60.22
-61.60
-64.92
-69.91
-76.45
-84.11
-91.92
-98.62
-103.21
-105.41
-105.83
-105.68
-106.27
-108.35
-111.82
-115.80
-119.01
-120.39
-119.58
-117.01
-113.59
-110.30
-107.64
-105.51
-103.36
-100.51
-96.55
-91.53
-85.94
-80.37
-75.39
-71.29
-68.14
-65.87
-64.30
-63.22
-62.33
-61.29
-59.72
-57.41
-54.37
-50.94
-47.60
-44.83
-42.83
-41.43
-40.24
-38.99
-37.70
-36.84
-37.15
-39.26
-43.38
-49.07
-55.37
-61.02
-65.06
-67.13
-67.70
-68.00
-69.54
-73.53
-80.29
-88.98
-97.87
-105.09
-109.46
-111.02
-110.98
-110.96
-112.13
-114.46
-116.51
-115.90
-109.98
-96.52
-74.11
-42.30
-1.97
44.52
93.19
139.07
177.27
204.37
219.38
223.70
220.03
210.92
197.66
180.23
158.25
132.18
104.16
77.76
56.85
44.31
41.07
46.04
56.74
70.17
83.54
94.71
102.11
104.69
101.87
93.72
81.09
65.57
49.15
33.64
20.15
8.86
-0.80
-9.75
-18.72
-27.86
-36.71
-44.36
-49.77
-52.10
-50.90
-46.05
-37.52
-25.10
-7.96
15.40
46.55
86.00
131.92
179.79
223.28
256.30
275.22
280.15
274.60
263.71
251.87
241.14
230.95
219.18
203.83
184.28
161.60
137.79
114.84
93.73
74.16
55.02
35.02
13.39
-9.84
-33.92
-57.63
-79.45
-97.80
-111.35
-119.79
-124.39
-127.98
-134.08
-145.18
-161.51
-180.67
-198.85
-212.76
-221.07
-224.71
-225.58
-225.04
-222.89
-217.82
-208.81
-196.80
-185.11
-178.32
-180.19
-191.15
-207.11
-220.50
-222.50
-206.11
-168.33
-111.03
-40.53
33.66
100.42
149.08
172.15
167.98
142.10
106.13
73.81
55.89
56.18
71.01
91.96
110.42
121.06
122.78
117.03
105.66
89.45
68.42
42.98
14.67
-14.22
-41.58
-66.54
-89.47
-111.03
-131.06
-147.64
-157.16
-155.18
-137.65
-102.32
-49.77
15.74
86.32
151.45
200.28
224.76
222.41
197.62
160.27
121.77
90.46
68.26
50.68
30.14
1.23
-35.52
-73.09
-101.29
-111.93
-102.97
-79.48
-51.27
-28.47
-17.56
-19.54
-30.72
-45.38
-58.53
-67.75
-73.26
-76.63
-79.13
-80.73
-80.32
-76.92
-71.04
-65.35
-63.88
-69.99
-84.40
-104.15
-123.77
-137.74
-143.13
-140.68
-133.92
-126.64
-120.87
-116.24
-111.03
-103.88
-94.65
-83.64
-70.04
-50.99
-22.74
16.61
64.14
111.64
148.09
164.32
157.23
131.10
95.24
59.43
29.82
7.43
-10.27
-26.31
-41.67
-54.78
-63.03
-64.79
-60.32
-51.02
-37.74
-19.88
3.61
32.18
61.79
85.35
95.70
89.60
70.26
46.27
27.67
21.17
27.65
43.38
63.55
85.75
110.68
139.79
171.88
201.25
219.05
217.09
191.81
145.92
87.27
25.56
-30.92
-77.20
-111.46
-134.01
-145.93
-148.55
-143.51
-132.99
-119.78
-106.78
-96.45
-90.17
-88.05
-89.12
-91.72
-94.13
-95.09
-94.18
-91.81
-89.05
-87.10
-86.83
-88.32
-90.74
-92.42
-91.40
-86.08
-75.85
-61.36
-44.31
-26.82
-10.75
2.87
13.88
22.68
29.74
35.24
38.95
40.43
39.51
36.55
32.52
28.70
26.25
25.71
26.84
28.75
30.26
30.41
28.72
25.31
20.74
15.67
10.56
5.54
0.38
-5.27
-11.73
-19.05
-26.89
-34.52
-41.01
-45.28
-46.53
-44.33
-38.78
-30.45
-20.29
-9.27
1.68
11.78
20.35
26.79
30.60
31.54
29.84
26.23
21.81
17.84
15.25
14.46
15.21
16.69
17.92
18.08
16.90
14.63
11.95
9.46
7.26
4.75
0.69
-6.14
-16.46
-29.87
-44.93
-59.53
-71.58
-79.64
-83.27
-82.87
-79.45
-74.23
-68.43
-63.04
-58.70
-55.45
-52.69
-49.32
-44.20
-36.62
-26.61
-14.76
-1.66
12.80
29.70
50.53
76.02
104.95
133.71
157.15
170.42
170.93
159.41
139.60
116.61
95.02
77.35
63.83
53.07
43.32
33.43
23.24
13.42
5.00
-1.06
-4.15
-4.00
-0.76
5.17
13.19
22.58
32.44
41.85
49.82
55.50
58.34
58.26
55.78
51.81
47.48
43.76
41.26
40.18
40.37
41.59
43.59
46.26
49.56
53.44
57.73
62.24
66.83
71.55
76.61
82.10
87.78
92.89
96.19
96.40
92.62
84.66
73.30
60.10
46.97
35.75
27.66
23.03
21.32
21.29
21.59
21.15
19.44
16.45
12.41
7.47
1.54
-5.57
-13.93
-23.36
-33.43
-43.67
-53.68
-63.21
-71.96
-79.49
-85.12
-88.20
-88.37
-85.75
-81.03
-75.36
-69.94
-65.72
-63.22
-62.48
-63.29
-65.45
-69.06
-74.57
-82.64
-93.81
-108.19
-125.29
-144.06
-162.92
-180.01
-193.27
-200.67
-200.63
-192.38
-176.13
-152.87
-124.01
-91.20
-56.28
-21.38
11.40
40.54
65.73
88.09
109.49
131.45
154.06
175.76
194.15
207.26
214.44
216.45
214.64
210.08
203.15
193.75
181.93
168.37
154.16
140.39
127.73
116.24
105.53
95.15
84.87
74.81
65.24
56.35
47.95
39.48
30.13
19.35
7.17
-5.68
-18.01
-28.68
-37.12
-43.55
-48.96
-54.68
-61.85
-70.87
-80.87
-89.58
-93.60
-89.17
-73.38
-45.35
-7.01
37.21
81.46
120.09
149.15
167.01
174.27
172.97
165.60
154.45
141.35
127.65
114.47
102.73
93.10
85.85
80.72
76.80
72.73
66.96
58.20
45.85
30.24
12.47
-5.93
-23.50
-39.28
-52.85
-64.34
-74.15
-82.80
-90.81
-98.63
-106.44
-113.97
-120.44
-124.66
-125.44
-122.11
-114.90
-104.89
-93.74
-83.11
-74.21
-67.60
-63.25
-60.72
-59.39
-58.62
-57.70
-55.96
-52.86
-48.08
-41.67
-34.08
-25.98
-18.11
-10.95
-4.69
0.79
5.79
10.53
15.03
19.25
23.01
26.21
28.82
30.90
32.51
33.75
34.70
35.42
35.93
36.10
35.64
34.10
31.12
26.57
20.73
14.18
7.64
1.83
-2.78
-6.00
-7.81
-8.36
-7.83
-6.43
-4.42
-2.14
0.02
1.61
2.34
2.22
1.61
1.26
1.99
4.35
8.33
13.30
18.22
22.09
24.26
24.61
23.40
21.07
18.02
14.58
11.02
7.61
4.61
2.19
0.35
-1.04
-2.20
-3.33
-4.45
-5.54
-6.58
-7.60
-8.74
-10.13
-11.73
-13.41
-14.84
-15.70
-15.73
-14.90
-13.36
-11.44
-9.52
-7.84
-6.46
-5.29
-4.20
-3.11
-2.09
-1.29
-0.88
-0.93
-1.35
-1.92
-2.38
-2.50
-2.22
-1.59
-0.84
-0.20
0.18
0.19
-0.14
-0.74
-1.52
-2.38
-3.20
-3.82
-4.11
-4.05
-3.82
-3.72
-4.05
-4.96
-6.27
-7.65
-8.72
-9.27
-9.28
-8.90
-8.30
-7.49
-6.46
-5.18
-3.80
-2.59
-1.88
-1.80
-2.25
-2.85
-3.17
-2.95
-2.17
-1.11
-0.19
0.19
-0.13
-1.08
-2.38
-3.58
-4.39
-4.62
-4.30
-3.61
-2.74
-1.84
-0.96
-0.14
0.57
0.96
0.78
-0.13
-1.83
-4.10
-6.62
-9.03
-11.03
-12.51
-13.52
-14.20
-14.68
-15.00
-15.05
-14.57
-13.32
-11.18
-8.25
-5.02
-2.20
-0.57
-0.71
-2.65
-5.78
-8.93
-10.77
-10.45
-8.09
-4.92
-2.80
-3.42
-7.29
-13.37
-19.44
-23.09
-22.92
-19.14
-13.42
-8.09
-5.14
-5.59
-9.39
-15.47
-21.68
-24.87
-21.24
-7.57
17.29
51.04
88.02
120.73
142.47
149.79
143.42
127.34
106.58
85.10
64.37
43.63
21.41
-2.35
-24.56
-39.17
-39.26
-20.40
16.49
64.58
113.66
154.50
182.78
200.09
211.72
222.62
234.28
244.16
247.96
242.63
228.23
207.37
183.08
156.87
128.29
96.21
60.42
22.76
-13.23
-43.76
-66.55
-81.85
-92.23
-101.42
-112.76
-128.13
-147.68
-170.34
-194.72
-219.64
-244.06
-266.62
-285.25
-297.30
-300.26
-292.77
-275.29
-249.99
-219.97
-188.07
-155.93
-123.75
-90.69
-55.59
-17.74
22.91
65.72
109.67
153.64
196.61
237.79
276.79
313.61
348.41
380.89
409.61
431.54
442.56
438.72
417.86
380.85
331.61
275.89
219.29
165.49
115.69
69.14
24.60
-18.36
-58.83
-95.16
-125.85
-150.62
-170.63
-188.04
-205.37
-224.95
-248.76
-278.22
-313.47
-352.24
-389.01
-415.51
-422.93
-405.27
-362.09
-299.29
-227.20
-156.90
-96.75
-50.46
-17.53
4.88
19.98
30.28
37.68
43.96
51.00
60.41
72.73
87.13
101.52
113.09
119.44
119.29
112.85
101.64
87.81
73.29
59.04
44.77
29.22
10.87
-11.12
-36.27
-62.70
-87.62
-108.47
-123.83
-134.05
-141.00
-147.27
-155.09
-165.49
-178.08
-191.34
-203.39
-212.88
-219.57
-224.53
-229.82
-237.69
-249.58
-265.12
-281.58
-294.21
-297.29
-285.91
-257.63
-213.66
-158.90
-101.03
-48.84
-10.02
10.84
13.69
3.35
-11.88
-22.62
-21.38
-4.63
26.75
68.95
117.68
170.18
225.38
281.96
336.26
381.37
408.62
411.00
386.49
339.00
276.52
207.62
138.48
72.26
10.47
-44.78
-89.78
-120.39
-134.28
-132.92
-121.48
-106.96
-95.35
-89.67
-89.64
-92.69
-95.78
-96.73
-94.80
-90.51
-85.04
-79.75
-75.75
-73.62
-73.32
-74.30
-75.64
-76.24
-75.10
-71.55
-65.38
-57.00
-47.30
-37.33
-28.09
-20.08
-13.34
-7.58
-2.48
2.14
6.22
9.66
12.50
14.88
17.09
19.24
21.28
22.88
23.67
23.36
21.96
19.66
16.80
13.69
10.57
7.50
4.47
1.45
-1.59
-4.62
-7.56
-10.28
-12.63
-14.53
-16.01
-17.30
-18.78
-20.84
-23.67
-26.97
-30.08
-32.03
-32.08
-30.08
-26.72
-23.35
-21.45
-22.03
-25.15
-29.80
-34.24
-36.45
-34.58
-27.50
-15.26
0.57
16.91
29.82
35.90
33.90
25.78
16.45
11.94
16.70
31.37
52.17
72.38
85.01
85.56
73.26
50.69
22.22
-7.65
-35.33
-58.34
-75.16
-85.13
-88.76
-87.86
-85.43
-84.69
-87.88
-95.31
-105.21
-114.62
-120.58
-121.43
-117.23
-109.52
-100.50
-92.17
-85.80
-81.79
-79.97
-79.82
-80.89
-82.78
-85.26
-88.11
-91.29
-94.88
-99.16
-104.57
-111.37
-119.29
-127.24
-133.41
-135.67
-132.40
-123.16
-108.90
-91.61
-73.34
-55.41
-37.83
-19.58
0.67
23.80
49.91
78.49
108.82
140.32
172.23
203.42
232.08
255.94
273.01
282.34
284.76
282.67
279.40
277.89
279.79
285.09
292.64
301.02
309.09
315.87
319.92
318.87
309.76
290.36
260.76
224.21
186.48
153.86
130.91
118.83
115.60
117.10
118.54
115.59
105.09
85.94
59.72
31.21
7.50
-4.18
0.91
23.08
58.30
99.94
141.15
176.49
202.22
215.73
214.96
198.68
167.23
123.41
72.33
20.26
-26.99
-65.53
-93.85
-112.44
-122.76
-126.38
-124.38
-117.51
-106.61
-93.14
-79.32
-67.61
-59.71
-55.54
-53.01
-48.73
-39.67
-24.72
-5.59
13.63
28.13
34.26
31.04
20.43
6.32
-7.06
-16.79
-22.10
-24.11
-24.87
-26.18
-28.74
-32.19
-35.58
-38.15
-39.78
-40.92
-42.10
-43.53
-44.86
-45.52
-45.08
-43.75
-42.31
-41.82
-43.08
-46.21
-50.56
-54.96
-58.16
-59.38
-58.49
-56.06
-53.02
-50.28
-48.19
-46.46
-44.25
-40.55
-34.74
-26.88
-17.70
-8.32
0.17
7.03
11.82
14.34
14.43
12.02
7.29
0.76
-6.80
-14.53
-21.73
-27.94
-32.80
-35.94
-36.83
-34.93
-29.83
-21.62
-10.99
0.89
12.65
23.06
31.24
36.78
39.61
39.91
37.94
33.97
28.26
21.13
13.01
4.48
-3.75
-11.07
-16.99
-21.23
-23.74
-24.60
-23.96
-22.01
-18.98
-15.21
-11.23
-7.68
-5.22
-4.40
-5.44
-8.27
-12.43
-17.20
-21.83
-25.67
-28.33
-29.71
-29.98
-29.34
-28.01
-26.06
-23.49
-20.29
-16.54
-12.50
-8.58
-5.17
-2.42
-0.33
1.29
2.56
3.35
3.30
2.00
-0.77
-4.88
-9.83
-15.06
-20.14
-24.95
-29.61
-34.08
-38.07
-40.95
-42.08
-40.99
-37.66
-32.40
-25.58
-17.48
-8.14
2.41
13.99
26.01
37.56
47.56
55.13
59.72
61.29
60.29
57.52
53.94
50.41
47.58
45.74
44.94
45.13
46.18
47.94
50.13
52.27
53.72
53.78
51.96
48.10
42.39
35.24
27.08
18.15
8.51
-1.94
-13.24
-25.23
-37.56
-49.57
-60.54
-69.82
-76.96
-81.82
-84.52
-85.29
-84.36
-81.85
-77.82
-72.35
-65.54
-57.63
-48.87
-39.62
-30.28
-21.36
-13.39
-6.86
-2.00
1.24
3.20
4.32
4.92
5.07
4.73
3.91
2.88
2.10
2.05
2.99
4.86
7.37
10.12
12.80
15.23
17.25
18.69
19.37
19.17
18.17
16.61
14.83
13.03
11.27
9.47
7.49
5.34
3.10
0.98
-0.80
-2.07
-2.81
-3.14
-3.29
-3.56
-4.18
-5.21
-6.60
-8.22
-9.94
-11.68
-13.46
-15.26
-17.10
-19.02
-21.14
-23.63
-26.63
-30.10
-33.82
-37.39
-40.45
-42.85
-44.65
-46.08
-47.30
-48.29
-48.81
-48.56
-47.35
-45.31
-42.75
-40.18
-38.09
-36.71
-35.94
-35.31
-34.06
-31.31
-26.31
-18.70
-8.55
3.57
16.80
30.17
42.90
54.52
64.97
74.42
83.10
90.97
97.57
102.17
103.86
101.95
96.22
87.03
75.22
61.85
48.03
34.54
21.92
10.48
0.45
-7.91
-14.39
-18.79
-21.12
-21.71
-21.12
-20.12
-19.41
-19.40
-20.11
-21.22
-22.23
-22.76
-22.65
-22.02
-21.14
-20.28
-19.54
-18.89
-18.20
-17.37
-16.45
-15.65
-15.23
-15.39
-16.07
-16.99
-17.69
-17.72
-16.89
-15.35
-13.49
-11.75
-10.39
-9.37
-8.48
-7.57
-6.63
-5.84
-5.41
-5.42
-5.65
-5.75
-5.42
-4.57
-3.36
-2.20
-1.42
-1.22
-1.58
-2.33
-3.29
-4.21
-4.89
-5.21
-5.09
-4.59
-3.89
-3.27
-3.02
-3.36
-4.32
-5.77
-7.54
-9.43
-11.29
-12.96
-14.25
-15.00
-15.10
-14.63
-13.79
-12.92
-12.31
-12.14
-12.42
-13.04
-13.74
-14.15
-13.90
-12.66
-10.33
-7.10
-3.49
-0.10
2.64
4.58
5.94
6.98
7.83
8.39
8.37
7.55
6.01
4.11
2.41
1.40
1.29
2.04
3.36
4.96
6.57
7.96
8.93
9.33
9.05
8.18
6.94
5.66
4.58
3.81
3.28
2.92
2.75
2.97
3.79
5.26
7.13
8.85
9.77
9.43
7.77
5.18
2.32
-0.07
-1.49
-1.84
-1.40
-0.60
0.17
0.79
1.41
2.46
4.38
7.47
11.73
16.89
22.29
27.01
30.00
30.44
28.00
23.09
16.66
9.86
3.52
-2.03
-6.85
-11.05
-14.51
-16.85
-17.76
-17.30
-16.01
-14.69
-13.93
-13.83
-13.94
-13.65
-12.49
-10.55
-8.25
-6.14
-4.65
-3.84
-3.52
-3.33
-3.01
-2.45
-1.70
-0.90
-0.19
0.37
0.80
1.12
1.32
1.30
1.00
0.39
-0.43
-1.29
-1.99
-2.45
-2.72
-2.95
-3.33
-3.93
-4.70
-5.46
-6.03
-6.33
-6.46
-6.63
-7.07
-7.85
-8.82
-9.73
-10.28
-10.32
-9.95
-9.40
-8.93
-8.61
-8.25
-7.58
-6.34
-4.62
-2.78
-1.31
-0.52
-0.41
-0.66
-0.83
-0.67
-0.21
0.28
0.51
0.38
0.03
-0.32
-0.47
-0.43
-0.36
-0.46
-0.84
-1.43
-2.03
-2.40
-2.35
-1.86
-1.09
-0.31
0.18
0.19
-0.25
-0.93
-1.55
-1.80
-1.50
-0.70
0.39
1.47
2.31
2.86
3.25
3.66
4.21
4.88
5.51
5.93
6.13
6.18
6.30
6.60
7.08
7.66
8.23
8.83
9.62
10.81
12.44
14.38
16.29
17.77
18.56
18.61
18.07
17.20
16.26
15.38
14.54
13.62
12.44
10.91
8.98
6.69
4.09
1.23
-1.84
-4.96
-7.95
-10.55
-12.47
-13.53
-13.60
-12.67
-10.84
-8.31
-5.42
-2.61
-0.34
1.02
1.32
0.67
-0.51
-1.74
-2.54
-2.62
-1.91
-0.61
0.91
2.18
2.77
2.48
1.46
0.22
-0.52
-0.21
1.18
2.98
3.96
2.87
-1.06
-7.70
-16.07
-24.74
-32.28
-37.69
-40.44
-40.32
-37.20
-30.85
-20.96
-7.31
10.02
30.34
52.13
72.94
89.65
98.95
98.14
85.96
63.24
33.12
0.49
-29.17
-51.16
-62.83
-64.09
-57.10
-45.26
-31.93
-19.67
-9.84
-2.92
1.11
2.42
1.34
-1.54
-5.26
-8.70
-10.90
-11.43
-10.49
-8.82
-7.38
-7.03
-8.15
-10.62
-13.77
-16.67
-18.47
-18.60
-17.09
-14.43
-11.43
-8.89
-7.31
-6.74
-6.93
-7.35
-7.55
-7.30
-6.63
-5.75
-4.92
-4.24
-3.77
-3.46
-3.22
-3.03
-2.84
-2.64
-2.42
-2.19
-1.99
-1.82
-1.65
-1.39
-0.92
-0.23
0.55
1.21
1.55
1.56
1.47
1.55
1.97
2.62
3.15
3.21
2.61
1.45
0.06
-1.18
-2.00
-2.31
-2.13
-1.63
-0.99
-0.48
-0.31
-0.56
-1.15
-1.89
-2.56
-3.03
-3.27
-3.30
-3.10
-2.58
-1.70
-0.54
0.64
1.52
1.91
1.81
1.47
1.17
1.10
1.22
1.44
1.64
1.79
1.91
1.95
1.82
1.39
0.61
-0.50
-1.78
-2.99
-3.90
-4.29
-4.14
-3.53
-2.71
-1.98
-1.57
-1.56
-1.86
-2.13
-2.06
-1.44
-0.31
1.00
2.06
2.52
2.25
1.46
0.51
-0.15
-0.24
0.28
1.21
2.17
2.80
2.88
2.41
1.55
0.62
-0.10
-0.37
-0.15
0.38
0.91
1.10
0.76
-0.10
-1.26
-2.39
-3.17
-3.41
-3.08
-2.27
-1.21
-0.16
0.71
1.33
1.67
1.79
1.69
1.33
0.72
-0.09
-0.90
-1.42
-1.45
-1.01
-0.38
0.02
-0.14
-0.87
-1.86
-2.62
-2.77
-2.19
-1.10
0.03
0.75
0.86
0.42
-0.26
-0.77
-0.81
-0.30
0.62
1.64
2.41
2.63
2.23
1.40
0.43
-0.37
-0.81
-0.79
-0.35
0.42
1.41
2.45
3.33
3.84
3.89
3.53
2.91
2.24
1.61
1.04
0.54
0.19
0.15
0.59
1.61
3.04
4.54
5.69
6.10
5.62
4.34
2.67
1.18
0.39
0.56
1.66
3.27
4.93
6.28
7.15
7.56
7.46
6.68
4.96
2.22
-1.30
-5.02
-8.20
-10.30
-11.12
-10.82
-9.75
-8.23
-6.50
-4.71
-3.02
-1.55
-0.45
0.19
0.43
0.39
0.35
0.57
1.22
2.33
3.72
5.10
6.18
6.79
6.93
6.82
6.79
7.10
7.87
9.05
10.48
11.96
13.40
14.70
15.79
16.50
16.71
16.48
16.15
16.33
17.57
19.92
22.55
23.83
21.93
15.63
5.06
-8.16
-21.41
-31.89
-37.52
-37.52
-32.31
-23.34
-12.57
-2.10
6.13
10.47
9.97
4.52
-4.91
-16.29
-27.02
-34.68
-37.68
-35.83
-30.16
-22.47
-14.57
-7.72
-2.45
1.25
3.57
4.60
4.32
2.72
0.01
-3.32
-6.58
-9.04
-10.29
-10.21
-9.08
-7.35
-5.43
-3.51
-1.53
0.57
2.75
4.66
5.89
6.11
5.35
4.00
2.59
1.50
0.82
0.41
0.05
-0.27
-0.43
-0.21
0.44
1.43
2.46
3.27
3.74
3.93
4.03
4.11
4.16
4.04
3.61
2.84
1.81
0.71
-0.29
-1.12
-1.83
-2.51
-3.17
-3.66
-3.83
-3.54
-2.84
-1.95
-1.15
-0.63
-0.38
-0.28
-0.10
0.28
0.84
1.46
2.02
2.41
2.61
2.58
2.28
1.70
0.91
0.14
-0.25
0.01
0.96
2.38
3.79
4.69
4.77
3.98
2.57
0.98
-0.36
-1.16
-1.36
-1.13
-0.70
-0.34
-0.21
-0.37
-0.68
-1.02
-1.27
-1.33
-1.22
-1.00
-0.73
-0.47
-0.19
0.14
0.56
1.08
1.60
1.93
1.92
1.56
0.99
0.51
0.38
0.68
1.28
1.91
2.28
2.28
1.92
1.33
0.66
0.00
-0.59
-1.13
-1.60
-2.01
-2.35
-2.68
-3.03
-3.36
-3.59
-3.57
-3.21
-2.55
-1.83
-1.41
-1.68
-2.81
-4.73
-7.04
-9.20
-10.67
-11.11
-10.48
-8.99
-7.08
-5.15
-3.54
-2.43
-1.81
-1.54
-1.34
-0.92
-0.01
1.53
3.74
6.51
9.67
12.98
16.23
19.29
22.11
24.72
27.15
29.33
31.08
32.12
32.31
31.64
30.37
28.86
27.45
26.28
25.19
23.87
22.04
19.60
16.77
13.90
11.40
9.48
8.14
7.22
6.48
5.78
5.07
4.30
3.38
2.17
0.56
-1.37
-3.33
-4.91
-5.74
-5.69
-4.92
-3.81
-2.81
-2.28
-2.35
-2.91
-3.70
-4.38
-4.65
-4.41
-3.76
-3.00
-2.52
-2.52
-2.97
-3.61
-4.08
-4.21
-4.18
-4.30
-4.99
-6.41
-8.35
-10.29
-11.66
-12.02
-11.22
-9.49
-7.23
-4.94
-3.02
-1.75
-1.17
-1.03
-0.82
0.22
2.77
7.20
13.12
19.29
23.65
23.90
18.38
6.86
-9.04
-26.17
-40.90
-50.31
-53.19
-50.24
-43.71
-36.45
-30.96
-28.71
-29.86
-33.27
-37.05
-39.16
-38.15
-33.68
-26.49
-18.05
-9.85
-2.94
2.23
5.53
6.79
5.85
2.81
-1.67
-6.39
-9.92
-11.23
-10.08
-7.05
-3.20
0.45
3.23
4.95
5.78
6.04
6.14
6.49
7.29
8.51
9.85
10.84
11.12
10.61
9.56
8.40
7.49
6.93
6.53
6.04
5.28
4.35
3.53
3.16
3.35
3.93
4.52
4.65
3.99
2.50
0.44
-1.75
-3.59
-4.66
-4.79
-4.02
-2.64
-1.10
0.14
0.75
0.70
0.22
-0.25
-0.26
0.40
1.72
3.38
5.05
6.41
7.30
7.64
7.36
6.48
5.13
3.63
2.40
1.85
2.12
3.03
4.16
5.09
5.55
5.49
5.09
4.54
3.99
3.44
2.87
2.23
1.52
0.76
-0.08
-1.03
-2.14
-3.37
-4.57
-5.49
-5.86
-5.53
-4.55
-3.21
-1.88
-0.87
-0.32
-0.10
0.11
0.59
1.47
2.67
3.95
5.02
5.65
5.78
5.55
5.22
5.03
5.07
5.33
5.63
5.76
5.62
5.23
4.78
4.40
4.16
3.96
3.67
3.23
2.75
2.40
2.36
2.66
3.09
3.33
3.05
2.12
0.69
-0.86
-2.14
-2.81
-2.75
-2.00
-0.73
0.78
2.23
3.29
3.71
3.46
2.74
1.92
1.32
1.10
1.14
1.23
1.20
1.12
1.22
1.70
2.55
3.43
3.97
3.88
3.20
2.21
1.24
0.52
0.05
-0.35
-0.82
-1.41
-2.04
-2.60
-3.04
-3.28
-3.32
-3.16
-2.79
-2.24
-1.60
-0.93
-0.33
0.16
0.50
0.64
0.62
0.53
0.57
0.95
1.75
2.77
3.64
3.90
3.32
2.10
0.73
-0.16
-0.23
0.46
1.52
2.48
3.10
3.45
3.78
4.21
4.64
4.71
4.11
2.79
1.10
-0.38
-1.13
-1.00
-0.25
0.58
1.00
0.84
0.23
-0.56
-1.35
-2.10
-2.78
-3.34
-3.51
-3.06
-2.01
-0.69
0.28
0.31
-0.87
-3.01
-5.53
-7.76
-9.23
-9.80
-9.63
-9.05
-8.50
-8.32
-8.75
-9.89
-11.61
-13.71
-15.95
-18.22
-20.50
-22.83
-25.25
-27.71
-30.10
-32.34
-34.50
-36.82
-39.65
-43.33
-47.97
-53.49
-59.55
-65.71
-71.47
-76.40
-80.39
-83.68
-87.03
-91.32
-97.27
-104.97
-113.81
-122.74
-130.96
-138.54
-146.35
-155.45
-165.89
-175.80
-181.46
-178.36
-162.77
-133.11
-90.35
-37.74
19.84
76.57
126.16
162.60
181.39
181.24
165.47
142.01
121.31
112.62
120.32
142.09
170.02
194.41
207.88
208.38
199.08
186.07
175.01
168.84
167.29
168.18
169.26
169.33
168.17
165.82
161.91
155.72
146.75
135.29
122.51
109.95
98.67
88.72
79.22
68.97
57.15
43.65
29.11
14.36
0.15
-13.12
-25.09
-35.26
-42.93
-47.37
-48.25
-46.02
-42.10
-38.72
-38.37
-43.00
-53.24
-68.09
-85.16
-101.49
-114.68
-123.83
-129.68
-134.28
-140.32
-150.30
-165.90
-187.18
-211.78
-234.69
-248.92
-247.69
-227.50
-190.45
-144.29
-99.62
-65.40
-45.20
-36.28
-31.83
-24.96
-12.09
6.15
26.54
45.78
62.25
76.01
87.42
96.06
100.53
99.35
92.28
80.95
68.33
57.60
50.99
49.06
50.84
54.39
57.59
58.94
57.86
54.64
50.18
45.45
41.00
36.80
32.41
27.44
22.01
16.91
13.35
12.44
14.63
19.44
25.44
30.66
33.21
31.85
26.24
17.00
5.44
-6.89
-18.57
-28.55
-36.19
-41.25
-43.74
-43.86
-41.91
-38.22
-33.15
-26.97
-19.89
-11.99
-3.43
5.46
14.13
21.89
28.08
32.36
34.85
36.12
37.03
38.38
40.68
44.00
48.04
52.44
56.96
61.67
66.83
72.83
79.92
88.22
97.69
107.98
118.40
127.68
134.16
136.07
132.24
122.59
108.37
91.70
74.82
59.26
45.47
32.88
20.55
7.77
-5.53
-18.87
-31.53
-42.95
-52.92
-61.54
-69.04
-75.52
-80.95
-85.25
-88.48
-90.95
-93.12
-95.41
-98.01
-100.69
-102.97
-104.35
-104.55
-103.69
-102.19
-100.66
-99.55
-99.06
-99.00
-98.94
-98.33
-96.74
-94.02
-90.27
-85.83
-81.14
-76.57
-72.34
-68.59
-65.38
-62.81
-61.01
-60.06
-59.94
-60.48
-61.36
-62.24
-62.95
-63.62
-64.63
-66.49
-69.65
-74.35
-80.46
-87.59
-95.17
-102.72
-110.07
-117.40
-125.15
-133.61
-142.66
-151.45
-158.53
-162.29
-161.45
-155.45
-144.54
-129.60
-111.80
-92.27
-72.06
-52.09
-33.33
-16.80
-3.45
6.07
11.56
13.55
13.13
11.80
10.89
11.23
12.81
14.95
16.70
17.32
16.69
15.32
14.06
13.68
14.57
16.72
19.86
23.58
27.38
30.60
32.37
31.92
29.18
25.13
21.89
22.07
27.77
39.59
56.33
75.49
94.25
110.64
123.95
134.65
143.69
151.82
159.22
165.61
170.56
173.83
175.44
175.65
174.70
172.74
169.66
165.32
159.72
153.11
146.03
139.11
132.84
127.31
122.09
116.37
109.33
100.54
90.15
78.87
67.59
56.92
46.96
37.33
27.48
17.23
6.90
-2.65
-10.44
-15.79
-18.58
-19.25
-18.52
-17.02
-15.08
-12.77
-10.06
-7.00
-3.86
-1.02
1.17
2.56
3.24
3.57
3.90
4.46
5.31
6.26
6.99
7.11
6.28
4.30
1.23
-2.68
-7.02
-11.40
-15.60
-19.53
-23.22
-26.72
-30.11
-33.51
-37.10
-41.03
-45.34
-49.83
-53.99
-57.23
-59.04
-59.28
-58.24
-56.50
-54.60
-52.81
-51.08
-49.15
-46.84
-44.18
-41.41
-38.80
-36.38
-33.90
-30.83
-26.68
-21.10
-14.05
-5.59
4.23
15.44
27.96
41.44
55.13
68.07
79.33
88.29
94.76
98.81
100.66
100.56
98.82
95.87
92.41
89.20
86.80
85.33
84.26
82.69
79.64
74.56
67.68
59.89
52.51
46.75
43.24
41.86
41.82
42.16
42.13
41.40
40.07
38.51
37.05
35.95
35.41
35.47
35.94
36.17
35.05
31.21
23.71
12.51
-1.17
-15.23
-27.55
-36.86
-43.34
-48.28
-53.44
-59.92
-67.60
-75.16
-80.67
-82.60
-80.60
-75.78
-70.37
-66.75
-66.42
-69.12
-72.62
-73.13
-66.17
-47.58
-14.48
33.62
94.19
161.23
226.09
279.45
314.05
327.15
321.35
303.33
280.95
260.18
243.27
228.97
214.26
196.44
174.42
148.95
121.93
95.63
72.15
53.19
39.88
32.44
29.98
30.41
30.90
28.69
22.02
10.73
-3.67
-18.61
-31.34
-39.85
-43.43
-42.77
-39.57
-35.98
-34.03
-35.10
-39.81
-47.87
-58.31
-69.71
-80.65
-90.06
-97.57
-103.50
-108.60
-113.64
-119.03
-124.59
-129.65
-133.36
-135.04
-134.61
-132.62
-130.12
-128.33
-128.13
-129.73
-132.65
-135.83
-138.11
-138.48
-136.39
-131.72
-124.75
-116.04
-106.34
-96.48
-87.30
-79.37
-72.73
-66.81
-60.45
-52.28
-41.10
-26.29
-7.94
13.16
35.65
57.77
77.51
92.93
102.48
105.53
102.55
95.12
85.39
75.35
66.23
58.25
50.89
43.40
35.36
26.89
18.49
10.68
3.74
-2.41
-8.02
-13.21
-17.79
-21.29
-23.19
-23.25
-21.71
-19.34
-17.18
-16.17
-16.89
-19.31
-22.99
-27.26
-31.56
-35.55
-39.17
-42.49
-45.59
-48.53
-51.36
-54.17
-57.06
-60.14
-63.41
-66.80
-70.27
-73.76
-77.31
-81.03
-85.04
-89.39
-93.99
-98.61
-102.91
-106.55
-109.25
-110.92
-111.53
-111.13
-109.76
-107.40
-104.04
-99.72
-94.56
-88.78
-82.62
-76.32
-70.10
-64.20
-58.87
-54.35
-50.68
-47.54
-44.01
-38.74
-30.19
-16.99
1.46
24.64
50.91
77.74
102.48
122.98
138.15
147.88
152.70
153.19
149.77
142.84
133.23
122.40
112.30
104.76
100.69
99.75
100.68
102.01
102.93
103.57
104.66
106.85
109.96
112.99
114.42
112.96
108.04
99.74
88.33
73.84
55.99
34.62
10.36
-14.92
-38.28
-56.55
-67.27
-69.54
-64.13
-53.03
-38.72
-23.63
-9.97
0.19
4.89
2.45
-7.89
-25.48
-48.01
-72.03
-93.75
-110.11
-119.45
-121.56
-117.25
-107.71
-94.10
-77.47
-58.94
-39.95
-22.19
-7.33
3.48
9.92
12.50
12.37
10.88
9.15
8.00
7.84
8.85
11.04
14.32
18.42
22.84
26.94
30.16
32.16
32.87
32.45
31.07
28.81
25.62
21.49
16.59
11.29
6.12
1.56
-2.06
-4.67
-6.28
-6.93
-6.64
-5.51
-3.78
-1.86
-0.26
0.55
0.39
-0.61
-2.02
-3.19
-3.53
-2.69
-0.73
1.96
4.81
7.33
9.29
10.69
11.63
12.13
12.04
11.16
9.49
7.42
5.66
4.94
5.69
7.67
10.07
11.74
11.75
9.67
5.73
0.68
-4.54
-9.00
-12.15
-13.73
-13.81
-12.52
-10.14
-7.02
-3.66
-0.69
1.34
2.01
1.35
-0.23
-1.97
-3.15
-3.36
-2.58
-1.19
0.25
1.29
1.66
1.32
0.34
-1.14
-2.93
-4.75
-6.28
-7.19
-7.25
-6.41
-4.87
-2.98
-1.13
0.26
0.96
0.86
0.15
-0.76
-1.28
-0.82
1.00
4.25
8.60
13.60
18.79
23.89
28.77
33.43
37.80
41.73
45.13
48.00
50.51
52.96
55.63
58.64
61.97
65.43
68.74
71.44
72.86
72.11
68.29
60.76
49.60
35.70
20.66
6.28
-5.94
-15.36
-22.19
-27.23
-31.40
-35.23
-38.84
-42.06
-44.77
-47.05
-49.19
-51.44
-53.71
-55.64
-56.73
-56.76
-55.94
-54.90
-54.35
-54.69
-55.75
-56.85
-57.14
-55.85
-52.61
-47.53
-41.09
-34.09
-27.42
-21.83
-17.82
-15.47
-14.56
-14.67
-15.41
-16.50
-17.81
-19.21
-20.61
-21.84
-22.76
-23.24
-23.28
-22.97
-22.47
-21.95
-21.43
-20.80
-19.72
-17.74
-14.55
-10.18
-5.14
-0.31
3.44
5.54
6.07
5.57
4.82
4.47
4.75
5.51
6.27
6.50
5.81
4.10
1.61
-1.14
-3.52
-5.00
-5.44
-5.10
-4.52
-4.19
-4.22
-4.37
-4.13
-3.19
-1.68
-0.25
0.25
-0.78
-3.33
-6.84
-10.48
-13.49
-15.54
-16.68
-17.16
-17.26
-17.18
-17.09
-17.15
-17.45
-17.93
-18.31
-18.21
-17.40
-15.97
-14.36
-13.20
-12.92
-13.68
-15.29
-17.37
-19.65
-21.97
-24.24
-26.32
-27.91
-28.65
-28.24
-26.76
-24.61
-22.47
-21.08
-20.93
-22.14
-24.37
-27.01
-29.42
-31.12
-31.98
-32.13
-31.84
-31.34
-30.72
-29.96
-28.91
-27.45
-25.54
-23.31
-21.11
-19.43
-18.83
-19.72
-22.27
-26.27
-31.22
-36.42
-41.16
-44.89
-47.41
-49.02
-50.44
-52.51
-55.71
-59.80
-63.74
-66.08
-65.64
-62.18
-56.60
-50.64
-46.07
-43.91
-44.10
-45.63
-47.10
-47.46
-46.21
-43.39
-39.18
-33.52
-26.03
-16.26
-4.01
10.44
26.21
42.06
56.71
69.20
79.04
86.27
91.47
95.58
99.90
105.77
114.29
125.91
140.06
155.00
168.11
176.35
177.15
169.35
153.77
133.24
111.82
93.59
81.34
75.75
75.45
77.67
79.43
78.47
73.82
65.76
55.34
43.76
31.99
20.63
10.07
0.71
-6.99
-12.66
-16.34
-18.65
-20.78
-24.05
-29.40
-37.00
-46.16
-55.75
-64.76
-72.74
-79.88
-86.73
-93.71
-100.75
-107.21
-112.14
-114.52
-113.63
-109.17
-101.29
-90.65
-78.24
-65.31
-53.18
-42.95
-35.30
-30.34
-27.65
-26.40
-25.70
-24.79
-23.24
-21.11
-18.79
-16.85
-15.82
-15.91
-17.03
-18.81
-20.83
-22.71
-24.22
-25.13
-25.18
-24.02
-21.33
-17.03
-11.40
-5.00
1.42
7.32
12.50
17.13
21.56
26.03
30.55
34.98
39.16
43.19
47.52
52.79
59.60
68.17
78.34
89.67
101.71
114.23
127.12
140.33
153.65
166.68
179.08
190.62
201.22
210.77
218.88
224.74
227.39
226.25
221.69
215.21
208.91
204.34
201.51
198.46
191.86
178.43
156.34
126.08
90.29
52.62
16.41
-16.40
-45.43
-71.35
-94.94
-116.46
-135.41
-150.85
-162.06
-168.96
-172.26
-173.23
-173.12
-172.52
-171.28
-168.62
-163.70
-156.21
-146.51
-135.53
-124.23
-113.13
-102.14
-90.77
-78.73
-66.18
-53.94
-42.98
-33.86
-26.38
-19.52
-11.95
-2.68
8.41
20.56
32.37
42.41
49.60
53.44
53.97
51.50
46.54
39.71
31.77
23.52
15.77
9.12
3.77
-0.41
-3.84
-7.05
-10.51
-14.54
-19.34
-24.99
-31.40
-38.41
-45.69
-52.85
-59.49
-65.24
-69.84
-73.04
-74.65
-74.53
-72.62
-68.99
-63.88
-57.64
-50.56
-42.95
-34.96
-26.70
-18.25
-9.67
-1.01
7.69
16.33
24.74
32.50
39.00
43.62
45.80
45.23
41.88
36.12
28.68
20.77
13.90
9.59
8.87
11.79
17.28
23.36
27.68
28.19
23.69
13.95
-0.30
-17.53
-35.64
-52.38
-65.84
-74.97
-79.86
-81.68
-81.97
-82.05
-82.47
-83.10
-83.38
-82.91
-81.60
-79.65
-77.36
-74.85
-72.05
-68.73
-64.70
-60.00
-54.97
-50.23
-46.45
-44.08
-43.12
-43.01
-42.89
-42.00
-39.94
-36.86
-33.19
-29.40
-25.65
-21.86
-17.92
-13.86
-9.90
-6.36
-3.41
-1.03
0.98
2.80
4.55
6.20
7.66
8.84
9.70
10.20
10.35
10.25
10.23
10.87
12.95
17.22
24.09
33.44
44.40
55.63
65.55
72.79
76.61
77.06
74.93
71.46
67.86
64.94
62.83
61.14
59.27
56.94
54.51
52.95
53.29
55.86
59.66
62.41
61.27
54.07
40.38
21.87
1.90
-15.65
-27.59
-32.33
-30.23
-23.54
-15.65
-10.27
-10.18
-16.16
-26.62
-37.80
-45.16
-45.08
-36.28
-20.76
-3.43
9.25
11.56
0.70
-21.97
-51.60
-82.08
-108.79
-130.47
-148.74
-165.61
-180.58
-189.38
-185.31
-162.92
-121.54
-66.71
-8.77
40.81
73.25
84.74
76.54
53.67
22.64
-10.16
-39.67
-62.81
-78.44
-87.18
-90.89
-92.03
-93.17
-96.57
-103.98
-116.46
-134.14
-155.99
-179.86
-202.82
-221.73
-233.89
-237.63
-232.54
-219.44
-200.00
-176.23
-150.12
-123.32
-97.04
-72.14
-49.11
-28.07
-8.79
9.36
27.27
45.74
65.22
85.60
106.13
125.64
142.94
157.17
168.11
176.08
181.62
185.16
186.68
185.85
182.24
175.63
166.17
154.21
140.17
124.23
106.42
86.81
65.82
44.37
23.74
5.14
-10.67
-23.62
-34.27
-43.47
-52.12
-61.03
-70.85
-82.10
-94.89
-108.52
-121.29
-130.69
-134.10
-129.78
-117.64
-99.35
-77.62
-55.24
-34.19
-15.31
1.33
15.93
28.56
39.10
47.55
54.28
60.17
66.23
73.22
81.27
89.79
97.77
104.15
108.36
110.40
110.90
110.60
110.03
109.24
107.80
105.11
100.86
95.26
89.00
82.88
77.41
72.60
67.95
62.85
56.97
50.46
43.88
37.85
32.67
28.21
23.99
19.40
13.78
6.58
-2.68
-14.18
-27.49
-41.25
-53.23
-60.83
-62.02
-56.14
-44.23
-28.54
-11.66
4.45
18.85
31.42
42.36
51.66
59.06
64.30
67.49
69.15
70.08
71.07
72.58
74.75
77.43
80.34
83.07
85.20
86.27
86.04
84.48
81.87
78.66
75.30
71.97
68.59
64.83
60.35
54.98
48.81
42.17
35.37
28.61
21.88
15.07
8.05
0.75
-6.83
-14.81
-23.47
-33.09
-43.55
-53.97
-62.59
-67.31
-66.34
-59.09
-46.45
-30.50
-13.80
1.53
14.23
23.96
30.97
35.69
38.50
39.66
39.57
38.78
38.06
38.08
39.31
41.79
45.14
48.72
51.84
54.00
55.07
55.23
54.80
53.97
52.62
50.21
46.11
39.94
32.00
23.36
15.62
10.27
8.03
8.70
11.31
14.77
18.21
21.01
22.53
21.81
17.84
10.14
-0.56
-12.26
-22.33
-28.63
-30.45
-28.68
-25.19
-21.75
-19.23
-17.53
-16.01
-14.12
-11.74
-9.05
-6.25
-3.27
0.14
4.23
8.94
13.89
18.51
22.36
25.26
27.33
28.80
29.75
30.07
29.52
27.95
25.43
22.24
18.67
14.94
11.05
6.99
2.72
-1.72
-6.35
-11.31
-16.68
-22.26
-27.32
-30.60
-30.71
-26.66
-18.40
-6.94
5.97
18.47
29.08
37.05
42.28
45.05
45.77
44.91
42.93
40.29
37.47
34.83
32.54
30.56
28.72
26.78
24.58
22.09
19.31
16.30
13.08
9.72
6.26
2.82
-0.47
-3.53
-6.31
-8.86
-11.34
-13.94
-16.81
-20.12
-24.05
-28.68
-33.93
-39.37
-44.12
-47.01
-46.87
-42.98
-35.42
-25.09
-13.47
-2.17
7.56
15.04
20.22
23.45
25.26
26.15
26.44
26.37
26.02
25.50
24.86
24.12
23.23
22.03
20.34
18.06
15.27
12.21
9.13
6.20
3.32
0.30
-3.04
-6.74
-10.63
-14.55
-18.45
-22.39
-26.59
-31.17
-36.12
-41.34
-46.62
-51.62
-55.77
-58.21
-57.90
-54.02
-46.41
-35.83
-23.81
-12.20
-2.52
4.40
8.46
10.06
9.80
8.33
6.28
4.38
3.30
3.55
5.18
7.80
10.64
12.88
13.95
13.72
12.60
11.38
11.06
12.51
16.16
21.91
29.13
36.98
44.74
51.94
58.42
64.17
69.11
73.03
75.63
76.67
76.07
73.86
70.21
65.19
58.89
51.50
43.49
35.68
29.03
24.31
21.63
20.32
19.02
16.13
10.50
1.88
-8.86
-20.02
-29.38
-34.81
-34.71
-28.53
-17.05
-2.27
13.01
25.98
34.67
38.46
38.06
35.00
30.91
26.92
23.34
19.70
15.17
8.93
0.58
-9.67
-21.08
-32.63
-43.37
-52.61
-59.99
-65.23
-67.99
-67.92
-64.87
-59.17
-51.68
-43.65
-36.32
-30.55
-26.66
-24.49
-23.55
-23.20
-22.71
-21.38
-18.72
-14.58
-9.33
-3.73
1.32
5.09
7.26
7.82
7.05
5.23
2.57
-0.76
-4.61
-8.79
-13.12
-17.41
-21.45
-24.95
-27.62
-29.12
-29.30
-28.29
-26.37
-23.96
-21.34
-18.66
-16.00
-13.49
-11.38
-9.97
-9.35
-9.33
-9.43
-9.08
-7.91
-6.01
-3.83
-1.95
-0.80
-0.43
-0.56
-0.78
-0.77
-0.46
0.00
0.40
0.52
0.30
-0.18
-0.85
-1.67
-2.70
-4.04
-5.71
-7.67
-9.67
-11.42
-12.59
-13.00
-12.63
-11.58
-10.03
-8.10
-5.87
-3.42
-0.92
1.33
2.97
3.73
3.55
2.62
1.40
0.34
-0.25
-0.34
-0.18
-0.11
-0.36
-0.96
-1.71
-2.33
-2.65
-2.68
-2.58
-2.57
-2.81
-3.32
-4.06
-5.00
-6.19
-7.66
-9.35
-11.05
-12.49
-13.43
-13.74
-13.49
-12.80
-11.77
-10.43
-8.76
-6.78
-4.68
-2.72
-1.19
-0.28
0.06
-0.04
-0.33
-0.64
-0.88
-1.01
-1.00
-0.89
-0.71
-0.53
-0.43
-0.47
-0.59
-0.74
-0.87
-1.02
-1.26
-1.66
-2.22
-2.91
-3.70
-4.62
-5.79
-7.23
-8.81
-10.18
-10.88
-10.57
-9.30
-7.43
-5.55
-4.14
-3.41
-3.20
-3.11
-2.82
-2.15
-1.23
-0.38
0.01
-0.26
-1.08
-2.06
-2.68
-2.62
-1.85
-0.70
0.39
1.06
1.28
1.30
1.41
1.78
2.29
2.59
2.33
1.34
-0.31
-2.36
-4.54
-6.64
-8.60
-10.40
-12.02
-13.37
-14.20
-14.28
-13.40
-11.56
-8.97
-6.07
-3.36
-1.22
0.20
0.98
1.38
1.59
1.76
1.93
2.13
2.41
2.86
3.50
4.22
4.83
5.16
5.11
4.71
4.14
3.60
3.21
2.96
2.68
2.13
1.16
-0.26
-2.08
-4.12
-6.22
-8.23
-10.02
-11.50
-12.60
-13.20
-13.21
-12.59
-11.38
-9.66
-7.59
-5.26
-2.80
-0.36
1.85
3.64
4.81
5.28
5.07
4.40
3.57
2.90
2.63
2.82
3.35
3.96
4.38
4.42
4.06
3.36
2.49
1.59
0.80
0.21
-0.15
-0.33
-0.47
-0.78
-1.47
-2.61
-4.08
-5.58
-6.88
-7.87
-8.64
-9.39
-10.19
-10.87
-11.09
-10.50
-8.97
-6.67
-4.00
-1.39
0.88
2.74
4.21
5.32
6.07
6.42
6.37
6.07
5.75
5.67
5.93
6.48
7.12
7.56
7.64
7.35
6.86
6.41
6.17
6.09
5.99
5.66
5.03
4.21
3.48
3.01
2.78
2.59
2.12
1.19
-0.18
-1.85
-3.71
-5.70
-7.89
-10.29
-12.69
-14.78
-16.20
-16.74
-16.42
-15.46
-14.12
-12.58
-10.83
-8.82
-6.47
-3.80
-1.01
1.59
3.66
4.97
5.43
5.19
4.54
3.80
3.30
3.20
3.57
4.34
5.38
6.54
7.67
8.60
9.18
9.25
8.76
7.75
6.41
5.04
3.86
3.03
2.50
2.13
1.73
1.24
0.66
0.05
-0.66
-1.64
-3.13
-5.24
-7.80
-10.42
-12.57
-13.85
-14.15
-13.60
-12.56
-11.30
-9.96
-8.48
-6.74
-4.65
-2.31
0.03
2.06
3.46
4.12
4.08
3.56
2.87
2.33
2.15
2.38
2.92
3.59
4.26
4.86
5.44
6.00
6.49
6.74
6.58
5.95
4.96
3.92
3.16
2.87
2.97
3.21
3.25
2.90
2.13
1.08
-0.07
-1.15
-2.09
-2.89
-3.67
-4.52
-5.57
-6.89
-8.41
-9.92
-11.12
-11.73
-11.57
-10.64
-9.07
-7.08
-4.90
-2.68
-0.58
1.27
2.78
3.90
4.69
5.25
5.63
5.88
5.96
5.84
5.58
5.27
5.02
4.90
4.86
4.79
4.63
4.41
4.15
3.91
3.59
3.09
2.29
1.28
0.27
-0.48
-0.83
-0.86
-0.83
-1.01
-1.58
-2.54
-3.77
-5.20
-6.83
-8.71
-10.82
-12.94
-14.72
-15.71
-15.62
-14.45
-12.52
-10.31
-8.29
-6.73
-5.65
-4.80
-3.95
-2.97
-1.91
-0.96
-0.31
0.02
0.12
0.25
0.58
1.17
1.92
2.70
3.37
3.88
4.19
4.33
4.29
4.06
3.64
3.08
2.46
1.90
1.47
1.22
1.10
1.02
0.84
0.36
-0.55
-1.92
-3.66
-5.54
-7.31
-8.80
-9.90
-10.64
-11.05
-11.08
-10.64
-9.61
-8.01
-6.01
-3.91
-1.99
-0.45
0.65
1.32
1.63
1.65
1.47
1.20
1.01
1.02
1.28
1.74
2.25
2.67
2.93
3.07
3.14
3.17
3.11
2.86
2.43
1.86
1.27
0.78
0.39
-0.01
-0.54
-1.26
-2.09
-2.90
-3.54
-4.03
-4.49
-5.07
-5.81
-6.64
-7.36
-7.80
-7.87
-7.55
-6.92
-6.01
-4.89
-3.67
-2.48
-1.42
-0.56
0.12
0.74
1.37
2.00
2.56
2.91
3.01
2.91
2.70
2.51
2.37
2.29
2.28
2.41
2.79
3.44
4.26
4.98
5.28
4.96
4.10
2.97
1.95
1.25
0.82
0.39
-0.33
-1.46
-2.89
-4.35
-5.62
-6.54
-7.12
-7.44
-7.55
-7.49
-7.29
-7.00
-6.63
-6.22
-5.71
-5.02
-4.12
-3.05
-2.01
-1.21
-0.87
-0.99
-1.45
-2.02
-2.42
-2.52
-2.26
-1.67
-0.87
0.05
1.01
1.97
2.90
3.76
4.44
4.82
4.80
4.36
3.59
2.70
1.86
1.14
0.48
-0.29
-1.27
-2.47
-3.81
-5.25
-6.78
-8.41
-10.03
-11.37
-12.02
-11.70
-10.38
-8.32
-5.95
-3.64
-1.54
0.33
2.04
3.59
4.87
5.76
6.22
6.35
6.26
6.13
6.03
6.03
6.09
6.16
6.15
5.96
5.61
5.20
4.91
4.83
4.87
4.78
4.27
3.23
1.82
0.43
-0.60
-1.11
-1.29
-1.56
-2.32
-3.78
-5.79
-7.99
-9.89
-11.12
-11.49
-11.09
-10.14
-8.92
-7.65
-6.39
-5.13
-3.77
-2.28
-0.72
0.75
1.98
2.82
3.24
3.31
3.15
2.97
2.91
3.09
3.47
3.89
4.12
3.92
3.19
2.09
0.93
0.08
-0.27
-0.16
0.11
0.18
-0.17
-0.94
-1.98
-3.10
-4.25
-5.46
-6.79
-8.19
-9.42
-10.23
-10.40
-9.90
-8.85
-7.45
-5.87
-4.22
-2.58
-1.01
0.41
1.62
2.59
3.36
3.96
4.38
4.57
4.46
4.03
3.36
2.62
1.99
1.60
1.46
1.46
1.46
1.35
1.12
0.82
0.45
-0.01
-0.69
-1.58
-2.62
-3.59
-4.31
-4.76
-5.09
-5.61
-6.52
-7.79
-9.08
-9.94
-10.01
-9.21
-7.70
-5.84
-4.00
-2.46
-1.34
-0.69
-0.40
-0.28
-0.16
0.05
0.35
0.63
0.77
0.75
0.68
0.74
1.03
1.61
2.39
3.24
4.09
4.86
5.49
5.81
5.59
4.64
2.93
0.67
-1.75
-3.88
-5.42
-6.42
-7.14
-7.97
-9.17
-10.69
-12.17
-13.13
-13.15
-12.11
-10.20
-7.81
-5.37
-3.15
-1.26
0.28
1.46
2.28
2.71
2.82
2.78
2.78
2.95
3.32
3.83
4.47
5.24
6.17
7.25
8.26
8.88
8.79
7.84
6.18
4.17
2.26
0.77
-0.19
-0.74
-1.17
-1.76
-2.69
-4.05
-5.76
-7.66
-9.58
-11.33
-12.67
-13.41
-13.30
-12.23
-10.28
-7.73
-5.04
-2.69
-0.98
0.09
0.78
1.45
2.38
3.58
4.82
5.74
6.10
5.94
5.54
5.37
5.76
6.76
8.08
9.23
9.76
9.44
8.39
6.93
5.41
4.04
2.85
1.79
0.79
-0.13
-0.92
-1.59
-2.17
-2.78
-3.49
-4.31
-5.19
-6.12
-7.06
-8.01
-8.98
-9.91
-10.67
-11.08
-11.00
-10.38
-9.26
-7.75
-6.02
-4.22
-2.53
-1.09
0.05
0.87
1.48
1.96
2.41
2.81
3.14
3.38
3.58
3.93
4.64
5.84
7.49
9.29
10.75
11.40
11.03
9.80
8.11
6.54
5.46
4.91
4.59
4.05
2.95
1.28
-0.64
-2.40
-3.72
-4.60
-5.31
-6.22
-7.52
-9.21
-11.00
-12.51
-13.46
-13.74
-13.40
-12.59
-11.44
-9.98
-8.17
-5.99
-3.48
-0.82
1.69
3.75
5.08
5.63
5.49
4.98
4.51
4.49
5.18
6.59
8.46
10.35
11.78
12.55
12.65
12.34
11.91
11.50
11.12
10.63
9.96
9.11
8.23
7.48
6.93
6.48
5.95
5.11
3.86
2.25
0.48
-1.19
-2.58
-3.59
-4.32
-4.92
-5.57
-6.39
-7.42
-8.63
-9.91
-11.11
-11.99
-12.31
-11.91
-10.64
-8.60
-5.94
-3.01
-0.21
2.10
3.68
4.51
4.77
4.71
4.60
4.54
4.51
4.48
4.51
4.75
5.48
6.78
8.52
10.28
11.58
12.14
11.99
11.50
11.11
11.04
11.20
11.27
10.98
10.28
9.45
8.92
9.01
9.76
10.86
11.91
12.58
12.83
12.85
12.92
13.20
13.55
13.66
13.23
12.18
10.75
9.42
8.69
8.81
9.69
10.98
12.21
13.07
13.45
13.46
13.36
13.29
13.29
13.21
12.73
11.56
9.57
6.84
3.71
0.64
-2.04
-4.16
-5.72
-6.73
-7.10
-6.64
-5.16
-2.67
0.52
3.98
7.29
10.32
13.21
16.23
19.61
23.31
27.12
30.74
33.99
36.82
39.34
41.62
43.61
45.09
45.71
45.19
43.43
40.54
36.77
32.46
27.88
23.23
18.58
13.91
9.14
4.26
-0.67
-5.43
-9.75
-13.37
-16.25
-18.48
-20.26
-21.68
-22.57
-22.58
-21.34
-18.85
-15.51
-12.10
-9.36
-7.68
-6.98
-6.79
-6.51
-5.67
-4.14
-2.13
-0.03
1.67
2.59
2.49
1.34
-0.73
-3.37
-6.15
-8.68
-10.72
-12.15
-13.05
-13.53
-13.74
-13.72
-13.49
-12.98
-12.19
-11.16
-10.05
-9.07
-8.42
-8.22
-8.44
-8.91
-9.48
-10.06
-10.72
-11.69
-13.19
-15.28
-17.73
-20.10
-21.91
-22.88
-23.10
-22.97
-22.96
-23.45
-24.53
-26.06
-27.78
-29.45
-30.84
-31.74
-31.95
-31.31
-29.82
-27.69
-25.31
-23.11
-21.37
-20.10
-19.08
-17.98
-16.53
-14.62
-12.28
-9.64
-6.87
-4.16
-1.65
0.52
2.29
3.65
4.66
5.42
6.07
6.74
7.52
8.44
9.43
10.29
10.77
10.72
10.13
9.29
8.56
8.17
8.09
7.95
7.25
5.65
3.25
0.55
-1.73
-3.07
-3.35
-2.91
-2.31
-2.00
-2.11
-2.50
-2.91
-3.23
-3.47
-3.75
-4.11
-4.46
-4.65
-4.61
-4.33
-3.95
-3.50
-2.92
-2.05
-0.79
0.77
2.36
3.62
4.32
4.37
3.82
2.81
1.51
0.15
-0.98
-1.62
-1.70
-1.42
-1.14
-1.25
-1.83
-2.66
-3.30
-3.36
-2.76
-1.70
-0.61
0.12
0.27
-0.17
-1.06
-2.18
-3.24
-4.02
-4.41
-4.45
-4.27
-4.07
-3.96
-3.96
-3.95
-3.85
-3.67
-3.52
-3.60
-4.08
-5.04
-6.42
-8.06
-9.67
-10.97
-11.72
-11.79
-11.20
-10.11
-8.70
-7.08
-5.30
-3.37
-1.39
0.52
2.14
3.34
4.04
4.29
4.27
4.17
4.15
4.32
4.67
5.16
5.69
6.17
6.54
6.71
6.63
6.27
5.63
4.78
3.84
2.92
2.08
1.34
0.62
-0.18
-1.04
-1.90
-2.59
-2.93
-2.85
-2.42
-1.82
-1.25
-0.87
-0.72
-0.72
-0.78
-0.79
-0.69
-0.43
-0.05
0.39
0.76
0.92
0.73
0.15
-0.66
-1.50
-2.12
-2.42
-2.44
-2.30
-2.16
-2.10
-2.15
-2.31
-2.62
-3.16
-3.92
-4.83
-5.66
-6.13
-5.97
-5.14
-3.80
-2.27
-0.91
0.11
0.78
1.21
1.51
1.69
1.61
1.15
0.30
-0.75
-1.67
-2.17
-2.14
-1.70
-1.13
-0.72
-0.59
-0.69
-0.89
-1.07
-1.19
-1.31
-1.52
-1.94
-2.66
-3.73
-5.09
-6.59
-7.93
-8.75
-8.76
-7.83
-6.10
-3.92
-1.76
-0.01
1.15
1.74
1.95
2.01
2.06
2.09
1.98
1.63
1.07
0.47
0.11
0.21
0.77
1.59
2.36
2.80
2.82
2.57
2.33
2.31
2.55
2.91
3.11
2.87
2.04
0.61
-1.21
-3.12
-4.78
-5.95
-6.56
-6.67
-6.46
-6.11
-5.71
-5.28
-4.78
-4.22
-3.64
-3.07
-2.51
-1.89
-1.15
-0.25
0.66
1.46
2.03
2.41
2.72
3.12
3.64
4.22
4.64
4.72
4.34
3.59
2.67
1.81
1.22
1.01
1.24
1.79
2.46
2.96
3.02
2.51
1.47
0.11
-1.35
-2.73
-3.98
-5.14
-6.23
-7.22
-8.00
-8.40
-8.31
-7.73
-6.78
-5.69
-4.62
-3.66
-2.83
-2.05
-1.30
-0.61
-0.05
0.34
0.59
0.79
1.13
1.69
2.46
3.33
4.09
4.54
4.58
4.28
3.84
3.53
3.54
3.89
4.33
4.53
4.16
3.07
1.40
-0.53
-2.33
-3.68
-4.42
-4.50
-3.97
-3.03
-2.04
-1.44
-1.62
-2.70
-4.46
-6.29
-7.56
-7.82
-7.00
-5.37
-3.43
-1.66
-0.36
0.35
0.46
0.10
-0.65
-1.62
-2.70
-3.78
-4.77
-5.53
-5.93
-5.80
-5.12
-4.03
-2.85
-1.92
-1.53
-1.67
-2.13
-2.52
-2.50
-1.89
-0.81
0.46
1.57
2.19
2.16
1.44
0.22
-1.15
-2.28
-2.79
-2.61
-1.92
-1.18
-0.81
-1.11
-1.98
-3.06
-3.93
-4.36
-4.37
-4.21
-4.10
-4.11
-4.09
-3.80
-3.10
-2.04
-0.86
0.18
0.91
1.30
1.49
1.60
1.73
1.89
2.01
2.01
1.84
1.50
1.11
0.77
0.66
0.85
1.32
1.97
2.61
3.08
3.29
3.25
3.00
2.59
2.06
1.42
0.75
0.11
-0.40
-0.78
-1.10
-1.56
-2.35
-3.56
-5.16
-6.95
-8.60
-9.84
-10.47
-10.48
-10.04
-9.39
-8.77
-8.28
-7.89
-7.54
-7.11
-6.55
-5.90
-5.26
-4.73
-4.43
-4.40
-4.59
-4.92
-5.20
-5.30
-5.11
-4.64
-3.90
-2.92
-1.70
-0.29
1.16
2.41
3.18
3.34
2.97
2.37
1.86
1.65
1.75
2.02
2.33
2.57
2.66
2.50
2.00
1.11
-0.03
-1.11
-1.80
-1.86
-1.27
-0.22
1.05
2.36
3.61
4.75
5.70
6.37
6.69
6.73
6.64
6.55
6.40
6.02
5.20
3.85
2.13
0.40
-1.00
-1.91
-2.34
-2.50
-2.51
-2.45
-2.20
-1.71
-0.97
-0.11
0.68
1.25
1.58
1.70
1.64
1.34
0.71
-0.30
-1.55
-2.82
-3.85
-4.47
-4.65
-4.50
-4.12
-3.57
-2.85
-2.02
-1.27
-0.84
-0.94
-1.60
-2.58
-3.55
-4.17
-4.31
-4.01
-3.48
-2.86
-2.23
-1.54
-0.75
0.14
0.99
1.68
2.11
2.28
2.25
2.13
1.88
1.49
0.92
0.21
-0.53
-1.16
-1.62
-2.03
-2.57
-3.47
-4.73
-6.22
-7.60
-8.46
-8.53
-7.75
-6.29
-4.51
-2.82
-1.52
-0.74
-0.38
-0.15
0.22
0.88
1.74
2.59
3.15
3.32
3.20
3.05
3.08
3.36
3.76
4.09
4.23
4.19
4.07
3.94
3.77
3.41
2.74
1.75
0.60
-0.46
-1.26
-1.71
-1.92
-2.06
-2.33
-2.87
-3.68
-4.68
-5.66
-6.36
-6.56
-6.13
-5.15
-3.85
-2.57
-1.60
-1.06
-0.95
-1.15
-1.48
-1.73
-1.74
-1.36
-0.57
0.62
2.07
3.58
4.98
6.11
6.89
7.29
7.38
7.24
7.01
6.77
6.56
6.37
6.12
5.74
5.18
4.50
3.74
2.98
2.19
1.31
0.27
-0.98
-2.38
-3.79
-5.04
-5.95
-6.45
-6.55
-6.27
-5.70
-4.94
-4.01
-2.97
-1.83
-0.64
0.50
1.48
2.21
2.60
2.66
2.47
2.10
1.66
1.26
0.96
0.78
0.68
0.58
0.40
0.14
-0.21
-0.62
-1.13
-1.81
-2.70
-3.78
-4.89
-5.78
-6.22
-6.20
-5.88
-5.56
-5.49
-5.73
-6.15
-6.54
-6.77
-6.80
-6.75
-6.64
-6.36
-5.75
-4.63
-3.00
-1.03
0.97
2.80
4.33
5.62
6.77
7.72
8.38
8.54
8.16
7.35
6.47
5.90
5.87
6.40
7.26
8.14
8.77
9.05
9.03
8.84
8.61
8.39
8.09
7.67
7.07
6.36
5.64
4.96
4.26
3.43
2.34
1.01
-0.46
-1.80
-2.82
-3.48
-3.92
-4.42
-5.26
-6.53
-8.13
-9.83
-11.31
-12.34
-12.81
-12.74
-12.20
-11.27
-9.98
-8.32
-6.26
-3.89
-1.41
0.97
3.08
4.97
6.95
9.44
12.80
17.03
21.77
26.37
30.20
32.90
34.50
35.30
35.73
36.21
36.99
38.18
39.78
41.67
43.61
45.24
46.22
46.15
44.82
42.11
38.12
33.07
27.27
21.11
14.98
9.27
4.20
-0.20
-4.12
-7.86
-11.76
-15.91
-20.22
-24.31
-27.69
-29.89
-30.75
-30.37
-29.19
-27.75
-26.51
-25.69
-25.27
-25.08
-24.91
-24.57
-23.89
-22.75
-21.06
-18.83
-16.18
-13.44
-10.96
-9.00
-7.54
-6.34
-5.04
-3.41
-1.50
0.39
1.80
2.48
2.40
1.83
1.08
0.39
-0.26
-0.97
-1.95
-3.26
-4.82
-6.43
-7.87
-8.97
-9.67
-10.00
-10.04
-9.90
-9.63
-9.24
-8.67
-7.89
-6.92
-5.91
-5.05
-4.48
-4.21
-4.04
-3.70
-3.01
-2.02
-0.93
-0.02
0.62
1.07
1.58
2.28
3.13
3.89
4.34
4.40
4.25
4.18
4.38
4.81
5.27
5.44
5.21
4.69
4.11
3.77
3.77
3.98
4.17
4.04
3.40
2.28
0.88
-0.48
-1.50
-2.03
-2.08
-1.82
-1.49
-1.23
-1.08
-1.01
-0.96
-0.92
-0.93
-1.00
-1.13
-1.29
-1.45
-1.56
-1.60
-1.54
-1.28
-0.77
-0.09
0.57
0.95
0.86
0.33
-0.41
-0.98
-1.03
-0.50
0.46
1.59
2.60
3.39
3.96
4.34
4.49
4.30
3.72
2.84
1.92
1.16
0.63
0.14
-0.53
-1.51
-2.66
-3.63
-4.08
-3.87
-3.24
-2.55
-2.14
-2.17
-2.54
-2.97
-3.22
-3.08
-2.48
-1.49
-0.25
0.96
1.85
2.26
2.22
2.01
1.96
2.32
3.06
3.93
4.60
4.84
4.62
4.06
3.40
2.75
2.13
1.51
0.84
0.18
-0.37
-0.70
-0.87
-1.05
-1.54
-2.58
-4.21
-6.19
-8.03
-9.25
-9.52
-8.87
-7.63
-6.21
-4.90
-3.78
-2.72
-1.60
-0.46
0.52
1.11
1.23
1.01
0.76
0.80
1.25
2.01
2.79
3.33
3.43
3.13
2.60
2.04
1.62
1.41
1.40
1.50
1.67
1.84
1.96
1.94
1.69
1.10
0.13
-1.21
-2.82
-4.51
-5.99
-7.01
-7.36
-7.03
-6.13
-4.95
-3.79
-2.92
-2.44
-2.27
-2.20
-1.94
-1.32
-0.37
0.65
1.34
1.37
0.55
-0.92
-2.57
-3.81
-4.18
-3.51
-1.98
0.00
1.93
3.36
4.01
3.77
2.72
1.12
-0.62
-2.07
-2.97
-3.33
-3.43
-3.68
-4.41
-5.64
-7.06
-8.24
-8.78
-8.51
-7.55
-6.24
-4.98
-4.05
-3.49
-3.08
-2.54
-1.62
-0.29
1.25
2.63
3.60
4.08
4.26
4.42
4.74
5.23
5.65
5.76
5.44
4.77
4.01
3.40
3.14
3.18
3.34
3.32
2.92
2.04
0.83
-0.49
-1.70
-2.77
-3.80
-4.96
-6.25
-7.46
-8.17
-8.11
-7.26
-5.99
-4.79
-4.08
-3.87
-3.80
-3.45
-2.58
-1.33
-0.09
0.70
0.84
0.49
-0.01
-0.31
-0.22
0.20
0.78
1.32
1.74
2.10
2.50
3.04
3.69
4.31
4.68
4.64
4.13
3.27
2.28
1.40
0.76
0.28
-0.22
-0.90
-1.82
-2.86
-3.81
-4.49
-4.89
-5.12
-5.39
-5.73
-6.04
-6.06
-5.55
-4.49
-3.05
-1.61
-0.45
0.30
0.76
1.17
1.75
2.51
3.26
3.76
3.85
3.56
3.12
2.79
2.72
2.93
3.26
3.52
3.60
3.47
3.21
2.85
2.46
1.98
1.34
0.55
-0.40
-1.40
-2.39
-3.26
-4.00
-4.61
-5.15
-5.63
-6.07
-6.45
-6.72
-6.83
-6.69
-6.28
-5.64
-4.83
-3.95
-3.04
-2.11
-1.08
0.10
1.37
2.52
3.30
3.42
2.85
1.83
0.79
0.20
0.39
1.36
2.85
4.43
5.63
6.09
5.71
4.65
3.30
2.14
1.57
1.72
2.41
3.29
3.96
4.19
3.95
3.38
2.65
1.81
0.88
-0.13
-1.14
-2.06
-2.83
-3.54
-4.37
-5.49
-6.91
-8.40
-9.56
-10.03
-9.63
-8.47
-6.85
-5.12
-3.52
-2.20
-1.18
-0.48
-0.04
0.23
0.51
0.97
1.65
2.42
3.04
3.35
3.34
3.28
3.52
4.21
5.22
6.17
6.66
6.55
6.05
5.53
5.25
5.22
5.19
4.85
4.09
3.05
2.00
1.12
0.36
-0.51
-1.72
-3.26
-4.83
-6.06
-6.71
-6.87
-6.88
-7.12
-7.68
-8.32
-8.57
-8.04
-6.58
-4.38
-1.82
0.70
2.89
4.60
5.74
6.29
6.37
6.11
5.77
5.50
5.37
5.33
5.30
5.26
5.23
5.23
5.16
4.85
4.09
2.85
1.38
0.06
-0.77
-0.99
-0.84
-0.75
-1.07
-2.01
-3.47
-5.09
-6.46
-7.27
-7.41
-6.96
-6.14
-5.11
-3.99
-2.88
-1.79
-0.82
-0.06
0.40
0.56
0.50
0.39
0.37
0.49
0.77
1.12
1.53
2.00
2.52
3.06
3.52
3.80
3.82
3.62
3.29
3.02
2.94
3.05
3.28
3.49
3.55
3.39
2.98
2.26
1.21
-0.22
-2.00
-3.94
-5.75
-7.10
-7.80
-7.87
-7.54
-7.09
-6.65
-6.19
-5.48
-4.44
-3.08
-1.66
-0.46
0.30
0.65
0.79
0.93
1.26
1.78
2.39
2.98
3.48
3.86
4.18
4.46
4.68
4.76
4.63
4.23
3.61
2.91
2.35
2.11
2.22
2.52
2.75
2.64
2.09
1.18
0.13
-0.93
-1.94
-2.97
-4.13
-5.46
-6.84
-8.04
-8.74
-8.76
-8.05
-6.79
-5.33
-4.05
-3.20
-2.84
-2.75
-2.58
-1.99
-0.79
0.87
2.64
4.04
4.74
4.68
4.14
3.54
3.22
3.35
3.79
4.28
4.59
4.60
4.41
4.19
4.06
4.06
4.12
4.18
4.16
3.98
3.54
2.73
1.49
-0.09
-1.75
-3.17
-4.09
-4.49
-4.54
-4.50
-4.57
-4.83
-5.21
-5.51
-5.54
-5.13
-4.28
-3.10
-1.85
-0.80
-0.11
0.25
0.45
0.72
1.14
1.55
1.80
1.81
1.74
1.93
2.67
3.90
5.24
6.17
6.34
5.84
5.05
4.43
4.22
4.29
4.33
4.00
3.21
2.12
1.01
0.11
-0.44
-0.73
-0.89
-1.07
-1.41
-1.97
-2.73
-3.59
-4.40
-5.05
-5.54
-5.98
-6.46
-6.97
-7.37
-7.42
-6.94
-5.92
-4.51
-2.99
-1.65
-0.62
0.05
0.44
0.68
0.91
1.21
1.61
2.15
2.86
3.71
4.61
5.42
5.95
6.06
5.79
5.31
4.93
4.93
5.39
6.13
6.76
6.86
6.20
4.90
3.35
1.98
1.07
0.58
0.28
-0.15
-0.90
-1.93
-3.08
-4.08
-4.82
-5.32
-5.70
-6.06
-6.40
-6.60
-6.45
-5.81
-4.66
-3.17
-1.67
-0.47
0.24
0.46
0.35
0.20
0.23
0.56
1.09
1.64
2.02
2.18
2.24
2.39
2.83
3.62
4.65
5.64
6.25
6.24
5.47
4.06
2.28
0.40
-1.27
-2.56
-3.39
-3.77
-3.85
-3.83
-3.95
-4.43
-5.35
-6.62
-7.94
-8.91
-9.23
-8.75
-7.61
-6.10
-4.55
-3.22
-2.21
-1.53
-1.05
-0.68
-0.33
0.14
0.74
1.45
2.14
2.62
2.71
2.39
1.74
1.03
0.58
0.62
1.23
2.28
3.49
4.55
5.28
5.53
5.33
4.65
3.54
2.03
0.26
-1.60
-3.30
-4.63
-5.46
-5.74
-5.48
-4.82
-3.93
-3.07
-2.48
-2.22
-2.20
-2.14
-1.79
-1.06
-0.09
0.85
1.48
1.71
1.63
1.42
1.28
1.27
1.35
1.45
1.53
1.59
1.58
1.45
1.12
0.60
0.07
-0.22
-0.01
0.71
1.73
2.68
3.21
3.10
2.38
1.27
0.00
-1.27
-2.45
-3.49
-4.29
-4.77
-4.88
-4.63
-4.15
-3.57
-3.00
-2.40
-1.70
-0.81
0.23
1.30
2.19
2.70
2.71
2.27
1.50
0.65
-0.07
-0.53
-0.62
-0.39
0.09
0.68
1.27
1.69
1.81
1.55
0.95
0.16
-0.63
-1.25
-1.71
-2.14
-2.78
-3.77
-5.11
-6.59
-7.92
-8.84
-9.15
-8.75
-7.64
-5.93
-3.91
-1.96
-0.53
0.10
-0.06
-0.68
-1.25
-1.33
-0.74
0.35
1.60
2.63
3.35
3.82
4.25
4.75
5.27
5.62
5.65
5.34
4.81
4.28
3.87
3.59
3.35
2.99
2.42
1.63
0.71
-0.28
-1.28
-2.26
-3.17
-3.99
-4.71
-5.31
-5.82
-6.23
-6.43
-6.27
-5.64
-4.54
-3.07
-1.44
0.22
1.77
3.22
4.52
5.52
6.03
5.92
5.21
4.19
3.26
2.79
2.92
3.55
4.37
5.11
5.64
5.89
5.84
5.44
4.68
3.65
2.55
1.67
1.18
1.10
1.25
1.31
1.07
0.46
-0.41
-1.35
-2.16
-2.76
-3.20
-3.60
-4.10
-4.81
-5.71
-6.63
-7.23
-7.18
-6.29
-4.67
-2.66
-0.82
0.47
1.14
1.43
1.80
2.60
3.86
5.31
6.55
7.30
7.61
7.71
7.81
8.01
8.11
7.89
7.24
6.32
5.48
5.01
4.98
5.18
5.28
4.94
4.12
3.03
2.04
1.48
1.48
1.86
2.22
2.14
1.35
-0.17
-2.14
-4.19
-5.91
-7.03
-7.45
-7.25
-6.56
-5.63
-4.62
-3.65
-2.72
-1.75
-0.65
0.62
1.99
3.25
4.13
4.45
4.16
3.39
2.47
1.76
1.56
1.99
2.87
3.92
4.84
5.45
5.77
5.88
5.87
5.70
5.30
4.63
3.76
2.84
2.04
1.36
0.69
-0.12
-1.16
-2.38
-3.64
-4.78
-5.75
-6.58
-7.26
-7.73
-7.87
-7.51
-6.59
-5.22
-3.63
-2.08
-0.79
0.17
0.86
1.29
1.48
1.39
1.05
0.58
0.24
0.26
0.75
1.62
2.66
3.61
4.37
5.01
5.67
6.46
7.33
8.12
8.59
8.65
8.37
7.86
7.23
6.43
5.24
3.49
1.17
-1.51
-4.15
-6.38
-7.97
-8.90
-9.27
-9.24
-8.87
-8.13
-6.96
-5.37
-3.50
-1.56
0.18
1.55
2.45
2.94
3.11
3.13
3.16
3.31
3.57
3.94
4.39
4.92
5.53
6.17
6.75
7.19
7.51
7.75
8.04
8.46
8.97
9.49
9.93
10.25
10.44
10.45
10.14
9.33
7.91
6.01
4.02
2.49
1.82
2.17
3.37
4.98
6.58
7.83
8.57
8.75
8.32
7.24
5.58
3.56
1.54
-0.16
-1.31
-1.98
-2.39
-2.83
-3.50
-4.39
-5.35
-6.20
-6.81
-7.18
-7.44
-7.77
-8.38
-9.34
-10.59
-11.86
-12.81
-13.16
-12.85
-12.16
-11.54
-11.40
-11.95
-13.15
-14.76
-16.46
-18.07
-19.43
-20.44
-20.97
-20.92
-20.27
-19.19
-17.97
-16.96
-16.40
-16.36
-16.77
-17.52
-18.56
-20.00
-22.03
-24.74
-28.09
-31.81
-35.51
-38.80
-41.43
-43.34
-44.65
-45.64
-46.68
-48.19
-50.60
-54.21
-59.10
-64.93
-70.96
-76.06
-79.03
-78.88
-74.99
-67.23
-55.88
-41.62
-25.35
-8.22
8.52
23.79
36.90
47.68
56.49
63.83
70.11
75.61
80.65
86.03
93.18
103.81
119.21
139.35
162.54
185.77
205.82
220.17
227.76
228.73
223.79
213.55
198.34
178.65
155.70
131.67
109.19
90.60
77.04
68.34
63.44
61.13
60.64
61.78
64.60
68.94
74.39
80.33
86.31
92.21
98.08
103.74
108.56
111.33
110.66
105.47
95.46
81.15
63.82
44.94
25.74
6.90
-11.43
-29.36
-46.87
-63.58
-78.71
-91.30
-100.57
-106.19
-108.39
-107.86
-105.55
-102.39
-99.10
-96.10
-93.42
-90.87
-88.14
-85.02
-81.43
-77.46
-73.26
-68.92
-64.27
-59.00
-52.78
-45.43
-37.14
-28.47
-20.10
-12.66
-6.47
-1.55
2.19
4.75
5.88
5.22
2.47
-2.27
-8.43
-15.09
-21.26
-26.26
-29.86
-32.26
-33.90
-35.16
-36.18
-36.84
-36.98
-36.56
-35.74
-34.92
-34.49
-34.73
-35.77
-37.63
-40.33
-43.93
-48.35
-53.26
-57.97
-61.63
-63.54
-63.44
-61.71
-59.16
-56.65
-54.70
-53.48
-52.86
-52.69
-53.01
-53.92
-55.48
-57.46
-59.42
-60.79
-61.22
-60.66
-59.32
-57.54
-55.54
-53.41
-51.11
-48.69
-46.36
-44.43
-43.18
-42.69
-42.86
-43.47
-44.45
-45.88
-48.03
-50.98
-54.42
-57.48
-58.88
-57.35
-52.08
-43.04
-30.88
-16.81
-2.14
11.98
24.61
35.10
43.01
48.17
50.74
51.22
50.39
49.17
48.36
48.40
49.38
51.03
52.92
54.74
56.36
57.89
59.54
61.42
63.40
65.11
66.04
65.71
64.02
61.22
58.01
55.32
54.01
54.58
56.96
60.56
64.34
67.26
68.38
67.12
63.22
56.68
47.75
36.90
24.90
12.68
1.17
-8.91
-17.19
-23.56
-28.07
-30.64
-31.07
-29.09
-24.60
-17.82
-9.39
-0.32
8.26
15.19
19.58
20.86
18.82
13.63
5.77
-3.94
-14.47
-24.49
-32.68
-37.96
-39.93
-39.01
-36.35
-33.39
-31.30
-30.53
-30.89
-31.82
-32.91
-34.15
-35.85
-38.21
-40.96
-43.32
-44.37
-43.55
-41.01
-37.53
-34.15
-31.70
-30.47
-30.34
-30.90
-31.75
-32.54
-32.98
-32.82
-31.89
-30.23
-28.17
-26.17
-24.56
-23.21
-21.48
-18.36
-12.97
-4.99
5.18
16.51
27.76
37.84
46.14
52.52
57.06
59.91
61.18
61.00
59.63
57.50
55.16
53.15
51.73
50.87
50.26
49.45
48.10
46.10
43.62
41.00
38.57
36.45
34.36
31.81
28.19
23.17
16.80
9.56
2.24
-4.35
-9.41
-12.26
-12.37
-9.50
-3.70
4.49
14.14
24.03
32.96
39.99
44.71
47.18
47.89
47.50
46.63
45.68
44.78
43.84
42.65
41.03
38.86
36.04
32.49
28.13
22.92
16.96
10.51
3.87
-2.81
-9.59
-16.74
-24.65
-33.53
-43.21
-53.21
-62.82
-71.43
-78.72
-84.77
-89.76
-93.76
-96.42
-96.97
-94.68
-89.16
-80.83
-70.85
-60.71
-51.67
-44.39
-38.86
-34.69
-31.49
-29.07
-27.47
-26.67
-26.37
-26.03
-25.10
-23.29
-20.66
-17.52
-14.26
-11.11
-8.19
-5.56
-3.35
-1.69
-0.61
0.01
0.32
0.42
0.14
-0.81
-2.75
-5.74
-9.51
-13.59
-17.51
-21.01
-23.98
-26.35
-27.86
-28.18
-27.02
-24.24
-20.08
-15.02
-9.68
-4.68
-0.48
2.66
4.66
5.55
5.45
4.52
3.03
1.38
0.07
-0.48
-0.08
1.07
2.45
3.40
3.44
2.53
1.02
-0.49
-1.55
-2.03
-2.15
-2.37
-3.03
-4.26
-5.86
-7.54
-9.10
-10.49
-11.84
-13.27
-14.69
-15.79
-16.06
-15.13
-12.88
-9.53
-5.49
-1.19
3.13
7.27
10.94
13.72
15.14
14.87
13.02
10.14
7.01
4.40
2.76
2.14
2.29
2.82
3.37
3.71
3.74
3.43
2.84
2.08
1.12
-0.13
-1.80
-4.03
-6.85
-10.08
-13.41
-16.43
-18.75
-20.12
-20.37
-19.52
-17.58
-14.63
-10.72
-6.05
-0.94
4.06
8.30
11.20
12.47
12.22
10.87
8.91
6.73
4.57
2.52
0.71
-0.64
-1.37
-1.42
-0.92
-0.19
0.41
0.55
0.10
-0.90
-2.28
-3.84
-5.41
-6.99
-8.68
-10.69
-13.21
-16.20
-19.33
-22.00
-23.48
-23.23
-21.10
-17.37
-12.65
-7.60
-2.66
2.03
6.46
10.62
14.26
16.94
18.25
18.07
16.81
15.21
14.00
13.56
13.81
14.26
14.48
14.21
13.49
12.51
11.41
10.16
8.74
7.12
5.40
3.69
2.00
0.16
-2.10
-5.00
-8.54
-12.46
-16.35
-19.69
-21.97
-22.69
-21.39
-17.86
-12.25
-5.16
2.42
9.48
15.26
19.43
22.03
23.22
23.14
21.83
19.46
16.50
13.63
11.57
10.74
11.10
12.17
13.37
14.25
14.59
14.38
13.63
12.24
10.14
7.35
4.09
0.76
-2.28
-4.85
-7.12
-9.55
-12.65
-16.75
-21.70
-26.85
-31.09
-33.23
-32.35
-28.19
-21.19
-12.50
-3.49
4.54
10.78
14.87
16.93
17.34
16.66
15.45
14.22
13.29
12.78
12.59
12.49
12.25
11.76
11.04
10.11
8.93
7.33
5.18
2.54
-0.31
-2.89
-4.78
-5.83
-6.30
-6.67
-7.52
-9.33
-12.24
-16.09
-20.41
-24.46
-27.43
-28.55
-27.28
-23.41
-17.21
-9.29
-0.57
7.95
15.33
20.89
24.30
25.59
25.18
23.66
21.70
19.79
18.20
16.95
15.95
15.12
14.42
13.85
13.36
12.88
12.31
11.61
10.83
10.01
9.15
8.11
6.70
4.70
2.08
-1.01
-4.36
-7.78
-11.30
-14.94
-18.66
-22.05
-24.41
-24.93
-23.00
-18.55
-12.05
-4.45
3.21
10.01
15.44
19.38
21.89
23.08
23.05
21.88
19.76
16.99
14.04
11.39
9.45
8.52
8.71
9.84
11.53
13.19
14.21
14.12
12.71
10.11
6.68
2.88
-0.92
-4.55
-7.93
-11.05
-13.86
-16.43
-18.86
-21.39
-24.16
-27.05
-29.55
-30.79
-29.92
-26.45
-20.45
-12.67
-4.22
3.78
10.41
15.20
17.97
18.84
18.11
16.25
13.84
11.43
9.39
7.84
6.71
5.88
5.36
5.27
5.70
6.60
7.56
8.09
7.77
6.52
4.64
2.56
0.65
-1.02
-2.60
-4.30
-6.28
-8.57
-11.09
-13.79
-16.60
-19.31
-21.57
-22.73
-22.13
-19.26
-14.15
-7.37
0.12
7.20
12.95
16.79
18.50
18.20
16.24
13.12
9.49
6.01
3.22
1.50
0.92
1.25
2.19
3.37
4.50
5.36
5.83
5.84
5.38
4.48
3.15
1.27
-1.33
-4.77
-9.00
-13.75
-18.61
-23.20
-27.17
-30.17
-31.76
-31.44
-28.77
-23.65
-16.49
-8.17
0.26
7.84
13.98
18.36
20.80
21.25
19.78
16.76
12.91
9.13
6.24
4.69
4.44
5.02
5.81
6.25
6.04
5.13
3.72
2.05
0.38
-1.25
-2.96
-5.08
-7.97
-11.85
-16.68
-22.11
-27.59
-32.42
-35.91
-37.43
-36.52
-32.99
-27.08
-19.43
-11.02
-2.88
4.06
9.18
12.27
13.34
12.67
10.64
7.83
4.90
2.43
0.90
0.45
0.88
1.71
2.43
2.64
2.26
1.48
0.56
-0.24
-0.85
-1.37
-2.01
-2.99
-4.51
-6.78
-10.03
-14.38
-19.69
-25.30
-30.06
-32.62
-31.85
-27.36
-19.67
-10.06
-0.07
8.92
16.05
20.97
23.73
24.64
24.09
22.49
20.35
18.13
16.25
15.00
14.55
14.89
15.86
17.14
18.38
19.23
19.45
18.94
17.83
16.31
14.58
12.75
10.77
8.52
5.80
2.43
-1.67
-6.41
-11.38
-15.88
-19.00
-19.84
-17.86
-13.06
-6.07
2.14
10.49
18.20
24.90
30.60
35.34
39.10
41.72
43.03
43.16
42.57
42.00
42.18
43.57
46.18
49.70
53.61
57.40
60.58
62.69
63.27
61.96
58.62
53.50
47.24
40.73
34.78
29.93
26.33
23.82
22.03
20.45
18.55
15.91
12.33
8.06
3.88
0.96
0.54
3.47
9.86
18.95
29.27
39.06
46.77
51.52
53.19
52.43
50.27
47.70
45.39
43.50
41.89
40.33
38.75
37.28
36.11
35.32
34.71
33.97
32.84
31.19
29.12
26.64
23.59
19.70
14.62
8.29
1.00
-6.68
-14.17
-21.11
-27.51
-33.64
-39.72
-45.79
-51.72
-57.17
-61.97
-66.14
-69.87
-73.37
-76.66
-79.35
-80.72
-79.97
-76.49
-70.21
-61.73
-52.06
-42.32
-33.35
-25.61
-19.25
-14.33
-10.88
-9.00
-8.62
-9.35
-10.44
-11.02
-10.42
-8.36
-5.14
-1.29
2.48
5.65
7.93
9.25
9.71
9.49
8.81
7.85
6.68
5.22
3.36
1.00
-1.91
-5.13
-8.31
-11.02
-12.97
-14.11
-14.70
-15.20
-16.00
-17.33
-19.06
-20.86
-22.25
-22.84
-22.36
-20.72
-18.02
-14.48
-10.46
-6.34
-2.64
0.21
1.86
2.17
1.25
-0.63
-2.98
-5.35
-7.25
-8.39
-8.64
-8.13
-7.19
-6.23
-5.68
-5.73
-6.39
-7.47
-8.76
-10.06
-11.36
-12.77
-14.42
-16.36
-18.44
-20.43
-22.19
-23.68
-25.09
-26.68
-28.59
-30.62
-32.20
-32.47
-30.69
-26.48
-20.02
-12.04
-3.61
4.20
10.62
15.24
18.11
19.53
19.84
19.34
18.24
16.65
14.72
12.77
11.22
10.49
10.70
11.63
12.66
13.14
12.53
10.82
8.38
5.75
3.42
1.50
-0.14
-1.74
-3.37
-4.89
-6.13
-7.06
-8.01
-9.47
-11.97
-15.53
-19.56
-22.92
-24.34
-22.97
-18.80
-12.71
-6.02
0.03
4.65
7.68
9.35
9.95
9.70
8.69
7.03
4.94
2.75
0.68
-1.07
-2.45
-3.40
-3.84
-3.75
-3.25
-2.59
-2.09
-1.97
-2.25
-2.79
-3.42
-4.09
-4.85
-5.73
-6.74
-7.87
-9.12
-10.73
-13.03
-16.15
-19.82
-23.33
-25.72
-26.12
-24.14
-19.89
-13.94
-7.13
-0.31
5.78
10.58
13.87
15.70
16.32
16.08
15.29
14.21
13.05
12.02
11.26
10.88
10.86
11.04
11.23
11.27
11.09
10.77
10.30
9.63
8.63
7.10
4.94
2.21
-0.93
-4.25
-7.55
-10.60
-13.30
-15.61
-17.70
-19.89
-22.41
-25.28
-28.00
-29.69
-29.33
-26.21
-20.36
-12.58
-4.19
3.49
9.55
13.72
16.25
17.59
18.05
17.78
16.82
15.30
13.59
12.16
11.45
11.58
12.34
13.15
13.43
12.83
11.39
9.55
7.83
6.65
6.07
5.86
5.70
5.24
4.30
2.81
0.82
-1.55
-4.14
-6.73
-9.20
-11.57
-13.95
-16.52
-19.18
-21.49
-22.65
-21.80
-18.39
-12.45
-4.73
3.58
11.22
17.22
21.10
22.89
22.89
21.63
19.58
17.16
14.70
12.50
10.69
9.34
8.40
7.79
7.54
7.80
8.84
10.92
14.10
18.04
21.98
24.89
25.79
23.97
19.26
12.10
3.34
-5.94
-14.70
-22.14
-27.76
-31.46
-33.53
-34.60
-35.39
-36.52
-38.08
-39.59
-40.03
-38.34
-33.90
-26.83
-17.99
-8.64
0.03
7.24
12.58
16.00
17.45
16.95
14.71
11.23
7.32
3.90
1.75
1.18
2.01
3.70
5.51
6.83
7.28
6.76
5.36
3.35
1.02
-1.32
-3.47
-5.30
-6.80
-8.01
-9.08
-10.10
-11.20
-12.60
-14.48
-17.00
-20.02
-23.05
-25.34
-26.12
-24.92
-21.79
-17.14
-11.64
-5.82
-0.05
5.41
10.24
13.99
16.23
16.71
15.57
13.20
10.18
7.08
4.40
2.56
1.95
2.79
4.95
7.94
10.96
13.09
13.71
12.65
10.17
6.89
3.52
0.65
-1.33
-2.45
-3.11
-3.95
-5.73
-8.97
-13.76
-19.61
-25.50
-30.17
-32.45
-31.60
-27.55
-20.82
-12.39
-3.43
4.98
11.98
17.12
20.28
21.58
21.30
19.77
17.39
14.61
11.93
9.83
8.65
8.47
9.02
9.83
10.34
10.18
9.28
7.91
6.39
4.94
3.55
1.95
-0.12
-2.80
-5.94
-9.32
-12.70
-16.04
-19.50
-23.19
-26.95
-30.16
-31.90
-31.25
-27.71
-21.38
-13.06
-3.91
4.88
12.38
18.11
21.94
23.92
24.20
22.96
20.51
17.35
14.20
11.82
10.82
11.37
13.15
15.42
17.30
18.11
17.61
16.08
14.05
12.06
10.38
8.89
7.25
5.12
2.41
-0.60
-3.49
-5.84
-7.65
-9.35
-11.64
-15.01
-19.46
-24.32
-28.41
-30.42
-29.40
-25.09
-17.99
-9.20
-0.08
8.22
14.96
19.87
23.06
24.72
25.10
24.37
22.79
20.72
18.66
17.11
16.38
16.49
17.14
17.92
18.47
18.66
18.43
17.87
17.02
15.88
14.43
12.70
10.70
8.38
5.61
2.25
-1.68
-5.87
-9.79
-12.91
-15.09
-16.71
-18.61
-21.55
-25.74
-30.48
-34.35
-35.71
-33.49
-27.62
-19.04
-9.23
0.39
8.89
15.94
21.54
25.69
28.23
28.93
27.80
25.28
22.23
19.56
17.91
17.38
17.62
18.13
18.55
18.81
18.99
19.09
18.95
18.28
16.93
14.98
12.69
10.30
7.87
5.23
2.21
-1.13
-4.48
-7.33
-9.32
-10.49
-11.26
-12.31
-14.23
-17.28
-21.27
-25.58
-29.38
-31.73
-31.86
-29.33
-24.24
-17.21
-9.30
-1.64
4.87
9.82
13.25
15.46
16.67
16.88
16.00
14.05
11.43
8.88
7.26
7.09
8.36
10.52
12.74
14.31
14.93
14.60
13.51
11.84
9.65
6.98
3.92
0.80
-2.10
-4.55
-6.64
-8.69
-11.07
-14.09
-17.73
-21.63
-25.14
-27.50
-27.98
-26.11
-21.88
-15.69
-8.34
-0.81
5.99
11.46
15.43
18.05
19.60
20.27
20.05
18.85
16.79
14.27
12.03
10.82
11.00
12.45
14.49
16.32
17.34
17.43
16.83
15.92
14.95
13.86
12.46
10.50
7.99
5.12
2.18
-0.54
-2.88
-4.84
-6.57
-8.31
-10.37
-13.03
-16.49
-20.74
-25.41
-29.74
-32.62
-32.90
-29.88
-23.65
-15.19
-6.10
2.00
8.10
12.01
14.29
15.70
16.76
17.49
17.62
16.92
15.51
13.87
12.53
11.76
11.40
11.01
10.24
9.14
8.12
7.69
8.12
9.15
10.16
10.44
9.57
7.54
4.72
1.57
-1.49
-4.25
-6.61
-8.48
-9.82
-10.61
-10.97
-11.26
-11.98
-13.60
-16.29
-19.74
-23.07
-25.11
-24.83
-21.77
-16.27
-9.34
-2.20
4.18
9.31
13.15
15.78
17.17
17.20
15.88
13.52
10.74
8.33
6.88
6.58
7.19
8.19
9.09
9.56
9.55
9.21
8.69
8.13
7.47
6.55
5.23
3.44
1.27
-1.06
-3.35
-5.44
-7.29
-9.06
-10.94
-13.17
-15.92
-19.16
-22.57
-25.50
-27.09
-26.52
-23.42
-17.92
-10.87
-3.38
3.40
8.68
12.08
13.58
13.44
12.07
9.96
7.54
5.11
2.78
0.56
-1.50
-3.20
-4.19
-4.18
-3.11
-1.38
0.34
1.30
1.05
-0.41
-2.78
-5.61
-8.56
-11.48
-14.30
-16.93
-19.23
-21.13
-22.66
-24.07
-25.64
-27.44
-29.20
-30.16
-29.49
-26.59
-21.44
-14.63
-7.16
-0.06
6.03
10.78
14.18
16.29
17.15
16.79
15.34
13.09
10.53
8.29
7.00
7.12
8.91
12.27
16.80
21.86
26.72
30.86
34.06
36.42
38.31
40.06
41.87
43.76
45.45
46.42
45.82
42.64
35.90
25.07
10.58
-6.11
-22.56
-36.05
-44.37
-46.53
-43.08
-35.82
-27.05
-18.85
-12.53
-8.47
-6.38
-5.66
-5.80
-6.42
-7.32
-8.38
-9.49
-10.52
-11.31
-11.73
-11.62
-10.92
-9.63
-7.95
-6.22
-4.93
-4.46
-5.00
-6.43
-8.46
-10.70
-12.89
-14.92
-16.82
-18.77
-20.89
-23.34
-26.20
-29.36
-32.46
-34.91
-35.99
-35.11
-32.01
-26.85
-20.13
-12.50
-4.66
2.71
8.97
13.57
16.24
17.05
16.45
15.16
13.84
12.91
12.43
12.22
12.10
12.01
12.02
12.22
12.54
12.71
12.37
11.22
9.22
6.60
3.73
1.03
-1.24
-3.08
-4.67
-6.27
-8.10
-10.26
-12.83
-15.83
-19.32
-23.19
-27.06
-30.24
-31.82
-30.95
-27.22
-20.94
-13.04
-4.82
2.58
8.50
12.93
16.15
18.46
19.90
20.31
19.59
18.04
16.33
15.23
15.32
16.62
18.61
20.52
21.67
21.76
20.94
19.67
18.40
17.39
16.64
15.79
14.39
12.00
8.45
3.96
-0.90
-5.44
-9.09
-11.75
-13.75
-15.74
-18.31
-21.77
-26.00
-30.43
-34.16
-36.25
-35.86
-32.55
-26.38
-18.00
-8.55
0.63
8.36
13.97
17.46
19.31
20.13
20.32
19.98
18.97
17.35
15.52
14.21
14.16
15.72
18.65
22.09
25.03
26.64
26.73
25.58
23.90
22.39
21.45
21.08
20.87
20.20
18.51
15.55
11.49
6.86
2.30
-1.73
-5.00
-7.62
-9.87
-12.13
-14.81
-18.33
-22.95
-28.55
-34.39
-39.20
-41.41
-39.81
-34.05
-24.89
-13.93
-3.02
6.35
13.40
18.05
20.68
21.77
21.72
20.76
19.16
17.28
15.63
14.74
14.97
16.32
18.38
20.45
21.84
22.15
21.47
20.20
18.90
17.93
17.29
16.58
15.40
13.42
10.70
7.62
4.74
2.45
0.89
-0.18
-1.21
-2.63
-4.77
-7.73
-11.45
-15.76
-20.42
-25.05
-29.13
-31.94
-32.72
-30.95
-26.53
-19.90
-12.02
-4.04
3.01
8.48
12.26
14.57
15.84
16.43
16.56
16.27
15.61
14.67
13.63
12.63
11.76
11.07
10.53
10.20
10.12
10.37
10.81
11.23
11.31
10.67
9.04
6.29
2.46
-2.15
-6.97
-11.31
-14.55
-16.38
-17.03
-17.10
-17.39
-18.49
-20.60
-23.40
-26.31
-28.65
-29.78
-29.28
-26.94
-22.87
-17.41
-11.15
-4.73
1.34
6.71
11.23
14.67
16.79
17.28
16.09
13.45
10.00
6.61
4.04
2.81
2.98
4.34
6.46
8.92
11.36
13.49
15.08
15.94
15.81
14.59
12.33
9.26
5.82
2.39
-0.76
-3.56
-6.12
-8.60
-11.12
-13.77
-16.60
-19.69
-23.11
-26.85
-30.70
-34.18
-36.62
-37.28
-35.60
-31.43
-24.99
-16.94
-8.22
0.23
7.65
13.64
18.14
21.31
23.34
24.34
24.34
23.42
21.91
20.33
19.32
19.31
20.38
22.17
24.13
25.64
26.36
26.18
25.31
24.08
22.86
21.93
21.40
21.20
21.08
20.70
19.75
18.12
15.96
13.53
11.09
8.69
6.17
3.18
-0.69
-5.67
-11.77
-18.50
-24.97
-30.00
-32.47
-31.70
-27.65
-21.01
-12.88
-4.48
3.21
9.55
14.28
17.35
18.95
19.27
18.59
17.20
15.43
13.59
12.04
11.10
10.93
11.46
12.34
13.06
13.20
12.59
11.40
10.08
9.08
8.62
8.55
8.34
7.37
5.24
1.96
-1.99
-5.93
-9.14
-11.26
-12.38
-13.00
-13.89
-15.77
-19.08
-23.70
-29.02
-33.90
-37.18
-37.91
-35.64
-30.52
-23.24
-14.77
-6.21
1.50
7.69
12.02
14.55
15.59
15.56
14.84
13.64
12.01
10.00
7.78
5.69
4.19
3.67
4.22
5.67
7.54
9.34
10.63
11.20
10.90
9.79
7.89
5.16
1.69
-2.32
-6.50
-10.39
-13.68
-16.31
-18.50
-20.70
-23.33
-26.70
-30.92
-35.78
-40.92
-45.70
-49.32
-50.91
-49.78
-45.65
-38.86
-30.36
-21.49
-13.56
-7.56
-3.83
-2.15
-1.86
-2.23
-2.65
-2.88
-2.92
-2.93
-2.96
-2.82
-2.17
-0.59
2.14
5.99
10.55
15.22
19.38
22.51
24.36
24.95
24.59
23.75
22.95
22.48
22.37
22.31
21.77
20.30
17.62
13.90
9.68
5.84
3.36
3.07
5.49
10.66
18.21
27.41
37.29
46.80
54.90
60.62
63.18
62.10
57.30
49.04
38.07
25.41
12.30
0.04
-10.15
-17.28
-20.90
-21.26
-19.25
-16.24
-13.62
-12.48
-13.29
-15.89
-19.61
-23.65
-27.26
-30.04
-31.87
-33.00
-33.77
-34.67
-36.22
-38.76
-42.35
-46.40
-49.79
-51.05
-48.88
-42.77
-33.31
-22.12
-11.13
-2.04
4.44
8.51
10.87
12.23
12.90
12.89
12.07
10.57
8.85
7.48
6.83
6.96
7.58
8.21
8.51
8.29
7.61
6.53
5.17
3.55
1.72
-0.24
-2.25
-4.21
-6.22
-8.51
-11.45
-15.32
-20.13
-25.55
-30.75
-34.66
-36.25
-34.87
-30.48
-23.70
-15.64
-7.54
-0.41
5.13
8.89
11.05
11.87
11.67
10.68
9.17
7.41
5.74
4.52
3.97
4.12
4.78
5.66
6.45
6.95
7.13
7.08
6.90
6.52
5.78
4.46
2.35
-0.56
-4.14
-8.16
-12.41
-16.77
-21.21
-25.69
-29.94
-33.36
-35.06
-34.14
-30.08
-23.05
-13.99
-4.34
4.52
11.66
16.92
20.59
23.11
24.70
25.21
24.41
22.33
19.44
16.57
14.59
13.95
14.54
15.79
16.98
17.67
17.67
17.09
16.03
14.50
12.41
9.72
6.61
3.48
0.74
-1.44
-3.34
-5.56
-8.76
-13.37
-19.28
-25.70
-31.51
-35.39
-36.34
-33.95
-28.46
-20.69
-11.72
-2.60
5.87
13.20
19.17
23.66
26.56
27.85
27.57
26.02
23.76
21.56
20.12
19.86
20.76
22.33
23.90
24.94
25.30
25.11
24.62
23.90
22.75
20.83
17.90
14.11
9.91
5.89
2.53
-0.05
-2.11
-4.14
-6.77
-10.54
-15.72
-22.09
-29.01
-35.31
-39.69
-40.99
-38.58
-32.56
-23.71
-13.22
-2.53
7.13
14.85
20.14
22.96
23.58
22.52
20.40
17.92
15.73
14.30
13.87
14.35
15.46
16.76
17.83
18.36
18.17
17.21
15.55
13.45
11.20
9.07
7.13
5.20
2.92
0.00
-3.60
-7.55
-11.33
-14.59
-17.34
-19.97
-23.10
-27.12
-31.89
-36.61
-40.12
-41.25
-39.30
-34.32
-26.99
-18.41
-9.70
-1.72
5.07
10.51
14.61
17.44
19.04
19.46
18.78
17.21
15.02
12.63
10.47
8.99
8.48
9.01
10.35
12.01
13.40
13.97
13.50
12.06
10.04
7.82
5.61
3.42
1.13
-1.45
-4.38
-7.67
-11.37
-15.56
-20.32
-25.45
-30.31
-33.87
-34.97
-32.76
-27.21
-19.03
-9.53
-0.06
8.34
15.20
20.46
24.33
26.93
28.24
28.15
26.62
23.91
20.57
17.37
14.98
13.76
13.65
14.23
14.96
15.37
15.22
14.44
13.07
11.11
8.54
5.39
1.86
-1.79
-5.29
-8.57
-11.79
-15.33
-19.44
-24.13
-28.87
-32.87
-35.07
-34.68
-31.37
-25.40
-17.50
-8.69
-0.02
7.70
13.91
18.37
21.04
21.98
21.36
19.43
16.72
13.85
11.46
9.97
9.52
9.95
11.01
12.47
14.19
16.00
17.64
18.68
18.69
17.45
15.02
11.76
8.22
4.81
1.76
-1.09
-4.15
-7.96
-12.91
-19.02
-25.75
-32.03
-36.55
-38.08
-36.03
-30.55
-22.51
-13.22
-4.04
3.91
9.99
13.94
15.95
16.46
16.10
15.50
15.11
15.10
15.39
15.70
15.70
15.18
14.15
12.89
11.81
11.21
11.18
11.42
11.34
10.33
7.90
4.04
-0.86
-6.11
-11.07
-15.25
-18.65
-21.51
-24.29
-27.48
-31.36
-35.85
-40.39
-43.88
-45.05
-42.80
-36.77
-27.52
-16.49
-5.43
4.21
11.66
16.80
19.94
21.44
21.49
20.20
17.83
14.89
12.09
10.07
9.24
9.67
11.12
13.17
15.34
17.13
18.11
18.04
16.90
14.86
12.18
9.09
5.72
2.16
-1.51
-5.20
-8.89
-12.74
-17.04
-22.12
-28.04
-34.36
-40.11
-43.99
-44.87
-42.08
-35.74
-26.67
-16.15
-5.64
3.66
11.04
16.33
19.81
21.99
23.32
24.07
24.27
23.95
23.20
22.29
21.56
21.22
21.26
21.34
21.03
20.05
18.39
16.38
14.40
12.70
11.20
9.58
7.43
4.54
1.01
-2.81
-6.50
-9.82
-12.81
-15.82
-19.29
-23.50
-28.35
-33.29
-37.41
-39.65
-39.19
-35.61
-29.03
-20.12
-9.96
0.25
9.37
16.58
21.44
23.91
24.29
23.07
20.77
17.90
14.82
11.87
9.29
7.29
6.07
5.72
6.19
7.22
8.38
9.10
8.91
7.60
5.29
2.40
-0.60
-3.31
-5.61
-7.56
-9.35
-11.07
-12.60
-13.71
-14.20
-14.03
-13.28
-12.07
-10.36
-7.81
-3.81
2.27
10.87
22.00
35.11
49.29
63.29
75.70
85.00
89.69
88.54
80.98
67.49
49.68
30.13
11.70
-3.24
-13.36
-18.62
-19.94
-18.65
-15.96
-12.78
-9.72
-7.34
-6.14
-6.49
-8.49
-11.73
-15.51
-18.93
-21.44
-22.93
-23.82
-24.89
-26.95
-30.61
-35.98
-42.57
-49.27
-54.56
-57.00
-55.70
-50.59
-42.47
-32.65
-22.45
-12.90
-4.63
2.15
7.38
11.14
13.55
14.81
15.18
14.91
14.23
13.28
12.25
11.31
10.67
10.47
10.79
11.52
12.51
13.55
14.42
14.87
14.67
13.65
11.84
9.35
6.47
3.40
0.23
-3.10
-6.76
-10.85
-15.37
-20.18
-25.04
-29.59
-33.37
-35.74
-36.07
-33.84
-28.93
-21.69
-12.90
-3.63
5.12
12.50
17.94
21.15
22.15
21.24
19.00
16.25
13.84
12.39
12.14
12.95
14.36
15.88
17.17
18.04
18.43
18.26
17.45
15.94
13.76
11.13
8.31
5.56
2.98
0.51
-2.00
-4.72
-7.82
-11.52
-15.98
-21.32
-27.30
-33.30
-38.28
-41.08
-40.78
-37.06
-30.26
-21.28
-11.34
-1.60
7.00
13.86
18.66
21.35
22.10
21.25
19.31
16.87
14.49
12.67
11.75
11.80
12.73
14.20
15.84
17.22
18.02
18.02
17.17
15.61
13.52
11.06
8.26
5.13
1.68
-1.87
-5.17
-7.92
-10.09
-12.09
-14.68
-18.48
-23.56
-29.32
-34.45
-37.50
-37.44
-33.91
-27.31
-18.57
-8.86
0.70
9.19
16.00
20.82
23.66
24.74
24.37
22.94
20.83
18.38
15.98
14.06
12.94
12.79
13.57
14.99
16.60
17.97
18.68
18.48
17.23
15.00
12.04
8.76
5.59
2.82
0.50
-1.58
-3.81
-6.56
-10.15
-14.71
-20.14
-26.05
-31.67
-35.87
-37.45
-35.49
-29.77
-21.01
-10.73
-0.68
7.66
13.58
17.10
18.71
18.93
18.12
16.46
14.20
11.77
9.77
8.74
8.94
10.16
11.82
13.18
13.70
13.21
11.90
10.20
8.43
6.67
4.73
2.29
-0.86
-4.69
-8.88
-13.05
-16.95
-20.57
-24.14
-27.83
-31.39
-34.17
-35.19
-33.64
-29.25
-22.45
-14.27
-5.88
1.74
8.07
12.98
16.42
18.38
18.78
17.64
15.27
12.25
9.23
6.70
4.88
3.71
3.10
2.89
3.06
3.53
4.10
4.49
4.39
3.61
2.04
-0.31
-3.44
-7.32
-11.87
-16.95
-22.31
-27.72
-32.89
-37.44
-40.74
-42.07
-40.74
-36.46
-29.59
-21.05
-12.04
-3.62
3.59
9.34
13.65
16.51
17.83
17.60
16.04
13.65
11.06
8.88
7.54
7.14
7.53
8.33
9.01
9.11
8.31
6.60
4.30
1.90
-0.17
-1.72
-2.85
-3.89
-5.22
-7.22
-10.19
-14.29
-19.43
-25.13
-30.43
-33.99
-34.47
-31.00
-23.53
-12.95
-0.80
11.15
21.53
29.69
35.85
40.92
46.13
52.43
59.90
67.49
73.28
75.07
71.32
61.73
47.43
30.61
13.78
-1.00
-12.48
-20.38
-25.14
-27.51
-28.25
-28.02
-27.37
-26.74
-26.56
-27.20
-28.92
-31.84
-35.81
-40.44
-45.11
-49.13
-51.79
-52.46
-50.68
-46.17
-38.98
-29.55
-18.80
-7.98
1.63
9.01
13.66
15.63
15.42
13.80
11.53
9.20
7.22
5.81
5.14
5.21
5.94
7.14
8.40
9.31
9.54
8.97
7.70
5.95
3.89
1.55
-1.14
-4.27
-7.83
-11.73
-15.89
-20.33
-25.02
-29.72
-33.69
-35.87
-35.21
-31.20
-24.23
-15.55
-6.70
1.04
7.07
11.41
14.41
16.25
16.86
15.94
13.41
9.68
5.64
2.34
0.61
0.60
1.83
3.40
4.44
4.46
3.47
1.80
-0.15
-2.18
-4.31
-6.68
-9.42
-12.65
-16.42
-20.73
-25.47
-30.38
-34.85
-38.09
-39.28
-37.79
-33.49
-26.75
-18.27
-8.90
0.59
9.54
17.37
23.55
27.61
29.23
28.51
26.01
22.75
19.92
18.49
18.84
20.65
23.09
25.26
26.45
26.39
25.14
23.05
20.48
17.70
14.86
11.93
8.66
4.68
-0.40
-6.72
-14.01
-21.39
-27.67
-31.51
-31.97
-28.70
-22.04
-12.99
-2.88
6.92
15.33
21.81
26.24
28.78
29.56
28.63
26.03
22.07
17.49
13.37
10.79
10.38
11.96
14.65
17.26
18.78
18.79
17.43
15.18
12.45
9.51
6.35
2.90
-0.83
-4.80
-8.98
-13.46
-18.45
-24.09
-30.22
-36.15
-40.78
-42.79
-41.14
-35.39
-25.91
-13.74
-0.34
12.78
24.41
33.80
40.74
45.44
48.40
50.23
51.57
52.96
54.74
56.86
58.87
59.87
58.77
54.74
47.49
37.52
25.93
14.16
3.39
-5.68
-12.96
-18.71
-23.25
-26.77
-29.28
-30.79
-31.46
-31.69
-32.07
-33.26
-35.71
-39.43
-43.89
-48.09
-50.75
-50.72
-47.30
-40.48
-30.95
-19.83
-8.38
2.26
11.26
18.04
22.35
24.27
24.20
22.87
21.18
19.93
19.57
20.08
21.10
22.13
22.80
23.05
23.00
22.91
22.92
23.01
22.92
22.27
20.71
17.97
14.05
9.23
3.99
-1.13
-5.62
-9.26
-12.16
-14.79
-17.86
-22.05
-27.67
-34.40
-41.20
-46.54
-48.90
-47.28
-41.51
-32.29
-20.90
-8.82
2.65
12.50
20.07
25.04
27.30
27.14
25.09
21.99
18.83
16.51
15.69
16.51
18.67
21.43
23.89
25.32
25.40
24.29
22.41
20.28
18.20
16.28
14.33
12.14
9.48
6.33
2.91
-0.40
-3.19
-5.26
-6.73
-8.14
-10.17
-13.40
-18.04
-23.83
-30.09
-35.94
-40.44
-42.72
-42.09
-38.12
-30.85
-20.93
-9.69
1.27
10.45
16.94
20.67
22.20
22.38
21.92
21.21
20.39
19.57
18.95
18.83
19.38
20.54
21.93
23.08
23.63
23.53
22.93
22.03
20.91
19.41
17.26
14.25
10.41
6.09
1.74
-2.17
-5.42
-8.10
-10.55
-13.22
-16.54
-20.77
-26.00
-32.00
-38.19
-43.70
-47.44
-48.37
-45.87
-40.08
-32.00
-23.12
-14.94
-8.37
-3.57
-0.02
2.93
5.68
8.11
9.85
10.59
10.50
10.25
10.73
12.68
16.31
21.26
26.83
32.30
37.30
41.75
45.71
49.18
51.91
53.60
54.06
53.44
52.09
50.17
47.43
42.99
35.75
24.86
10.28
-7.01
-25.16
-41.96
-55.26
-63.55
-66.22
-63.51
-56.49
-46.77
-36.12
-26.01
-17.41
-10.64
-5.63
-2.14
0.04
0.97
0.79
-0.25
-1.72
-3.08
-3.85
-3.72
-2.66
-0.96
0.94
2.67
4.03
5.03
5.73
6.00
5.58
4.16
1.70
-1.48
-4.73
-7.36
-9.05
-10.00
-10.89
-12.55
-15.55
-19.90
-24.97
-29.53
-32.27
-32.07
-28.41
-21.51
-12.23
-1.86
8.18
16.69
22.92
26.66
28.19
28.09
27.07
25.73
24.46
23.44
22.58
21.78
20.92
20.01
19.21
18.73
18.71
19.19
19.98
20.66
20.75
19.86
17.87
14.93
11.35
7.39
3.18
-1.19
-5.53
-9.61
-13.28
-16.64
-20.06
-24.00
-28.50
-33.01
-36.33
-37.08
-34.22
-27.58
-17.92
-6.73
4.37
13.99
21.32
26.04
28.23
28.20
26.36
23.33
19.89
16.84
14.81
14.07
14.47
15.46
16.41
16.81
16.47
15.46
14.03
12.33
10.36
7.91
4.74
0.74
-3.95
-8.87
-13.47
-17.31
-20.31
-22.81
-25.39
-28.72
-33.15
-38.63
-44.46
-49.63
-52.95
-53.46
-50.63
-44.56
-35.92
-25.67
-14.96
-4.85
3.77
10.30
14.42
16.23
16.20
15.14
13.89
13.04
12.78
12.95
13.32
13.80
14.52
15.64
17.14
18.74
19.88
20.03
18.80
16.18
12.43
8.02
3.54
-0.54
-3.90
-6.51
-8.60
-10.63
-13.16
-16.61
-21.15
-26.50
-31.99
-36.67
-39.43
-39.36
-35.90
-29.11
-19.69
-8.83
2.03
11.57
18.86
23.40
25.14
24.44
21.89
18.29
14.39
10.85
8.08
6.28
5.43
5.39
5.90
6.67
7.39
7.75
7.52
6.55
4.86
2.58
-0.11
-2.96
-5.79
-8.45
-10.92
-13.30
-15.79
-18.57
-21.77
-25.32
-28.98
-32.30
-34.70
-35.50
-34.04
-29.93
-23.23
-14.61
-5.21
3.67
10.87
15.79
18.37
18.95
18.03
16.08
13.50
10.63
7.89
5.75
4.67
4.88
6.26
8.39
10.65
12.39
13.15
12.78
11.35
9.14
6.49
3.73
1.04
-1.50
-3.95
-6.59
-9.72
-13.64
-18.45
-23.94
-29.54
-34.32
-37.21
-37.25
-33.89
-27.26
-18.23
-8.16
1.49
9.53
15.37
18.93
20.45
20.25
18.62
15.87
12.46
9.05
6.39
5.04
5.15
6.42
8.18
9.72
10.41
9.97
8.45
6.13
3.39
0.54
-2.30
-5.21
-8.34
-11.77
-15.54
-19.54
-23.56
-27.31
-30.39
-32.22
-32.14
-29.60
-24.36
-16.70
-7.41
2.35
11.46
18.98
24.35
27.36
28.07
26.81
24.07
20.51
16.89
13.83
11.75
10.75
10.64
10.98
11.25
10.99
10.00
8.34
6.23
3.99
1.80
-0.30
-2.51
-5.14
-8.57
-13.09
-18.71
-25.04
-31.24
-36.11
-38.47
-37.49
-33.13
-26.04
-17.43
-8.54
-0.33
6.68
12.27
16.32
18.68
19.20
17.90
15.15
11.67
8.34
5.93
4.77
4.71
5.22
5.65
5.55
4.83
3.68
2.39
1.17
0.01
-1.30
-3.04
-5.47
-8.74
-12.86
-17.75
-23.12
-28.41
-32.72
-34.98
-34.15
-29.72
-21.96
-11.97
-1.35
8.31
15.89
21.02
23.97
25.30
25.45
24.54
22.58
19.64
16.22
13.07
10.93
10.10
10.30
10.76
10.72
9.82
8.23
6.42
4.74
3.18
1.39
-1.13
-4.65
-9.13
-14.34
-20.02
-25.92
-31.70
-36.64
-39.81
-40.14
-37.01
-30.60
-21.80
-11.95
-2.26
6.47
13.78
19.42
23.07
24.37
23.22
20.00
15.62
11.30
8.17
6.84
7.23
8.74
10.51
11.74
11.95
11.06
9.36
7.30
5.36
3.74
2.30
0.60
-1.89
-5.51
-10.36
-16.13
-22.27
-28.04
-32.60
-35.09
-34.78
-31.27
-24.66
-15.63
-5.26
5.17
14.58
22.21
27.71
31.00
32.19
31.49
29.29
26.17
22.77
19.75
17.50
16.16
15.66
15.74
16.03
16.17
15.83
14.78
13.01
10.67
8.03
5.25
2.42
-0.59
-3.93
-7.70
-11.95
-16.70
-21.94
-27.59
-33.27
-38.15
-40.99
-40.54
-36.10
-27.94
-17.31
-6.10
3.83
11.20
15.60
17.36
17.25
16.04
14.36
12.66
11.18
10.15
9.75
10.10
11.14
12.64
14.29
15.83
17.31
18.95
20.98
23.38
25.59
26.58
25.24
20.84
13.47
4.05
-6.04
-15.53
-23.79
-30.85
-37.10
-42.74
-47.53
-50.66
-51.15
-48.25
-41.82
-32.45
-21.34
-9.93
0.56
9.29
16.00
20.76
23.86
25.54
26.00
25.43
24.18
22.73
21.57
20.99
20.97
21.26
21.59
21.77
21.80
21.66
21.16
20.04
18.08
15.28
11.97
8.61
5.53
2.79
0.19
-2.54
-5.54
-8.82
-12.39
-16.32
-20.65
-25.22
-29.42
-32.27
-32.69
-29.95
-24.02
-15.60
-5.89
3.73
12.08
18.39
22.36
24.11
24.06
22.76
20.78
18.61
16.57
14.96
14.00
13.83
14.51
15.82
17.32
18.46
18.74
17.91
16.09
13.57
10.71
7.87
5.25
2.95
0.93
-0.97
-3.00
-5.52
-8.90
-13.31
-18.53
-23.90
-28.36
-30.73
-30.12
-26.27
-19.73
-11.65
-3.40
3.89
9.59
13.59
16.01
17.04
16.82
15.56
13.64
11.65
10.18
9.68
10.31
11.80
13.73
15.59
16.92
17.47
17.13
16.10
14.72
13.40
12.33
11.37
10.01
7.62
3.72
-1.79
-8.50
-15.57
-21.93
-26.51
-28.47
-27.43
-23.52
-17.34
-9.79
-1.77
5.95
12.82
18.43
22.45
24.56
24.63
22.80
19.54
15.54
11.56
8.24
5.92
4.63
4.10
3.90
3.60
2.90
1.69
0.08
-1.75
-3.63
-5.52
-7.45
-9.49
-11.77
-14.44
-17.72
-21.80
-26.65
-31.75
-36.05
-38.29
-37.35
-32.83
-25.24
-15.86
-6.28
2.14
8.70
13.26
16.02
17.15
16.67
14.57
11.13
7.04
3.30
0.88
0.18
0.95
2.25
3.11
2.86
1.50
-0.44
-2.24
-3.46
-4.12
-4.66
-5.68
-7.64
-10.69
-14.63
-19.12
-23.70
-27.92
-31.26
-33.11
-32.87
-30.15
-24.98
-17.88
-9.81
-1.90
4.95
10.15
13.54
15.23
15.38
14.27
12.16
9.46
6.61
4.13
2.36
1.43
1.27
1.63
2.20
2.65
2.71
2.14
0.77
-1.35
-4.01
-6.90
-9.76
-12.46
-15.15
-17.99
-21.00
-23.91
-26.06
-26.67
-25.08
-21.01
-14.71
-6.95
1.24
8.81
14.83
18.76
20.41
19.87
17.43
13.62
9.00
4.30
0.27
-2.48
-3.64
-3.35
-2.14
-0.75
0.17
0.30
-0.34
-1.45
-2.77
-4.16
-5.76
-7.89
-10.88
-14.89
-19.81
-25.12
-30.02
-33.56
-34.88
-33.45
-29.23
-22.54
-14.09
-4.78
4.35
12.17
17.64
20.05
19.27
15.90
11.21
6.71
3.68
2.75
3.81
6.09
8.61
10.53
11.42
11.21
10.11
8.41
6.41
4.31
2.19
-0.03
-2.59
-5.92
-10.40
-16.15
-22.71
-29.06
-33.80
-35.76
-34.38
-29.96
-23.45
-16.02
-8.63
-1.83
4.14
9.12
12.85
14.96
15.24
13.78
11.13
8.09
5.55
4.15
4.18
5.66
8.30
11.67
15.37
19.01
22.37
25.27
27.65
29.51
30.80
31.38
30.84
28.48
23.41
15.03
3.44
-10.26
-24.01
-35.46
-42.66
-44.71
-41.88
-35.37
-26.70
-17.35
-8.52
-1.14
4.08
6.73
6.92
5.29
2.91
0.97
0.39
1.53
4.11
7.36
10.34
12.21
12.47
11.14
8.68
5.85
3.38
1.69
0.76
0.14
-0.85
-2.89
-6.47
-11.67
-18.09
-24.86
-30.67
-34.14
-34.18
-30.35
-23.12
-13.73
-3.79
5.27
12.52
17.78
21.33
23.53
24.63
24.61
23.49
21.47
19.16
17.38
16.86
17.90
20.20
22.97
25.23
26.15
25.42
23.22
20.12
16.78
13.66
10.87
8.22
5.36
2.08
-1.62
-5.59
-9.69
-13.99
-18.72
-23.94
-29.23
-33.53
-35.32
-33.34
-27.15
-17.52
-6.16
5.00
14.44
21.42
25.95
28.38
29.08
28.36
26.55
24.23
22.12
20.86
20.72
21.48
22.57
23.37
23.51
22.94
21.91
20.58
18.98
16.95
14.31
11.11
7.60
4.20
1.24
-1.20
-3.28
-5.34
-7.67
-10.49
-13.88
-17.97
-22.79
-28.21
-33.59
-37.82
-39.50
-37.58
-31.85
-23.11
-12.95
-3.07
5.30
11.67
16.22
19.28
21.14
21.85
21.49
20.29
18.70
17.29
16.45
16.29
16.71
17.45
18.27
18.94
19.33
19.31
18.78
17.65
15.84
13.33
10.11
6.26
1.99
-2.40
-6.50
-10.05
-12.97
-15.51
-18.21
-21.68
-26.26
-31.79
-37.36
-41.60
-43.07
-40.81
-34.80
-26.02
-16.12
-6.75
1.01
6.80
10.91
13.70
15.36
15.82
14.98
13.07
10.68
8.59
7.40
7.28
8.01
9.16
10.32
11.26
11.83
11.89
11.24
9.72
7.37
4.52
1.72
-0.62
-2.37
-3.87
-5.73
-8.58
-12.77
-18.18
-24.25
-30.05
-34.56
-36.87
-36.43
-33.12
-27.33
-19.76
-11.35
-2.99
4.61
11.00
15.95
19.30
20.97
21.00
19.59
17.24
14.61
12.42
11.15
11.01
11.85
13.29
14.89
16.28
17.12
17.15
16.15
14.02
10.88
7.05
2.96
-0.99
-4.67
-8.25
-12.08
-16.41
-21.21
-26.13
-30.52
-33.61
-34.76
-33.53
-29.75
-23.67
-15.81
-7.05
1.55
8.95
14.40
17.58
18.62
17.92
16.02
13.40
10.47
7.72
5.62
4.56
4.65
5.70
7.24
8.73
9.73
10.06
9.71
8.73
7.17
5.08
2.60
-0.04
-2.66
-5.22
-8.01
-11.56
-16.33
-22.33
-28.84
-34.45
-37.60
-37.11
-32.75
-25.23
-16.03
-6.72
1.45
7.79
12.14
14.55
15.17
14.13
11.69
8.33
4.68
1.40
-1.04
-2.44
-2.94
-2.83
-2.50
-2.31
-2.54
-3.34
-4.79
-6.91
-9.73
-13.32
-17.72
-22.93
-28.74
-34.77
-40.64
-46.04
-50.90
-55.29
-59.17
-62.13
-63.18
-60.97
-54.27
-42.56
-26.44
-7.69
11.41
28.69
42.82
53.51
61.30
67.17
72.14
76.95
81.82
86.37
89.66
90.38
87.28
79.70
68.07
53.73
38.62
24.55
12.67
3.37
-3.57
-8.53
-11.87
-13.88
-14.99
-15.84
-17.13
-19.43
-23.06
-27.92
-33.59
-39.44
-44.73
-48.69
-50.59
-49.80
-45.96
-39.13
-29.85
-19.15
-8.25
1.65
9.70
15.54
19.27
21.29
22.10
22.06
21.36
20.09
18.42
16.75
15.63
15.62
16.96
19.35
22.08
24.27
25.18
24.57
22.62
19.88
16.88
13.88
10.86
7.58
3.80
-0.50
-5.15
-9.81
-14.31
-18.70
-23.17
-27.81
-32.27
-35.63
-36.64
-34.30
-28.35
-19.54
-9.40
0.40
8.63
14.88
19.32
22.32
24.14
24.82
24.31
22.81
20.76
18.74
17.26
16.50
16.41
16.75
17.36
18.20
19.19
20.09
20.53
20.08
18.47
15.72
12.17
8.25
4.34
0.60
-2.99
-6.55
-10.12
-13.72
-17.38
-21.14
-25.01
-28.79
-31.87
-33.34
-32.26
-28.03
-20.82
-11.55
-1.65
7.37
14.35
18.74
20.59
20.32
18.54
15.79
12.57
9.32
6.55
4.75
4.27
5.15
7.01
9.15
10.76
11.26
10.48
8.65
6.23
3.57
0.85
-1.98
-5.00
-8.19
-11.48
-14.83
-18.39
-22.31
-26.71
-31.40
-35.80
-39.06
-40.30
-38.86
-34.58
-27.81
-19.31
-10.07
-1.13
6.63
12.61
16.50
18.37
18.53
17.54
15.97
14.46
13.47
13.33
14.09
15.52
17.22
18.63
19.31
19.07
17.96
16.23
14.17
11.89
9.33
6.34
2.80
-1.27
-5.79
-10.80
-16.36
-22.55
-29.16
-35.46
-40.24
-42.24
-40.56
-35.15
-26.91
-17.36
-7.97
0.25
6.95
12.25
16.25
18.86
19.80
18.86
16.34
13.00
9.94
8.12
7.96
9.22
11.15
12.92
13.91
13.96
13.23
12.02
10.62
9.10
7.40
5.36
2.84
-0.19
-3.75
-7.92
-12.81
-18.46
-24.57
-30.39
-34.78
-36.53
-34.84
-29.71
-21.97
-13.00
-4.18
3.50
9.61
14.08
16.98
18.35
18.20
16.75
14.42
11.79
9.47
7.89
7.26
7.58
8.68
10.23
11.83
12.99
13.31
12.53
10.67
7.94
4.75
1.43
-1.79
-4.86
-7.85
-10.96
-14.40
-18.40
-22.92
-27.60
-31.73
-34.42
-34.88
-32.72
-28.10
-21.64
-14.16
-6.51
0.68
6.96
12.07
15.82
18.16
19.21
19.19
18.44
17.25
15.90
14.71
13.99
14.03
14.95
16.58
18.48
20.06
20.84
20.61
19.37
17.31
14.57
11.22
7.30
2.93
-1.69
-6.30
-10.76
-15.10
-19.53
-24.27
-29.41
-34.74
-39.64
-43.21
-44.41
-42.38
-36.87
-28.35
-18.00
-7.40
2.00
9.29
14.19
16.99
18.19
18.23
17.37
15.79
13.77
11.74
10.23
9.66
10.09
11.22
12.49
13.33
13.40
12.73
11.56
10.19
8.75
7.16
5.15
2.42
-1.10
-5.18
-9.34
-13.03
-15.94
-18.24
-20.50
-23.48
-27.80
-33.44
-39.70
-45.23
-48.51
-48.42
-44.56
-37.36
-27.84
-17.24
-6.60
3.39
12.27
19.75
25.47
29.16
30.78
30.71
29.74
28.83
28.68
29.51
30.96
32.37
33.21
33.36
33.09
32.78
32.61
32.29
31.33
29.24
25.99
21.91
17.56
13.40
9.55
5.81
1.86
-2.45
-7.13
-12.06
-17.22
-22.73
-28.64
-34.70
-40.10
-43.66
-44.12
-40.76
-33.74
-24.08
-13.45
-3.55
4.42
10.01
13.41
15.22
16.01
16.18
15.85
15.13
14.13
13.14
12.47
12.36
12.86
13.76
14.67
15.18
15.03
14.14
12.65
10.78
8.81
6.90
5.10
3.32
1.41
-0.83
-3.62
-7.06
-11.24
-16.01
-21.09
-26.05
-30.35
-33.42
-34.71
-33.76
-30.35
-24.60
-17.00
-8.38
0.27
7.99
14.05
18.06
19.99
20.10
18.92
17.06
15.20
13.87
13.38
13.65
14.37
15.04
15.25
14.74
13.52
11.76
9.70
7.59
5.63
3.92
2.44
1.00
-0.71
-3.03
-6.25
-10.50
-15.62
-21.23
-26.69
-31.32
-34.36
-35.19
-33.38
-28.85
-21.91
-13.33
-4.13
4.57
11.86
17.20
20.50
21.98
22.01
20.93
19.00
16.49
13.78
11.37
9.68
8.88
8.66
8.35
7.24
4.90
1.44
-2.57
-6.43
-9.66
-12.22
-14.55
-17.16
-20.52
-24.71
-29.60
-34.83
-39.92
-44.35
-47.53
-48.94
-48.13
-44.92
-39.44
-32.15
-23.70
-14.89
-6.47
0.87
6.64
10.57
12.62
13.02
12.15
10.56
8.81
7.45
6.94
7.59
9.51
12.51
16.14
19.81
22.97
25.29
26.79
27.73
28.50
29.33
30.15
30.56
30.06
28.27
25.15
21.00
16.41
12.00
8.40
6.09
5.40
6.44
8.90
12.12
15.04
16.68
16.41
14.29
10.92
7.22
3.87
1.13
-1.18
-3.30
-5.28
-6.86
-7.55
-6.95
-4.94
-1.78
1.90
5.42
8.18
9.81
10.21
9.58
8.27
6.67
5.07
3.45
1.56
-0.90
-4.14
-8.06
-12.42
-16.87
-21.23
-25.37
-29.13
-31.99
-33.15
-31.71
-27.19
-19.77
-10.39
-0.46
8.71
16.23
21.92
25.90
28.44
29.68
29.64
28.38
26.20
23.69
21.46
19.97
19.35
19.29
19.31
18.94
17.98
16.54
14.96
13.58
12.44
11.25
9.44
6.57
2.52
-2.32
-7.24
-11.56
-15.06
-18.03
-21.05
-24.51
-28.14
-31.00
-31.80
-29.56
-24.14
-16.31
-7.44
1.08
8.30
13.79
17.56
19.82
20.76
20.63
19.78
18.57
17.41
16.55
16.01
15.63
15.22
14.72
14.24
13.93
13.82
13.72
13.26
12.07
9.98
7.12
3.86
0.60
-2.38
-5.00
-7.32
-9.45
-11.52
-13.68
-16.21
-19.34
-23.13
-27.17
-30.62
-32.31
-31.35
-27.37
-20.84
-12.84
-4.64
2.66
8.36
12.27
14.55
15.56
15.77
15.58
15.20
14.72
14.11
13.37
12.59
11.94
11.57
11.54
11.75
12.01
12.13
11.92
11.28
10.04
8.09
5.47
2.41
-0.64
-3.23
-5.19
-6.74
-8.43
-10.83
-14.16
-18.16
-22.09
-25.10
-26.47
-25.85
-23.22
-18.89
-13.30
-7.06
-0.78
4.95
9.64
12.97
14.86
15.31
14.44
12.41
9.53
6.21
2.97
0.34
-1.32
-1.95
-1.79
-1.30
-0.91
-0.88
-1.23
-1.82
-2.47
-3.18
-4.08
-5.45
-7.50
-10.33
-13.88
-18.01
-22.43
-26.75
-30.41
-32.73
-33.03
-30.86
-26.19
-19.56
-11.89
-4.23
2.60
8.08
12.05
14.46
15.29
14.51
12.24
8.84
4.98
1.54
-0.75
-1.46
-0.65
1.17
3.29
5.06
6.12
6.39
6.00
5.07
3.66
1.81
-0.45
-3.07
-5.99
-9.15
-12.62
-16.43
-20.46
-24.32
-27.33
-28.75
-27.92
-24.59
-18.98
-11.81
-4.06
3.20
9.12
13.24
15.55
16.34
16.01
14.92
13.19
10.96
8.41
5.94
4.03
3.02
3.00
3.63
4.39
4.78
4.52
3.52
1.86
-0.30
-2.78
-5.43
-8.21
-11.24
-14.71
-18.86
-23.59
-28.35
-32.20
-34.11
-33.45
-30.21
-24.99
-18.67
-12.03
-5.53
0.53
5.89
10.12
12.69
13.22
11.78
8.88
5.40
2.25
0.03
-1.04
-1.13
-0.61
0.19
1.01
1.67
1.97
1.78
0.93
-0.59
-2.65
-4.98
-7.41
-9.93
-12.80
-16.38
-20.71
-25.39
-29.42
-31.50
-30.62
-26.39
-19.29
-10.54
-1.51
6.62
13.25
18.27
21.85
24.12
25.06
24.61
22.78
19.88
16.59
13.61
11.58
10.72
10.81
11.33
11.70
11.50
10.57
9.07
7.24
5.40
3.75
2.27
0.75
-1.15
-3.79
-7.40
-11.96
-17.20
-22.64
-27.73
-31.90
-34.59
-35.24
-33.34
-28.65
-21.33
-12.15
-2.36
6.68
13.89
18.76
21.29
21.99
21.44
20.28
19.05
18.14
17.81
18.09
18.86
19.82
20.67
21.11
20.95
20.05
18.30
15.71
12.45
8.86
5.38
2.30
-0.35
-2.88
-5.75
-9.39
-13.89
-19.07
-24.39
-29.13
-32.57
-34.11
-33.37
-30.25
-25.02
-18.14
-10.22
-1.96
5.95
12.84
18.13
21.41
22.66
22.14
20.43
18.20
15.95
14.00
12.45
11.29
10.64
10.63
11.27
12.28
13.12
13.16
12.06
9.92
7.26
4.66
2.42
0.44
-1.65
-4.19
-7.14
-10.21
-13.11
-15.87
-18.85
-22.42
-26.43
-29.91
-31.33
-29.34
-23.54
-14.82
-5.04
3.85
10.63
15.10
17.87
19.65
20.78
21.12
20.31
18.27
15.41
12.49
10.31
9.28
9.33
10.06
10.90
11.45
11.46
10.86
9.68
7.98
5.93
3.69
1.44
-0.75
-2.98
-5.51
-8.68
-12.76
-17.78
-23.39
-28.90
-33.42
-36.09
-36.29
-33.85
-29.03
-22.51
-15.19
-7.92
-1.45
3.81
7.79
10.68
12.75
14.18
15.08
15.64
16.28
17.76
20.93
26.15
32.88
39.55
44.09
44.69
40.67
32.77
22.77
12.66
3.78
-3.42
-9.31
-14.42
-19.13
-23.50
-27.56
-31.41
-35.20
-38.92
-42.11
-43.89
-43.26
-39.57
-32.89
-24.03
-14.22
-4.70
3.61
10.25
15.04
17.94
18.98
18.29
16.27
13.56
11.00
9.28
8.74
9.22
10.14
10.82
10.73
9.69
7.92
5.80
3.62
1.45
-0.77
-3.18
-5.79
-8.61
-11.72
-15.35
-19.75
-24.92
-30.28
-34.70
-36.84
-35.70
-31.12
-23.84
-15.14
-6.29
1.89
9.08
15.18
20.02
23.29
24.72
24.32
22.51
20.01
17.55
15.69
14.63
14.30
14.49
14.88
15.16
15.09
14.44
13.11
11.11
8.57
5.70
2.61
-0.67
-4.30
-8.52
-13.55
-19.41
-25.73
-31.71
-36.19
-38.00
-36.39
-31.36
-23.73
-14.83
-6.07
1.66
8.00
13.18
17.50
21.00
23.36
24.12
23.01
20.34
16.92
13.78
11.78
11.26
11.99
13.30
14.46
14.87
14.25
12.69
10.52
8.13
5.75
3.41
0.98
-1.75
-4.86
-8.35
-12.21
-16.59
-21.69
-27.49
-33.54
-38.78
-41.82
-41.43
-37.15
-29.45
-19.62
-9.23
0.39
8.41
14.53
18.80
21.38
22.44
22.20
20.94
18.99
16.82
14.93
13.84
13.90
15.24
17.59
20.28
22.54
23.72
23.54
22.19
20.11
17.67
15.03
12.03
8.41
4.10
-0.73
-5.76
-10.75
-15.80
-21.14
-26.88
-32.59
-37.22
-39.41
-38.08
-33.01
-25.01
-15.57
-6.27
1.80
8.33
13.51
17.69
21.02
23.46
24.88
25.30
25.02
24.51
24.19
24.29
24.82
25.54
26.15
26.37
26.05
25.16
23.74
21.90
19.73
17.30
14.56
11.48
7.97
4.03
-0.25
-4.71
-9.19
-13.74
-18.51
-23.77
-29.59
-35.55
-40.69
-43.72
-43.46
-39.29
-31.46
-21.07
-9.71
1.07
10.13
17.01
21.77
24.78
26.47
27.17
27.12
26.54
25.67
24.82
24.31
24.22
24.43
24.65
24.58
24.09
23.25
22.28
21.33
20.36
19.12
17.35
14.91
11.92
8.73
5.58
2.61
-0.37
-3.65
-7.48
-11.98
-17.04
-22.35
-27.37
-31.46
-33.82
-33.81
-31.05
-25.70
-18.40
-10.20
-2.21
4.71
10.01
13.56
15.41
15.69
14.59
12.38
9.49
6.50
4.09
2.79
2.86
4.14
6.18
8.26
9.73
10.12
9.27
7.32
4.64
1.66
-1.24
-3.88
-6.34
-8.88
-11.86
-15.57
-20.11
-25.31
-30.73
-35.66
-39.20
-40.51
-38.95
-34.41
-27.37
-18.80
-9.92
-1.80
4.88
9.87
13.23
15.11
15.70
15.13
13.69
11.81
10.07
9.00
8.90
9.77
11.31
13.04
14.52
15.41
15.50
14.69
12.99
10.49
7.43
4.09
0.69
-2.67
-6.11
-9.91
-14.44
-19.86
-26.03
-32.28
-37.56
-40.70
-40.71
-37.21
-30.56
-21.73
-12.04
-2.75
5.13
10.96
14.47
15.63
14.69
12.20
8.95
5.84
3.63
2.67
2.90
3.93
5.33
6.79
8.19
9.45
10.43
10.90
10.60
9.43
7.54
5.22
2.69
-0.03
-3.27
-7.49
-12.85
-18.96
-24.74
-28.74
-29.69
-27.08
-21.28
-13.53
-5.24
2.45
8.93
14.10
18.06
20.73
21.87
21.26
19.01
15.73
12.37
9.86
8.71
8.88
9.83
10.80
11.18
10.65
9.25
7.23
4.89
2.48
0.07
-2.41
-5.10
-8.21
-11.97
-16.57
-22.04
-28.06
-33.82
-38.12
-39.66
-37.61
-31.94
-23.49
-13.69
-4.01
4.51
11.42
16.74
20.60
23.01
23.88
23.17
21.23
18.75
16.65
15.75
16.41
18.41
21.05
23.49
25.07
25.60
25.32
24.70
24.13
23.84
23.79
23.83
23.81
23.50
22.75
21.36
19.37
17.17
15.56
15.61
18.27
24.03
32.60
43.10
54.31
65.09
74.67
82.75
89.32
94.46
98.10
100.06
100.12
98.22
94.53
89.55
83.92
78.22
72.83
67.77
62.75
57.42
51.45
44.77
37.52
29.95
22.22
14.21
5.55
-4.29
-15.68
-28.63
-42.72
-57.13
-70.96
-83.25
-93.28
-100.51
-104.72
-106.08
-105.20
-103.05
-100.73
-99.22
-99.07
-100.31
-102.63
-105.62
-108.91
-112.29
-115.54
-118.29
-120.08
-120.49
-119.36
-117.01
-114.19
-111.78
-110.33
-109.76
-109.29
-107.86
-104.59
-99.38
-93.02
-86.99
-82.95
-82.05
-84.64
-90.19
-97.67
-105.80
-113.48
-119.87
-124.34
-126.54
-126.36
-124.07
-120.36
-116.30
-113.19
-112.22
-114.30
-119.80
-128.50
-139.75
-152.49
-165.49
-177.42
-186.90
-192.63
-193.55
-189.12
-179.59
-166.17
-150.88
-136.18
-124.43
-117.39
-116.07
-120.67
-130.87
-145.88
-164.44
-184.74
-204.30
-220.21
-229.53
-229.92
-220.14
-200.19
-171.13
-134.71
-92.77
-47.03
1.06
50.33
99.79
148.53
195.51
239.32
278.03
309.35
331.12
342.08
342.48
334.31
320.66
304.77
288.87
273.63
258.38
241.93
223.56
203.66
183.58
164.95
148.91
135.58
124.12
113.22
101.64
88.70
74.42
59.33
44.27
30.23
18.15
8.85
2.87
0.32
0.91
3.94
8.35
12.87
16.19
17.17
15.14
10.19
3.14
-4.66
-11.77
-17.26
-20.82
-22.84
-23.97
-24.74
-25.32
-25.64
-25.66
-25.54
-25.74
-26.76
-28.95
-32.42
-37.08
-42.77
-49.39
-56.71
-64.07
-70.19
-73.18
-71.07
-62.43
-47.04
-26.08
-1.89
22.66
44.93
62.99
75.86
83.44
86.25
85.19
81.36
75.93
70.08
64.86
61.00
58.79
58.03
58.07
58.05
57.17
54.99
51.54
47.31
43.00
39.20
36.12
33.48
30.59
26.67
21.26
14.62
7.79
2.31
-0.35
0.59
4.91
11.44
18.62
25.04
29.94
33.21
35.13
36.05
36.14
35.46
34.05
32.11
30.00
28.11
26.67
25.73
25.17
24.79
24.49
24.23
23.99
23.69
23.08
21.77
19.25
15.18
9.51
2.73
-4.21
-10.03
-13.53
-13.89
-10.95
-5.20
2.45
10.92
19.25
26.71
32.78
37.14
39.64
40.40
39.77
38.30
36.59
35.12
34.11
33.54
33.21
32.92
32.46
31.75
30.74
29.42
27.87
26.13
24.18
21.87
18.90
14.99
10.00
4.20
-1.71
-6.75
-9.96
-10.70
-8.79
-4.61
1.11
7.59
14.15
20.29
25.77
30.42
34.15
36.82
38.32
38.63
37.92
36.58
35.13
34.08
33.65
33.70
33.79
33.37
32.14
30.16
27.85
25.73
24.08
22.85
21.64
20.00
17.60
14.37
10.41
5.89
1.01
-3.93
-8.47
-11.91
-13.53
-12.78
-9.55
-4.25
2.34
9.24
15.53
20.58
24.10
26.14
26.95
26.91
26.40
25.68
24.95
24.31
23.88
23.69
23.75
23.96
24.16
24.12
23.72
22.89
21.68
20.16
18.36
16.31
14.00
11.41
8.59
5.55
2.31
-1.19
-4.98
-9.03
-13.10
-16.78
-19.53
-20.83
-20.33
-17.92
-13.76
-8.26
-1.99
4.42
10.33
15.30
19.12
21.76
23.34
24.05
24.07
23.54
22.63
21.57
20.59
19.87
19.51
19.41
19.41
19.28
18.82
17.94
16.69
15.18
13.58
12.02
10.54
9.10
7.58
5.81
3.61
0.82
-2.56
-6.42
-10.38
-13.87
-16.17
-16.68
-15.03
-11.27
-5.85
0.49
6.91
12.62
17.01
19.73
20.74
20.27
18.81
16.95
15.23
14.04
13.51
13.56
13.92
14.28
14.35
13.90
12.80
11.13
9.09
7.01
5.21
3.82
2.72
1.59
-0.03
-2.42
-5.58
-9.14
-12.51
-15.05
-16.24
-15.83
-13.80
-10.42
-6.04
-1.17
3.71
8.19
11.92
14.70
16.45
17.24
17.24
16.63
15.60
14.34
13.05
11.94
11.18
10.83
10.83
11.00
11.08
10.84
10.18
9.16
7.88
6.45
4.86
3.00
0.71
-2.15
-5.54
-9.23
-12.82
-15.78
-17.56
-17.78
-16.35
-13.48
-9.61
-5.31
-1.00
3.03
6.62
9.61
11.83
13.07
13.21
12.35
10.80
9.05
7.53
6.57
6.24
6.40
6.77
7.06
7.05
6.64
5.83
4.73
3.49
2.24
0.97
-0.39
-2.00
-3.97
-6.32
-9.01
-11.86
-14.60
-16.93
-18.46
-18.85
-17.85
-15.43
-11.78
-7.37
-2.76
1.50
5.02
7.56
9.11
9.73
9.60
8.96
8.13
7.43
7.09
7.12
7.36
7.49
7.23
6.47
5.37
4.18
3.18
2.44
1.85
1.17
0.24
-1.03
-2.54
-4.19
-5.97
-7.94
-10.21
-12.74
-15.26
-17.30
-18.30
-17.83
-15.78
-12.31
-7.86
-2.98
1.81
6.10
9.63
12.23
13.78
14.25
13.66
12.23
10.29
8.32
6.76
5.88
5.72
6.05
6.49
6.65
6.33
5.50
4.37
3.11
1.80
0.42
-1.13
-2.90
-4.86
-6.92
-9.04
-11.25
-13.68
-16.32
-18.90
-20.85
-21.48
-20.27
-17.17
-12.61
-7.40
-2.28
2.21
5.91
8.85
11.02
12.31
12.49
11.48
9.48
7.05
4.88
3.51
3.17
3.62
4.44
5.17
5.59
5.74
5.79
5.85
5.85
5.58
4.80
3.49
1.76
-0.10
-1.94
-3.79
-5.89
-8.56
-11.88
-15.57
-18.91
-21.05
-21.27
-19.29
-15.37
-10.21
-4.59
0.78
5.41
9.10
11.74
13.28
13.76
13.34
12.32
11.08
9.95
9.08
8.43
7.83
7.14
6.38
5.64
5.06
4.66
4.37
4.10
3.81
3.55
3.39
3.27
2.98
2.16
0.53
-1.97
-5.10
-8.49
-11.81
-14.81
-17.41
-19.43
-20.59
-20.45
-18.71
-15.40
-10.96
-6.16
-1.71
1.86
4.43
6.15
7.23
7.81
7.93
7.52
6.60
5.36
4.12
3.27
3.07
3.62
4.75
6.21
7.66
8.85
9.59
9.82
9.58
8.92
7.96
6.79
5.52
4.13
2.57
0.75
-1.45
-4.03
-6.93
-10.01
-13.04
-15.70
-17.65
-18.50
-17.95
-15.93
-12.64
-8.53
-4.16
-0.04
3.50
6.30
8.40
9.85
10.70
11.03
10.88
10.37
9.65
8.83
8.01
7.24
6.57
6.00
5.58
5.32
5.18
5.11
4.94
4.53
3.77
2.58
1.01
-0.85
-2.87
-4.93
-6.94
-8.89
-10.79
-12.69
-14.65
-16.66
-18.61
-20.21
-21.01
-20.55
-18.52
-14.98
-10.35
-5.36
-0.76
2.91
5.50
7.16
8.18
8.78
8.95
8.59
7.62
6.15
4.53
3.21
2.53
2.57
3.09
3.68
3.92
3.58
2.66
1.30
-0.28
-1.90
-3.45
-4.89
-6.25
-7.64
-9.18
-11.08
-13.42
-16.20
-19.16
-21.88
-23.83
-24.50
-23.60
-21.09
-17.28
-12.70
-7.92
-3.48
0.34
3.39
5.71
7.28
8.02
7.84
6.81
5.21
3.54
2.25
1.61
1.56
1.78
1.91
1.71
1.15
0.34
-0.59
-1.49
-2.27
-2.90
-3.42
-4.01
-4.97
-6.64
-9.18
-12.48
-16.06
-19.22
-21.28
-21.78
-20.58
-17.84
-13.99
-9.54
-4.99
-0.83
2.57
4.95
6.25
6.53
6.00
4.94
3.69
2.58
1.88
1.74
2.10
2.69
3.13
3.03
2.22
0.79
-0.96
-2.57
-3.75
-4.42
-4.78
-5.23
-6.14
-7.74
-10.01
-12.69
-15.37
-17.59
-18.94
-19.05
-17.72
-14.97
-11.12
-6.76
-2.59
0.77
3.02
4.22
4.67
4.73
4.57
4.25
3.76
3.20
2.79
2.74
3.14
3.81
4.38
4.50
4.01
2.99
1.66
0.25
-1.10
-2.33
-3.41
-4.34
-5.19
-6.13
-7.34
-8.96
-10.95
-12.98
-14.58
-15.29
-14.82
-13.21
-10.73
-7.73
-4.58
-1.56
1.11
3.21
4.55
5.03
4.73
3.88
2.88
2.13
1.92
2.34
3.21
4.20
4.91
5.00
4.34
3.04
1.36
-0.38
-1.90
-3.10
-4.03
-4.83
-5.70
-6.79
-8.20
-9.94
-11.84
-13.62
-14.94
-15.45
-14.92
-13.34
-10.87
-7.86
-4.73
-1.88
0.50
2.33
3.73
4.87
5.88
6.78
7.48
7.85
7.86
7.62
7.33
7.17
7.19
7.29
7.32
7.19
6.89
6.48
6.00
5.40
4.55
3.31
1.64
-0.40
-2.68
-5.01
-7.25
-9.36
-11.31
-13.04
-14.46
-15.39
-15.64
-15.06
-13.61
-11.43
-8.73
-5.80
-2.81
0.14
2.99
5.63
7.83
9.31
9.84
9.40
8.19
6.65
5.26
4.36
4.09
4.33
4.83
5.31
5.60
5.71
5.73
5.80
5.93
6.06
6.00
5.52
4.49
2.91
0.89
-1.32
-3.50
-5.43
-7.02
-8.33
-9.53
-10.87
-12.54
-14.51
-16.49
-18.02
-18.60
-17.91
-15.95
-12.99
-9.50
-5.86
-2.33
1.00
4.04
6.63
8.53
9.52
9.56
8.95
8.12
7.56
7.56
8.10
8.93
9.70
10.16
10.18
9.83
9.22
8.49
7.75
7.04
6.37
5.68
4.86
3.82
2.49
0.87
-0.97
-2.95
-4.98
-7.00
-8.95
-10.80
-12.52
-14.12
-15.69
-17.29
-18.81
-20.00
-20.40
-19.61
-17.43
-14.05
-9.95
-5.77
-2.04
0.97
3.21
4.84
5.98
6.68
6.93
6.76
6.28
5.69
5.24
5.07
5.19
5.46
5.66
5.63
5.35
4.93
4.59
4.45
4.50
4.52
4.20
3.32
1.85
-0.02
-1.97
-3.68
-5.03
-6.09
-7.10
-8.34
-9.89
-11.63
-13.20
-14.15
-14.14
-13.09
-11.18
-8.74
-6.16
-3.68
-1.44
0.53
2.23
3.61
4.57
5.08
5.17
4.97
4.63
4.29
4.00
3.73
3.46
3.19
2.98
2.94
3.13
3.52
3.99
4.31
4.30
3.79
2.79
1.39
-0.24
-1.94
-3.64
-5.29
-6.99
-8.82
-10.91
-13.25
-15.66
-17.75
-18.98
-18.88
-17.19
-14.00
-9.73
-4.99
-0.45
3.38
6.19
7.97
8.84
9.05
8.82
8.37
7.84
7.38
7.06
6.92
6.97
7.10
7.17
7.04
6.68
6.16
5.60
5.09
4.60
3.98
3.08
1.78
0.07
-1.96
-4.15
-6.35
-8.47
-10.52
-12.57
-14.70
-16.89
-18.94
-20.47
-21.03
-20.27
-18.10
-14.76
-10.70
-6.42
-2.34
1.33
4.45
6.95
8.71
9.63
9.71
9.07
8.00
6.84
5.89
5.40
5.49
6.16
7.28
8.59
9.75
10.40
10.28
9.34
7.76
5.85
3.92
2.10
0.38
-1.34
-3.13
-4.96
-6.75
-8.45
-10.11
-11.83
-13.77
-15.90
-18.04
-19.75
-20.55
-20.05
-18.11
-14.92
-10.83
-6.31
-1.78
2.42
6.01
8.75
10.44
11.04
10.76
10.00
9.28
8.96
9.12
9.53
9.84
9.80
9.42
8.90
8.51
8.40
8.48
8.54
8.32
7.67
6.52
4.90
2.90
0.61
-1.80
-4.12
-6.08
-7.51
-8.38
-8.89
-9.39
-10.27
-11.80
-13.94
-16.35
-18.38
-19.38
-18.88
-16.75
-13.27
-9.00
-4.57
-0.50
2.93
5.64
7.65
9.03
9.84
10.13
10.01
9.62
9.17
8.88
8.89
9.25
9.86
10.50
10.89
10.85
10.28
9.24
7.84
6.25
4.60
3.00
1.56
0.30
-0.71
-1.49
-2.09
-2.70
-3.59
-5.06
-7.35
-10.44
-14.00
-17.41
-19.94
-20.92
-19.99
-17.23
-13.10
-8.37
-3.82
-0.02
2.71
4.43
5.38
5.89
6.15
6.25
6.13
5.70
5.02
4.23
3.58
3.30
3.46
3.98
4.69
5.35
5.74
5.69
5.10
3.94
2.32
0.46
-1.37
-2.87
-3.90
-4.47
-4.77
-5.09
-5.71
-6.84
-8.57
-10.81
-13.33
-15.73
-17.48
-18.10
-17.30
-15.14
-11.98
-8.38
-4.87
-1.79
0.73
2.73
4.27
5.36
5.93
5.95
5.42
4.51
3.46
2.56
2.05
2.01
2.32
2.75
3.05
3.07
2.77
2.26
1.65
1.01
0.27
-0.65
-1.83
-3.26
-4.90
-6.65
-8.51
-10.48
-12.51
-14.44
-15.95
-16.61
-16.04
-14.04
-10.77
-6.64
-2.31
1.66
4.83
7.06
8.40
8.98
8.91
8.26
7.13
5.73
4.42
3.54
3.28
3.50
3.77
3.65
2.89
1.59
0.16
-0.99
-1.68
-2.06
-2.49
-3.37
-4.82
-6.72
-8.83
-10.91
-12.88
-14.75
-16.45
-17.70
-18.09
-17.20
-14.85
-11.22
-6.89
-2.57
1.12
3.82
5.57
6.56
7.10
7.31
7.21
6.72
5.84
4.70
3.59
2.77
2.43
2.50
2.78
2.97
2.85
2.35
1.62
0.85
0.22
-0.24
-0.69
-1.46
-2.81
-4.88
-7.53
-10.42
-13.07
-15.08
-16.17
-16.21
-15.21
-13.29
-10.63
-7.47
-4.12
-0.88
1.98
4.29
5.95
6.96
7.37
7.29
6.86
6.23
5.57
5.00
4.63
4.50
4.60
4.86
5.11
5.13
4.68
3.66
2.11
0.31
-1.40
-2.75
-3.68
-4.40
-5.32
-6.81
-9.05
-11.88
-14.82
-17.23
-18.53
-18.42
-16.95
-14.44
-11.33
-8.01
-4.75
-1.70
1.08
3.50
5.43
6.72
7.30
7.23
6.64
5.73
4.75
3.91
3.40
3.40
3.95
4.92
5.97
6.70
6.75
5.99
4.53
2.64
0.63
-1.31
-3.11
-4.84
-6.61
-8.56
-10.79
-13.39
-16.34
-19.40
-22.17
-24.14
-24.80
-23.89
-21.44
-17.82
-13.55
-9.23
-5.37
-2.30
-0.15
1.10
1.60
1.49
0.92
0.01
-1.07
-2.00
-2.46
-2.22
-1.36
-0.30
0.41
0.38
-0.40
-1.43
-2.01
-1.58
0.01
2.46
5.32
8.22
11.11
14.25
18.10
23.09
29.55
37.61
47.26
58.33
70.51
83.41
96.70
110.19
123.85
137.83
152.48
168.19
185.29
203.77
223.14
242.39
260.29
275.81
288.47
298.38
305.83
310.76
312.45
309.64
301.15
286.60
266.71
243.07
217.53
191.47
165.53
139.73
113.81
87.60
61.07
34.34
7.70
-18.39
-43.07
-65.15
-83.26
-96.25
-103.55
-105.38
-102.67
-96.89
-89.70
-82.60
-76.81
-72.98
-71.16
-70.79
-70.87
-70.28
-68.20
-64.30
-58.87
-52.65
-46.53
-41.14
-36.69
-32.96
-29.42
-25.57
-21.18
-16.37
-11.63
-7.63
-5.14
-4.83
-7.22
-12.55
-20.64
-30.91
-42.45
-54.20
-65.23
-75.01
-83.36
-90.45
-96.49
-101.61
-105.86
-109.33
-112.31
-115.30
-118.87
-123.40
-128.88
-134.80
-140.34
-144.57
-146.70
-146.19
-142.72
-136.25
-127.06
-115.85
-103.69
-91.83
-81.30
-72.62
-65.72
-60.14
-55.43
-51.28
-47.70
-44.75
-42.39
-40.38
-38.40
-36.24
-33.90
-31.56
-29.44
-27.69
-26.35
-25.43
-24.93
-24.87
-25.29
-26.13
-27.23
-28.38
-29.33
-30.01
-30.51
-31.11
-32.17
-33.91
-36.31
-39.04
-41.54
-43.24
-43.63
-42.36
-39.36
-34.74
-28.83
-22.22
-15.67
-9.96
-5.68
-3.00
-1.70
-1.39
-1.61
-2.14
-2.89
-3.88
-4.98
-5.99
-6.64
-6.83
-6.63
-6.29
-6.10
-6.26
-6.79
-7.60
-8.55
-9.55
-10.54
-11.53
-12.52
-13.52
-14.52
-15.52
-16.60
-17.85
-19.35
-21.06
-22.76
-24.10
-24.60
-23.84
-21.66
-18.25
-14.12
-9.93
-6.23
-3.37
-1.44
-0.39
-0.18
-0.75
-1.97
-3.61
-5.29
-6.62
-7.36
-7.54
-7.33
-7.01
-6.76
-6.69
-6.73
-6.84
-7.00
-7.18
-7.38
-7.59
-7.88
-8.38
-9.29
-10.79
-12.96
-15.69
-18.61
-21.24
-23.04
-23.64
-22.93
-21.06
-18.44
-15.50
-12.67
-10.21
-8.19
-6.59
-5.34
-4.38
-3.75
-3.52
-3.76
-4.44
-5.38
-6.30
-6.86
-6.83
-6.16
-4.95
-3.47
-1.96
-0.66
0.32
0.91
1.07
0.86
0.32
-0.48
-1.54
-2.98
-4.97
-7.60
-10.72
-13.93
-16.58
-18.01
-17.81
-15.94
-12.71
-8.63
-4.22
0.05
3.81
6.74
8.56
9.07
8.25
6.35
3.84
1.31
-0.76
-2.13
-2.81
-3.04
-3.11
-3.21
-3.42
-3.68
-3.90
-4.08
-4.28
-4.66
-5.37
-6.51
-8.10
-10.12
-12.56
-15.35
-18.33
-21.17
-23.46
-24.70
-24.55
-22.88
-19.87
-15.97
-11.70
-7.60
-4.05
-1.31
0.50
1.35
1.31
0.52
-0.80
-2.30
-3.64
-4.53
-4.80
-4.48
-3.77
-3.02
-2.54
-2.63
-3.41
-4.85
-6.79
-8.95
-11.10
-13.15
-15.21
-17.54
-20.38
-23.68
-26.97
-29.46
-30.25
-28.80
-25.20
-20.12
-14.51
-9.23
-4.68
-0.83
2.50
5.45
7.89
9.48
9.96
9.33
7.87
6.17
4.79
4.13
4.30
5.14
6.29
7.37
8.09
8.33
8.12
7.55
6.63
5.28
3.39
0.80
-2.46
-6.30
-10.44
-14.49
-17.96
-20.31
-21.03
-19.84
-16.78
-12.29
-7.08
-1.91
2.67
6.35
9.03
10.75
11.48
11.22
10.07
8.32
6.43
4.93
4.21
4.40
5.33
6.60
7.79
8.58
8.83
8.47
7.53
5.98
3.82
1.09
-2.04
-5.41
-8.90
-12.55
-16.41
-20.39
-24.08
-26.70
-27.34
-25.39
-20.81
-14.25
-6.85
0.28
6.32
10.95
14.27
16.54
17.96
18.61
18.50
17.73
16.60
15.50
14.83
14.77
15.26
15.93
16.34
16.17
15.38
14.20
12.93
11.73
10.56
9.17
7.24
4.61
1.33
-2.38
-6.34
-10.45
-14.78
-19.35
-24.00
-28.20
-31.14
-32.05
-30.46
-26.46
-20.69
-14.09
-7.61
-1.89
2.85
6.67
9.75
12.22
14.11
15.41
16.16
16.51
16.65
16.73
16.83
16.94
17.02
17.15
17.39
17.78
18.28
18.66
18.63
17.88
16.26
13.83
10.86
7.68
4.64
1.95
-0.40
-2.63
-5.11
-8.18
-12.04
-16.52
-21.19
-25.37
-28.36
-29.53
-28.49
-25.19
-19.91
-13.27
-6.10
0.79
6.82
11.72
15.45
18.15
19.90
20.73
20.71
20.05
19.13
18.41
18.23
18.66
19.43
20.09
20.22
19.64
18.45
17.02
15.76
14.88
14.28
13.64
12.53
10.72
8.27
5.54
2.94
0.65
-1.46
-3.81
-6.80
-10.59
-14.94
-19.31
-23.21
-26.34
-28.68
-30.27
-31.00
-30.48
-28.24
-23.99
-17.94
-10.85
-3.80
2.21
6.64
9.45
11.00
11.72
11.89
11.65
11.06
10.31
9.80
9.93
10.97
12.82
15.07
17.08
18.34
18.59
18.01
16.96
15.80
14.68
13.44
11.80
9.57
6.81
3.87
1.20
-0.90
-2.48
-3.93
-5.79
-8.53
-12.29
-16.79
-21.41
-25.38
-27.94
-28.56
-27.06
-23.57
-18.56
-12.71
-6.68
-1.09
3.68
7.39
10.04
11.71
12.59
12.89
12.78
12.51
12.23
12.11
12.23
12.57
13.06
13.63
14.25
14.92
15.56
16.00
15.99
15.30
13.91
12.04
10.10
8.49
7.34
6.50
5.61
4.31
2.42
-0.10
-3.14
-6.62
-10.38
-14.13
-17.36
-19.37
-19.54
-17.56
-13.66
-8.53
-3.09
1.81
5.71
8.55
10.59
12.16
13.45
14.39
14.74
14.30
13.05
11.26
9.42
8.03
7.39
7.52
8.14
8.86
9.27
9.12
8.34
7.01
5.27
3.26
1.03
-1.38
-4.01
-6.86
-9.89
-13.03
-16.27
-19.62
-23.05
-26.38
-29.11
-30.60
-30.15
-27.39
-22.43
-15.90
-8.73
-1.83
4.15
8.90
12.31
14.35
15.02
14.34
12.61
10.46
8.72
8.16
9.21
11.66
14.83
17.80
19.90
20.89
20.97
20.49
19.67
18.45
16.61
14.05
10.94
7.61
4.38
1.34
-1.77
-5.34
-9.59
-14.31
-18.84
-22.25
-23.67
-22.66
-19.28
-14.13
-8.15
-2.29
2.69
6.42
8.89
10.30
10.92
10.90
10.35
9.35
8.16
7.09
6.44
6.32
6.60
6.90
6.91
6.45
5.66
4.83
4.25
4.07
4.23
4.51
4.61
4.27
3.22
1.16
-2.13
-6.69
-12.27
-18.21
-23.56
-27.32
-28.69
-27.31
-23.39
-17.60
-10.91
-4.26
1.60
6.35
9.93
12.50
14.20
15.08
15.15
14.44
13.12
11.45
9.76
8.27
7.01
5.91
4.79
3.56
2.19
0.79
-0.54
-1.79
-3.04
-4.51
-6.39
-8.77
-11.55
-14.50
-17.41
-20.16
-22.81
-25.47
-28.16
-30.65
-32.47
-33.09
-32.06
-29.16
-24.47
-18.28
-11.13
-3.70
3.21
8.84
12.67
14.54
14.75
13.92
12.80
11.99
11.86
12.46
13.70
15.39
17.32
19.25
20.92
22.06
22.45
21.96
20.59
18.48
15.86
12.97
10.02
7.09
4.13
0.95
-2.62
-6.66
-11.03
-15.32
-18.99
-21.37
-21.95
-20.48
-17.10
-12.32
-6.84
-1.34
3.64
7.78
10.95
13.08
14.13
14.08
13.06
11.38
9.48
7.79
6.59
5.94
5.72
5.70
5.74
5.71
5.55
5.24
4.77
4.18
3.54
2.88
2.13
1.10
-0.46
-2.76
-5.87
-9.69
-14.00
-18.41
-22.47
-25.54
-26.97
-26.21
-23.10
-17.92
-11.50
-4.82
1.22
6.08
9.65
12.09
13.65
14.45
14.49
13.77
12.46
11.00
9.96
9.80
10.62
12.04
13.34
13.85
13.29
11.86
10.10
8.53
7.33
6.25
4.81
2.59
-0.51
-4.28
-8.38
-12.51
-16.46
-19.99
-22.69
-24.01
-23.49
-21.00
-16.90
-11.90
-6.76
-2.05
2.03
5.45
8.14
9.86
10.31
9.31
7.06
4.20
1.58
-0.08
-0.50
0.06
0.95
1.52
1.34
0.37
-1.11
-2.74
-4.26
-5.60
-6.83
-8.16
-9.75
-11.79
-14.43
-17.75
-21.61
-25.65
-29.23
-31.61
-32.19
-30.75
-27.52
-22.98
-17.75
-12.33
-7.06
-2.16
2.11
5.47
7.68
8.63
8.46
7.56
6.42
5.51
5.13
5.35
6.13
7.35
8.85
10.47
12.01
13.22
13.88
13.85
13.17
11.93
10.27
8.23
5.75
2.67
-1.10
-5.46
-10.03
-14.17
-17.12
-18.24
-17.18
-14.00
-9.13
-3.31
2.71
8.27
12.97
16.67
19.38
21.16
22.02
21.98
21.14
19.78
18.28
17.06
16.33
16.12
16.25
16.43
16.49
16.31
15.80
14.88
13.52
11.70
9.54
7.25
4.98
2.79
0.56
-1.91
-4.77
-8.08
-11.79
-15.72
-19.62
-23.12
-25.70
-26.84
-26.14
-23.49
-19.20
-13.81
-7.90
-2.00
3.54
8.45
12.43
15.21
16.69
16.98
16.50
15.78
15.27
15.18
15.48
15.98
16.42
16.64
16.56
16.15
15.45
14.51
13.37
12.12
10.76
9.28
7.60
5.67
3.38
0.64
-2.62
-6.50
-11.09
-16.31
-21.82
-26.98
-30.93
-32.87
-32.34
-29.36
-24.46
-18.44
-12.12
-6.12
-0.78
3.80
7.55
10.41
12.28
13.08
12.85
11.81
10.34
8.90
7.91
7.69
8.24
9.23
10.04
10.00
8.63
5.87
2.10
-1.95
-5.58
-8.27
-9.85
-10.43
-10.29
-9.75
-9.10
-8.65
-8.80
-9.88
-12.02
-15.03
-18.33
-21.15
-22.78
-22.73
-20.90
-17.52
-13.02
-7.96
-2.88
1.75
5.61
8.51
10.48
11.62
12.14
12.22
12.02
11.66
11.31
11.20
11.62
12.79
14.78
17.39
20.17
22.49
23.74
23.49
21.70
18.64
14.86
10.98
7.52
4.76
2.73
1.16
-0.34
-2.24
-4.83
-8.13
-11.80
-15.15
-17.40
-17.83
-16.04
-12.11
-6.52
-0.11
6.26
11.85
16.31
19.62
22.01
23.75
24.96
25.55
25.44
24.66
23.49
22.36
21.66
21.51
21.70
21.85
21.51
20.51
18.87
16.79
14.49
12.05
9.46
6.63
3.46
-0.10
-4.06
-8.40
-13.09
-18.04
-23.06
-27.79
-31.72
-34.24
-34.82
-33.24
-29.66
-24.62
-18.88
-13.14
-7.95
-3.56
-0.02
2.68
4.50
5.36
5.20
4.14
2.42
0.42
-1.46
-2.86
-3.54
-3.37
-2.34
-0.59
1.66
4.02
6.00
7.20
7.37
6.53
4.98
3.07
0.95
-1.42
-4.33
-8.02
-12.46
-17.17
-21.35
-24.07
-24.68
-23.03
-19.45
-14.65
-9.33
-4.06
0.90
5.43
9.40
12.62
14.81
15.77
15.55
14.57
13.39
12.60
12.50
13.11
14.18
15.36
16.41
17.18
17.55
17.37
16.48
14.70
12.06
8.78
5.20
1.61
-1.94
-5.67
-9.91
-14.76
-19.94
-24.65
-27.84
-28.57
-26.36
-21.45
-14.64
-7.08
0.21
6.52
11.58
15.40
18.11
19.83
20.57
20.40
19.49
18.09
16.58
15.36
14.63
14.41
14.47
14.49
14.13
13.28
11.94
10.34
8.67
7.04
5.33
3.27
0.55
-3.02
-7.52
-12.86
-18.83
-25.13
-31.23
-36.44
-39.96
-41.09
-39.47
-35.21
-28.93
-21.50
-13.85
-6.73
-0.57
4.38
8.03
10.39
11.53
11.66
11.18
10.60
10.34
10.75
11.94
13.83
16.15
18.47
20.32
21.26
21.12
20.06
18.61
17.47
17.26
18.18
19.89
21.57
22.14
20.73
17.00
11.42
5.25
0.23
-2.02
-0.59
4.20
10.92
17.48
21.93
23.14
21.08
16.59
10.92
5.12
-0.12
-4.53
-8.03
-10.57
-12.12
-12.73
-12.65
-12.32
-12.18
-12.52
-13.26
-14.04
-14.43
-14.19
-13.50
-12.92
-13.10
-14.47
-17.04
-20.46
-24.22
-27.96
-31.48
-34.64
-37.20
-38.73
-38.70
-36.71
-32.66
-26.83
-19.79
-12.19
-4.67
2.22
8.06
12.54
15.44
16.71
16.46
15.02
12.92
10.77
9.22
8.71
9.34
10.82
12.53
13.81
14.18
13.56
12.19
10.44
8.63
6.81
4.87
2.57
-0.29
-3.80
-7.96
-12.59
-17.36
-21.69
-24.80
-25.90
-24.41
-20.24
-13.86
-6.19
1.68
8.83
14.73
19.16
22.16
23.80
24.12
23.15
21.03
18.13
15.02
12.38
10.72
10.25
10.78
11.84
12.88
13.52
13.54
12.89
11.61
9.73
7.26
4.26
0.82
-3.06
-7.43
-12.28
-17.45
-22.49
-26.70
-29.31
-29.82
-28.11
-24.46
-19.45
-13.70
-7.69
-1.75
3.88
8.92
13.01
15.76
16.88
16.34
14.45
11.85
9.37
7.75
7.41
8.25
9.81
11.40
12.48
12.72
12.10
10.84
9.25
7.61
6.07
4.55
2.80
0.46
-2.73
-6.82
-11.61
-16.62
-21.20
-24.71
-26.59
-26.45
-24.14
-19.83
-14.02
-7.42
-0.87
4.94
9.55
12.79
14.71
15.49
15.44
14.91
14.34
14.16
14.71
16.14
18.31
20.91
23.48
25.58
26.98
27.53
27.33
26.45
24.94
22.75
19.74
15.83
11.04
5.55
-0.33
-6.22
-11.64
-16.12
-19.09
-20.02
-18.60
-14.89
-9.32
-2.74
3.90
9.71
14.07
16.65
17.49
16.78
14.89
12.24
9.33
6.65
4.71
3.86
4.22
5.50
7.13
8.37
8.62
7.68
5.80
3.63
1.75
0.38
-0.81
-2.46
-5.24
-9.48
-15.00
-21.25
-27.45
-32.81
-36.63
-38.26
-37.22
-33.34
-26.91
-18.74
-9.96
-1.74
5.06
10.01
13.14
14.67
14.85
13.97
12.37
10.46
8.73
7.51
6.95
6.98
7.34
7.74
7.92
7.71
7.03
5.91
4.48
2.95
1.46
0.06
-1.50
-3.59
-6.61
-10.76
-15.89
-21.44
-26.58
-30.45
-32.31
-31.69
-28.52
-23.05
-15.90
-7.89
0.01
6.99
12.41
15.98
17.80
18.25
17.87
17.17
16.45
15.83
15.36
15.08
15.05
15.34
15.86
16.39
16.61
16.33
15.51
14.33
12.97
11.49
9.68
7.21
3.81
-0.57
-5.74
-11.37
-17.16
-22.91
-28.33
-33.00
-36.33
-37.69
-36.64
-33.18
-27.72
-20.92
-13.53
-6.15
0.77
6.87
11.82
15.27
16.95
16.82
15.11
12.38
9.35
6.73
5.03
4.38
4.57
5.13
5.56
5.45
4.64
3.21
1.35
-0.70
-2.75
-4.69
-6.45
-8.01
-9.38
-10.67
-12.07
-13.83
-16.08
-18.77
-21.49
-23.61
-24.27
-22.81
-18.89
-12.62
-4.64
4.14
12.79
20.54
26.93
31.79
35.20
37.34
38.50
38.99
39.09
39.01
38.91
38.84
38.78
38.68
38.48
38.21
37.94
37.69
37.38
36.83
35.82
34.16
31.82
28.88
25.50
21.82
17.94
13.90
9.71
5.39
0.97
-3.56
-8.22
-13.07
-18.18
-23.44
-28.52
-32.82
-35.56
-35.99
-33.70
-28.78
-21.80
-13.72
-5.53
1.89
7.97
12.47
15.43
17.04
17.56
17.23
16.24
14.77
13.02
11.28
9.89
9.08
8.94
9.28
9.73
9.88
9.43
8.31
6.61
4.54
2.32
0.13
-1.92
-3.79
-5.53
-7.21
-8.92
-10.77
-12.88
-15.39
-18.48
-22.21
-26.40
-30.54
-33.77
-35.15
-33.98
-30.08
-23.84
-16.21
-8.27
-1.05
4.74
8.76
11.02
11.75
11.35
10.24
8.86
7.63
6.77
6.39
6.40
6.65
6.97
7.16
7.09
6.62
5.65
4.20
2.37
0.35
-1.63
-3.44
-5.12
-6.85
-8.90
-11.49
-14.73
-18.48
-22.42
-26.16
-29.28
-31.46
-32.45
-32.11
-30.30
-26.96
-22.11
-16.01
-9.15
-2.29
3.80
8.42
11.22
12.18
11.57
9.80
7.27
4.33
1.34
-1.33
-3.28
-4.16
-3.87
-2.59
-0.83
0.80
1.80
1.95
1.33
0.17
-1.30
-2.87
-4.49
-6.08
-7.62
-9.15
-10.78
-12.69
-14.93
-17.27
-19.15
-19.95
-19.14
-16.59
-12.53
-7.43
-1.77
4.09
9.84
15.13
19.54
22.63
24.10
24.00
22.75
20.99
19.38
18.39
18.19
18.66
19.50
20.30
20.78
20.71
20.02
18.66
16.58
13.70
10.09
6.02
1.99
-1.43
-3.82
-5.12
-5.75
-6.43
-7.87
-10.43
-13.93
-17.66
-20.68
-22.09
-21.35
-18.38
-13.44
-7.06
0.01
6.91
12.75
16.80
18.71
18.70
17.45
15.83
14.49
13.67
13.17
12.66
11.96
11.20
10.72
10.78
11.39
12.23
12.85
12.85
12.05
10.50
8.38
5.85
3.01
-0.15
-3.65
-7.42
-11.32
-15.12
-18.67
-21.93
-25.02
-28.12
-31.26
-34.18
-36.32
-36.98
-35.61
-32.05
-26.58
-19.84
-12.61
-5.67
0.46
5.39
8.90
10.90
11.43
10.70
9.15
7.33
5.81
5.02
5.15
6.07
7.53
9.15
10.62
11.68
12.17
11.99
11.09
9.52
7.35
4.74
1.86
-1.09
-3.95
-6.57
-8.90
-11.05
-13.26
-15.89
-19.15
-23.03
-27.15
-30.84
-33.30
-33.90
-32.30
-28.50
-22.88
-16.01
-8.60
-1.39
4.96
9.94
13.27
14.91
15.11
14.23
12.79
11.32
10.22
9.80
10.08
10.98
12.27
13.77
15.27
16.56
17.39
17.48
16.60
14.64
11.69
7.92
3.62
-0.98
-5.62
-10.05
-14.07
-17.59
-20.72
-23.81
-27.31
-31.52
-36.40
-41.41
-45.72
-48.45
-48.88
-46.67
-41.86
-34.82
-26.18
-16.75
-7.50
0.67
7.04
11.37
13.84
15.03
15.66
16.41
17.72
19.83
22.85
26.87
31.98
38.24
45.53
53.53
61.68
69.29
75.70
80.45
83.33
84.40
83.98
82.52
80.49
78.20
75.70
72.62
68.31
61.98
53.07
41.54
28.04
13.72
0.02
-11.77
-20.78
-26.67
-29.64
-30.20
-29.07
-27.04
-24.84
-23.12
-22.33
-22.68
-24.15
-26.40
-28.90
-31.01
-32.22
-32.26
-31.22
-29.57
-27.90
-26.71
-26.22
-26.29
-26.59
-26.82
-26.90
-26.95
-27.12
-27.47
-27.91
-28.32
-28.76
-29.44
-30.64
-32.51
-34.91
-37.33
-39.08
-39.38
-37.72
-33.98
-28.40
-21.54
-14.15
-7.01
-0.75
4.18
7.58
9.45
9.92
9.29
7.93
6.35
5.04
4.42
4.68
5.71
7.23
8.77
9.91
10.36
9.95
8.63
6.50
3.77
0.77
-2.19
-4.92
-7.46
-10.10
-13.18
-16.96
-21.37
-26.06
-30.35
-33.53
-34.97
-34.21
-31.07
-25.70
-18.58
-10.52
-2.50
4.54
9.94
13.48
15.34
15.93
15.66
14.83
13.60
12.08
10.48
9.09
8.25
8.16
8.73
9.62
10.39
10.66
10.36
9.68
8.89
8.15
7.30
5.90
3.51
-0.16
-5.09
-10.89
-16.95
-22.57
-27.09
-29.89
-30.53
-28.80
-24.79
-18.93
-11.89
-4.50
2.51
8.55
13.25
16.48
18.28
18.82
18.34
17.09
15.42
13.70
12.35
11.72
11.90
12.69
13.67
14.31
14.22
13.30
11.71
9.74
7.63
5.48
3.27
0.97
-1.47
-4.10
-7.04
-10.49
-14.61
-19.30
-24.13
-28.30
-30.84
-31.01
-28.53
-23.74
-17.38
-10.38
-3.56
2.51
7.50
11.26
13.73
14.96
15.13
14.68
14.09
13.84
14.13
14.87
15.76
16.43
16.73
16.68
16.48
16.21
15.77
14.92
13.35
10.92
7.79
4.32
0.87
-2.39
-5.64
-9.29
-13.69
-18.93
-24.58
-29.82
-33.70
-35.38
-34.49
-31.14
-25.85
-19.32
-12.23
-5.13
1.55
7.42
12.12
15.30
16.81
16.73
15.41
13.38
11.23
9.46
8.36
7.99
8.25
8.89
9.63
10.23
10.41
10.04
9.03
7.45
5.43
3.15
0.77
-1.69
-4.31
-7.28
-10.80
-14.96
-19.62
-24.32
-28.49
-31.48
-32.80
-32.23
-29.75
-25.56
-20.08
-13.84
-7.52
-1.85
2.56
5.33
6.44
6.18
5.06
3.65
2.42
1.72
1.74
2.54
3.92
5.54
6.88
7.56
7.43
6.67
5.70
4.94
4.57
4.43
4.11
3.05
0.76
-3.01
-8.24
-14.56
-21.32
-27.58
-32.37
-34.86
-34.63
-31.76
-26.79
-20.52
-13.78
-7.35
-1.85
2.31
4.90
5.87
5.39
3.75
1.31
-1.55
-4.49
-7.10
-9.03
-10.01
-9.96
-9.14
-8.04
-7.32
-7.47
-8.68
-10.72
-13.11
-15.34
-17.11
-18.47
-19.75
-21.35
-23.48
-25.92
-27.95
-28.56
-26.79
-22.02
-14.23
-3.97
7.80
19.95
31.49
41.70
50.22
57.04
62.43
66.82
70.56
73.78
76.32
77.83
78.05
77.01
75.04
72.66
70.25
67.99
65.76
63.29
60.27
56.52
51.88
46.27
39.57
31.75
22.87
13.14
2.90
-7.47
-17.50
-26.61
-34.08
-39.16
-41.34
-40.53
-37.20
-32.29
-26.93
-22.05
-18.19
-15.36
-13.24
-11.43
-9.70
-8.10
-6.84
-6.09
-5.83
-5.76
-5.44
-4.53
-3.03
-1.26
0.31
1.25
1.44
0.98
0.08
-1.10
-2.54
-4.35
-6.63
-9.44
-12.75
-16.41
-20.22
-24.03
-27.74
-31.27
-34.48
-37.07
-38.52
-38.18
-35.55
-30.53
-23.57
-15.61
-7.71
-0.76
4.84
9.16
12.41
14.86
16.55
17.42
17.45
16.76
15.72
14.76
14.25
14.40
15.18
16.37
17.70
18.85
19.53
19.56
18.82
17.26
14.97
12.17
9.21
6.40
3.90
1.66
-0.67
-3.50
-7.17
-11.74
-16.93
-22.09
-26.44
-29.11
-29.48
-27.25
-22.57
-16.00
-8.44
-0.88
5.83
11.21
15.18
17.92
19.65
20.52
20.54
19.71
18.22
16.52
15.16
14.59
14.96
16.04
17.37
18.49
19.14
19.28
18.95
18.16
16.80
14.70
11.79
8.22
4.33
0.58
-2.66
-5.29
-7.55
-10.00
-13.26
-17.71
-23.17
-28.89
-33.62
-36.11
-35.55
-31.86
-25.75
-18.33
-10.81
-4.05
1.49
5.67
8.61
10.45
11.33
11.49
11.14
10.56
9.98
9.62
9.62
10.03
10.82
11.84
12.87
13.64
13.89
13.42
12.17
10.20
7.70
4.92
2.11
-0.60
-3.15
-5.55
-7.79
-9.78
-11.48
-12.95
-14.45
-16.36
-18.96
-22.15
-25.27
-27.26
-27.05
-24.06
-18.49
-11.24
-3.58
3.38
9.04
13.30
16.45
18.82
20.63
21.85
22.43
22.34
21.65
20.55
19.30
18.11
17.17
16.61
16.49
16.79
17.33
17.85
18.07
17.73
16.71
15.03
12.74
9.93
6.64
2.97
-0.94
-4.91
-8.78
-12.52
-16.19
-19.80
-23.20
-25.91
-27.32
-26.82
-24.13
-19.48
-13.49
-7.07
-1.07
3.85
7.35
9.27
9.66
8.73
6.86
4.57
2.46
0.99
0.43
0.74
1.56
2.45
3.04
3.19
2.95
2.49
1.98
1.45
0.84
0.03
-1.07
-2.48
-4.18
-6.15
-8.53
-11.46
-15.07
-19.22
-23.39
-26.70
-28.15
-26.96
-22.97
-16.71
-9.26
-1.85
4.48
9.18
12.16
13.65
13.96
13.38
12.20
10.70
9.21
8.06
7.49
7.62
8.36
9.40
10.37
10.89
10.76
10.05
9.06
8.19
7.62
7.30
6.81
5.64
3.41
0.05
-4.16
-8.80
-13.45
-17.85
-21.71
-24.66
-26.19
-25.78
-23.22
-18.76
-13.18
-7.50
-2.62
0.95
3.14
4.23
4.53
4.34
3.80
3.03
2.15
1.28
0.52
-0.15
-0.81
-1.54
-2.30
-2.95
-3.36
-3.45
-3.33
-3.27
-3.61
-4.59
-6.27
-8.49
-10.97
-13.39
-15.60
-17.67
-19.78
-22.15
-24.84
-27.65
-30.14
-31.70
-31.70
-29.71
-25.54
-19.36
-11.71
-3.40
4.66
11.59
16.87
20.36
22.35
23.27
23.60
23.60
23.31
22.73
21.92
21.13
20.68
20.88
21.71
22.90
23.92
24.29
23.69
22.14
19.84
17.07
14.05
10.91
7.78
4.82
2.17
-0.14
-2.31
-4.72
-7.70
-11.18
-14.62
-17.16
-17.98
-16.67
-13.44
-8.95
-3.99
0.83
5.13
8.74
11.49
13.18
13.67
12.98
11.43
9.50
7.74
6.56
6.20
6.67
7.79
9.18
10.42
11.11
11.10
10.45
9.42
8.27
7.05
5.65
3.82
1.43
-1.46
-4.68
-8.09
-11.74
-15.74
-20.15
-24.66
-28.56
-30.99
-31.24
-29.10
-24.94
-19.52
-13.73
-8.25
-3.53
0.29
3.23
5.26
6.40
6.60
5.88
4.43
2.57
0.74
-0.64
-1.31
-1.32
-0.95
-0.60
-0.57
-0.94
-1.60
-2.33
-3.04
-3.77
-4.63
-5.67
-6.84
-8.01
-9.19
-10.59
-12.61
-15.55
-19.37
-23.50
-26.99
-28.88
-28.51
-25.81
-21.25
-15.62
-9.67
-3.99
1.10
5.38
8.70
10.92
12.02
12.04
11.15
9.60
7.61
5.40
3.19
1.28
-0.03
-0.53
-0.24
0.53
1.21
1.24
0.26
-1.70
-4.33
-7.19
-10.03
-12.88
-16.04
-19.90
-24.61
-29.95
-35.33
-39.94
-43.01
-44.04
-42.82
-39.49
-34.37
-28.01
-21.01
-14.03
-7.69
-2.47
1.39
3.91
5.27
5.85
6.01
6.07
6.27
6.80
7.75
9.14
10.91
12.94
15.08
17.16
19.09
20.77
22.13
23.09
23.49
23.14
21.86
19.54
16.19
12.01
7.32
2.59
-1.59
-4.55
-5.73
-4.79
-1.82
2.68
7.90
12.99
17.26
20.34
22.21
23.04
22.96
22.10
20.49
18.31
15.91
13.75
12.27
11.60
11.54
11.56
11.16
10.00
8.16
5.92
3.62
1.40
-0.85
-3.42
-6.47
-10.02
-13.88
-17.77
-21.42
-24.55
-26.81
-27.77
-27.04
-24.45
-20.19
-14.77
-8.91
-3.28
1.64
5.54
8.28
9.82
10.23
9.73
8.71
7.64
6.91
6.66
6.76
6.90
6.73
6.06
4.90
3.46
1.97
0.59
-0.69
-2.08
-3.82
-6.12
-9.08
-12.67
-16.68
-20.72
-24.24
-26.65
-27.39
-26.13
-22.91
-18.06
-12.14
-5.79
0.45
6.17
11.01
14.67
17.02
18.04
17.94
17.08
15.80
14.41
13.12
12.05
11.27
10.84
10.63
10.45
10.08
9.36
8.26
6.89
5.39
3.79
1.91
-0.54
-3.88
-8.22
-13.36
-18.74
-23.59
-27.07
-28.48
-27.54
-24.35
-19.47
-13.69
-7.86
-2.65
1.54
4.52
6.30
6.92
6.47
5.09
3.08
0.85
-1.12
-2.45
-3.00
-2.94
-2.60
-2.35
-2.33
-2.46
-2.58
-2.61
-2.67
-3.07
-4.09
-5.80
-8.03
-10.56
-13.23
-16.13
-19.48
-23.40
-27.61
-31.40
-33.71
-33.54
-30.28
-23.91
-15.04
-4.66
6.12
16.35
25.38
32.92
38.96
43.67
47.20
49.63
50.85
50.64
48.74
45.06
39.74
33.16
25.98
18.88
12.53
7.39
3.64
1.19
-0.36
-1.52
-2.77
-4.47
-6.71
-9.36
-12.17
-15.06
-18.14
-21.67
-25.89
-30.63
-35.23
-38.67
-39.83
-37.99
-33.14
-25.94
-17.51
-8.97
-1.15
5.52
10.85
14.76
17.16
18.05
17.69
16.61
15.42
14.65
14.53
14.98
15.79
16.80
17.97
19.33
20.83
22.21
23.03
22.89
21.60
19.28
16.24
12.81
9.31
5.96
2.91
0.25
-2.02
-4.06
-6.23
-8.99
-12.65
-17.16
-21.98
-26.13
-28.50
-28.28
-25.24
-19.84
-13.10
-6.17
0.06
5.14
9.09
12.20
14.71
16.60
17.61
17.46
16.18
14.20
12.32
11.33
11.65
13.12
15.10
16.87
17.94
18.24
17.95
17.25
16.09
14.26
11.56
8.15
4.50
1.20
-1.40
-3.44
-5.46
-8.05
-11.49
-15.55
-19.53
-22.57
-24.01
-23.47
-20.95
-16.72
-11.16
-4.77
1.85
8.03
13.07
16.47
18.05
17.99
16.78
15.02
13.20
11.64
10.45
9.63
9.20
9.19
9.59
10.25
10.90
11.16
10.74
9.58
7.83
5.78
3.68
1.58
-0.68
-3.41
-6.88
-11.12
-15.91
-20.76
-25.06
-28.25
-29.89
-29.80
-27.96
-24.58
-19.91
-14.33
-8.25
-2.18
3.38
7.98
11.29
13.22
13.89
13.60
12.75
11.78
11.11
11.03
11.65
12.91
14.51
16.02
17.01
17.20
16.49
14.98
12.85
10.37
7.75
5.20
2.83
0.61
-1.71
-4.51
-8.12
-12.55
-17.33
-21.54
-24.10
-24.19
-21.59
-16.75
-10.59
-4.13
1.82
6.79
10.60
13.20
14.63
14.99
14.48
13.41
12.17
11.09
10.34
9.96
9.86
9.93
10.06
10.19
10.21
9.98
9.27
7.87
5.70
2.86
-0.30
-3.38
-6.04
-8.24
-10.27
-12.66
-15.87
-19.90
-24.23
-27.80
-29.47
-28.45
-24.64
-18.68
-11.63
-4.61
1.57
6.51
10.14
12.52
13.73
13.88
13.17
12.00
10.77
9.83
9.29
9.02
8.79
8.46
8.11
7.97
8.32
9.19
10.36
11.37
11.80
11.31
9.87
7.59
4.68
1.33
-2.38
-6.41
-10.73
-15.17
-19.38
-22.80
-24.75
-24.77
-22.67
-18.72
-13.48
-7.62
-1.69
3.96
9.14
13.63
17.07
19.12
19.60
18.64
16.79
14.73
13.08
12.17
12.05
12.45
13.03
13.34
13.04
11.90
9.91
7.28
4.40
1.69
-0.54
-2.21
-3.50
-4.72
-6.21
-8.23
-10.88
-14.13
-17.76
-21.41
-24.60
-26.77
-27.41
-26.19
-23.06
-18.26
-12.34
-5.96
0.20
5.58
9.86
12.90
14.65
15.12
14.42
12.78
10.62
8.50
6.93
6.23
6.38
7.08
7.88
8.43
8.57
8.27
7.48
6.07
3.83
0.70
-3.11
-7.12
-10.70
-13.44
-15.33
-16.76
-18.29
-20.31
-22.80
-25.32
-27.23
-28.02
-27.39
-25.25
-21.67
-16.75
-10.67
-3.69
3.73
10.96
17.32
22.17
25.09
26.03
25.29
23.51
21.48
19.92
19.28
19.67
20.83
22.36
23.82
24.89
25.32
25.03
24.00
22.35
20.26
17.93
15.48
12.93
10.28
7.55
4.79
2.02
-0.92
-4.28
-8.31
-13.04
-18.12
-22.87
-26.50
-28.37
-28.24
-26.20
-22.67
-18.15
-13.19
-8.32
-3.98
-0.42
2.29
4.27
5.71
6.65
6.98
6.55
5.38
3.76
2.24
1.38
1.50
2.49
3.94
5.31
6.23
6.60
6.54
6.18
5.52
4.39
2.58
0.03
-3.11
-6.50
-9.81
-12.92
-15.90
-18.94
-22.08
-25.04
-27.23
-27.98
-26.86
-23.92
-19.64
-14.70
-9.67
-4.93
-0.64
3.04
5.87
7.56
7.89
6.92
5.02
2.81
0.95
-0.07
-0.04
0.93
2.47
4.15
5.50
6.27
6.35
5.89
5.12
4.25
3.33
2.30
1.02
-0.63
-2.70
-5.22
-8.17
-11.41
-14.65
-17.44
-19.34
-20.03
-19.45
-17.73
-15.15
-11.94
-8.34
-4.61
-1.11
1.78
3.70
4.51
4.37
3.63
2.67
1.77
1.03
0.42
-0.13
-0.69
-1.40
-2.37
-3.63
-5.05
-6.35
-7.23
-7.65
-7.83
-8.28
-9.49
-11.73
-14.94
-18.81
-22.93
-27.02
-30.82
-34.04
-36.31
-37.13
-36.11
-33.20
