1702893145.00
64.000000
-0.00
-0.00
-0.00
-0.00
-0.00
-0.00
-0.00
-0.00
-0.00
-0.00
0.00
0.01
0.01
-0.00
-0.03
-0.05
-0.05
0.00
0.13
0.36
0.66
1.01
1.37
1.72
2.06
2.40
2.79
3.24
3.80
4.42
5.06
5.66
6.20
6.68
7.15
7.68
8.31
9.14
10.09
11.04
11.88
12.56
13.14
13.76
14.65
15.96
17.91
20.32
22.90
25.38
27.58
29.57
31.68
34.32
37.81
42.54
48.15
54.10
59.83
64.97
69.58
74.14
79.34
85.71
93.76
103.00
112.62
121.73
129.77
136.75
143.30
150.75
157.77
166.64
177.95
191.79
206.97
220.57
228.25
225.36
208.53
176.87
132.76
80.05
23.07
-34.94
-92.44
-149.16
-205.23
-260.37
-313.74
-363.86
-409.81
-450.87
-486.44
-515.65
-537.10
-549.06
-549.75
-538.11
-513.89
-478.30
-433.44
-381.95
-326.45
-269.20
-211.92
-155.87
-102.09
-51.43
-4.87
36.71
72.66
102.70
126.97
145.98
160.45
171.07
178.48
183.07
185.13
184.89
182.62
178.67
173.45
167.36
160.77
153.91
146.93
139.89
132.85
125.84
118.92
112.18
105.67
99.46
93.57
88.02
82.83
77.99
73.53
69.43
65.73
62.42
59.52
57.02
54.90
53.17
51.76
50.64
49.69
48.82
47.85
46.62
44.94
42.66
39.65
35.84
31.23
25.86
19.85
13.43
6.81
0.29
-5.88
-11.44
-16.20
-20.02
-22.84
-24.64
-25.48
-25.48
-24.78
-23.50
-21.80
-19.82
-17.63
-15.32
-12.93
-10.49
-8.02
-5.55
-3.07
-0.57
1.96
4.55
7.20
9.96
12.80
15.68
18.62
21.62
24.69
27.86
31.16
34.64
38.37
42.26
46.30
50.47
54.76
59.19
63.79
68.60
73.66
79.05
84.62
90.28
95.97
101.64
107.29
112.91
118.52
124.16
129.90
135.46
140.64
145.25
149.04
151.76
153.03
152.37
149.07
144.43
138.91
132.81
126.33
119.64
112.85
106.06
99.35
92.82
86.61
80.56
74.59
68.73
63.00
57.46
52.15
47.07
42.28
37.86
33.64
29.59
25.70
22.01
18.53
15.25
12.14
9.13
6.20
3.23
0.21
-2.79
-5.65
-8.32
-10.81
-13.28
-15.92
-18.89
-22.28
-25.98
-29.70
-33.14
-36.13
-38.73
-41.29
-44.33
-48.27
-53.35
-59.41
-66.01
-72.59
-78.83
-84.81
-91.04
-98.25
-107.10
-117.81
-130.04
-143.07
-156.06
-168.45
-180.16
-191.59
-203.48
-216.77
-232.50
-251.62
-274.45
-300.04
-325.71
-347.29
-360.25
-361.25
-349.45
-326.94
-297.73
-266.18
-235.42
-206.75
-180.07
-154.90
-131.28
-109.88
-91.62
-76.92
-65.41
-56.07
-47.79
-39.85
-32.16
-25.13
-19.36
-15.22
-12.73
-11.51
-11.02
-10.73
-10.36
-9.90
-9.60
-9.77
-10.71
-12.61
-15.62
-19.88
-25.50
-32.37
-39.91
-46.81
-51.19
-50.99
-44.73
-32.04
-14.01
7.06
28.38
47.38
62.39
72.74
78.66
80.83
80.05
77.11
72.79
67.95
63.54
60.51
59.46
60.54
63.29
66.77
69.93
71.87
72.08
70.49
67.37
63.16
58.32
53.19
48.02
42.88
37.79
32.69
27.54
22.36
17.25
12.33
7.72
3.46
-0.58
-4.65
-9.16
-14.58
-21.31
-29.55
-39.05
-48.91
-57.64
-63.32
-64.16
-59.05
-48.02
-32.34
-14.12
4.20
20.60
33.73
42.96
48.19
49.62
47.63
42.97
36.76
30.47
25.62
23.33
23.94
26.94
31.17
35.23
37.99
38.94
38.21
36.34
33.96
31.41
28.63
25.23
20.80
15.21
8.79
2.26
-3.55
-8.06
-11.16
-13.28
-15.19
-17.77
-21.75
-27.47
-34.73
-42.70
-50.01
-54.99
-56.05
-52.21
-43.38
-30.39
-14.74
1.78
17.51
31.19
41.87
48.97
52.22
51.77
48.26
42.80
36.80
31.61
28.15
26.70
26.88
27.93
28.98
29.40
28.91
27.51
25.31
22.39
18.63
13.87
8.06
1.37
-5.74
-12.61
-18.69
-23.62
-27.51
-30.77
-34.04
-38.04
-43.32
-50.07
-57.96
-66.01
-72.68
-76.15
-74.79
-67.74
-55.14
-38.24
-19.04
0.22
17.54
31.52
41.50
47.44
49.77
49.17
46.51
42.77
38.94
35.90
34.26
34.15
35.28
37.02
38.63
39.55
39.54
38.64
37.00
34.74
31.81
28.12
23.65
18.52
13.03
7.49
2.10
-3.18
-8.60
-14.55
-21.47
-29.68
-39.25
-49.69
-59.95
-68.34
-72.87
-71.82
-64.29
-50.67
-32.60
-12.57
6.77
23.25
35.62
43.52
47.29
47.65
45.50
41.79
37.51
33.62
30.87
29.68
30.05
31.56
33.55
35.38
36.54
36.73
35.84
33.84
30.68
26.35
20.93
14.60
7.71
0.72
-5.92
-11.83
-16.84
-21.08
-25.08
-29.69
-35.80
-43.93
-53.71
-63.70
-71.56
-74.78
-71.52
-61.33
-45.31
-25.72
-5.25
13.75
29.71
41.89
50.12
54.56
55.58
53.83
50.33
46.44
43.51
42.49
43.57
46.21
49.34
51.93
53.28
53.17
51.81
49.49
46.35
42.40
37.51
31.64
24.87
17.48
9.83
2.33
-4.68
-11.04
-16.81
-22.25
-27.83
-34.06
-41.33
-49.72
-58.83
-67.65
-74.66
-78.12
-76.54
-69.21
-56.52
-39.91
-21.49
-3.45
12.45
25.11
34.08
39.29
40.94
39.46
35.62
30.50
25.46
21.74
20.16
20.89
23.45
26.96
30.49
33.37
35.32
36.36
36.61
36.13
34.75
32.23
28.33
23.10
16.82
10.05
3.41
-2.66
-7.98
-12.76
-17.55
-23.01
-29.73
-37.90
-47.06
-56.02
-63.09
-66.46
-64.77
-57.61
-45.66
-30.49
-14.09
1.67
15.41
26.29
33.99
38.43
39.76
38.36
34.87
30.24
25.62
22.05
20.18
20.09
21.35
23.22
24.95
26.04
26.22
25.43
23.59
20.65
16.59
11.60
6.02
0.34
-5.06
-9.98
-14.51
-18.91
-23.52
-28.70
-34.73
-41.76
-49.57
-57.38
-63.78
-67.01
-65.47
-58.33
-45.93
-29.76
-12.04
4.99
19.58
30.71
38.08
41.79
42.21
39.87
35.50
30.05
24.60
20.13
17.32
16.45
17.36
19.60
22.53
25.44
27.61
28.36
27.19
23.88
18.68
12.18
5.24
-1.31
-6.91
-11.40
-15.05
-18.44
-22.37
-27.53
-34.27
-42.27
-50.44
-56.97
-59.91
-57.73
-49.98
-37.40
-21.73
-5.07
10.66
24.15
34.67
41.87
45.65
46.05
43.46
38.65
32.77
27.09
22.72
20.25
19.74
20.69
22.26
23.56
23.79
22.45
19.44
15.04
9.85
4.52
-0.45
-4.88
-8.95
-12.98
-17.41
-22.62
-28.88
-36.34
-44.88
-53.95
-62.43
-68.78
-71.26
-68.52
-60.05
-46.50
-29.53
-11.45
5.50
19.55
29.75
35.85
38.10
37.06
33.44
28.10
22.10
16.58
12.57
10.72
11.02
12.89
15.28
17.17
17.77
16.75
14.28
10.75
6.68
2.47
-1.57
-5.34
-8.86
-12.30
-15.99
-20.36
-25.84
-32.54
-39.98
-47.06
-52.17
-53.69
-50.43
-42.21
-29.85
-14.93
0.68
15.29
27.72
37.29
43.68
46.83
46.82
44.01
39.03
32.80
26.42
20.90
17.00
15.03
14.80
15.72
16.97
17.79
17.69
16.41
14.01
10.71
6.73
2.31
-2.39
-7.24
-12.22
-17.52
-23.38
-30.09
-37.64
-45.53
-52.66
-57.58
-58.88
-55.69
-48.00
-36.66
-23.11
-8.97
4.39
15.92
25.01
31.29
34.65
35.17
33.20
29.42
24.67
19.83
15.69
12.69
10.92
10.15
9.86
9.54
8.73
7.19
4.90
1.96
-1.43
-5.13
-9.01
-13.02
-17.13
-21.40
-25.97
-31.03
-36.68
-42.69
-48.36
-52.46
-53.53
-50.25
-42.06
-29.36
-13.50
3.64
20.13
34.46
45.72
53.51
57.76
58.53
55.99
50.53
42.92
34.31
26.07
19.49
15.37
13.85
14.34
15.81
17.15
17.45
16.32
13.84
10.41
6.53
2.52
-1.53
-5.82
-10.64
-16.34
-23.12
-30.91
-39.26
-47.28
-53.66
-56.89
-55.75
-49.63
-38.83
-24.54
-8.52
7.40
21.66
33.23
41.47
46.08
47.02
44.56
39.38
32.63
25.64
19.69
15.63
13.70
13.49
14.28
15.18
15.54
14.97
13.37
10.81
7.44
3.41
-1.12
-5.99
-11.04
-16.18
-21.47
-27.12
-33.30
-39.94
-46.37
-51.37
-53.38
-51.06
-43.78
-31.96
-16.98
-0.80
14.65
27.84
37.88
44.41
47.45
47.28
44.35
39.45
33.57
27.84
23.26
20.49
19.68
20.46
22.12
23.82
24.79
24.55
22.91
19.98
16.10
11.66
7.03
2.46
-1.95
-6.27
-10.69
-15.49
-21.00
-27.38
-34.48
-41.62
-47.60
-50.88
-50.07
-44.40
-34.06
-20.17
-4.55
10.81
24.18
34.27
40.42
42.50
40.88
36.36
30.11
23.48
17.72
13.77
12.04
12.35
14.13
16.60
19.05
20.94
21.97
21.95
20.76
18.30
14.55
9.65
3.97
-1.87
-7.24
-11.61
-14.78
-16.97
-18.71
-20.82
-24.10
-29.11
-35.84
-43.57
-50.86
-55.90
-56.99
-53.16
-44.47
-32.05
-17.73
-3.58
8.72
18.07
24.01
26.60
26.24
23.59
19.52
15.03
11.14
8.67
8.13
9.55
12.47
16.17
19.77
22.52
23.95
23.95
22.68
20.42
17.49
14.02
10.03
5.53
0.57
-4.60
-9.60
-14.07
-17.82
-20.96
-23.94
-27.35
-31.65
-36.77
-41.92
-45.74
-46.64
-43.44
-35.78
-24.30
-10.48
3.87
17.06
27.81
35.33
39.28
39.68
36.93
31.82
25.47
19.19
14.09
10.90
9.75
10.24
11.69
13.41
14.85
15.74
15.94
15.39
13.97
11.52
7.93
3.30
-2.07
-7.67
-12.89
-17.27
-20.64
-23.14
-25.25
-27.62
-30.82
-35.13
-40.33
-45.58
-49.51
-50.66
-47.79
-40.45
-29.16
-15.32
-0.86
12.32
22.84
30.00
33.72
34.33
32.29
28.18
22.68
16.65
11.05
6.83
4.59
4.48
6.11
8.71
11.49
13.75
15.13
15.50
14.88
13.34
10.93
7.80
4.15
0.27
-3.55
-7.13
-10.44
-13.63
-17.02
-20.94
-25.65
-31.17
-37.07
-42.39
-45.79
-45.88
-41.70
-33.15
-21.09
-7.13
6.89
19.32
29.02
35.40
38.27
37.77
34.29
28.56
21.62
14.64
8.70
4.51
2.31
1.81
2.47
3.66
4.86
5.67
5.85
5.27
3.87
1.66
-1.27
-4.76
-8.61
-12.56
-16.49
-20.29
-24.07
-27.98
-32.28
-37.17
-42.78
-48.94
-55.08
-60.20
-63.01
-62.21
-56.98
-47.31
-34.11
-19.06
-4.09
9.03
19.11
25.67
28.78
28.95
26.86
23.19
18.68
14.03
9.95
6.98
5.49
5.48
6.65
8.45
10.27
11.56
11.93
11.21
9.31
6.24
2.09
-2.88
-8.34
-13.84
-18.96
-23.45
-27.33
-30.87
-34.61
-39.12
-44.79
-51.47
-58.37
-64.03
-66.75
-65.05
-58.27
-46.80
-32.05
-15.98
-0.53
12.79
23.07
29.92
33.32
33.49
30.94
26.50
21.30
16.59
13.44
12.45
13.51
16.02
18.99
21.52
23.01
23.32
22.62
21.19
19.20
16.66
13.44
9.49
4.90
-0.02
-4.92
-9.55
-13.86
-18.06
-22.47
-27.52
-33.54
-40.67
-48.75
-57.10
-64.43
-69.07
-69.33
-64.09
-53.32
-38.16
-20.66
-3.15
12.40
24.75
33.43
38.52
40.35
39.37
36.15
31.50
26.47
22.23
19.79
19.65
21.61
24.88
28.34
30.98
32.23
32.07
30.84
28.93
26.56
23.69
20.17
15.91
11.12
6.21
1.59
-2.50
-6.12
-9.50
-12.89
-16.48
-20.38
-24.77
-29.95
-36.26
-43.75
-51.88
-59.34
-64.33
-65.04
-60.28
-50.00
-35.31
-18.21
-0.97
14.47
26.87
35.71
40.98
42.98
42.10
38.87
34.14
29.06
24.97
22.98
23.66
26.71
31.14
35.65
39.09
40.88
40.98
39.78
37.70
35.01
31.72
27.72
22.91
17.37
11.33
5.19
-0.62
-5.75
-10.03
-13.49
-16.40
-19.15
-22.23
-26.13
-31.26
-37.79
-45.49
-53.51
-60.48
-64.65
-64.39
-58.69
-47.58
-32.20
-14.53
3.17
18.97
31.56
40.34
45.28
46.61
44.86
40.79
35.45
30.07
25.86
23.63
23.64
25.55
28.58
31.79
34.35
35.71
35.67
34.30
31.90
28.81
25.25
21.32
16.89
11.88
6.32
0.49
-5.14
-10.03
-13.89
-16.72
-18.90
-21.02
-23.68
-27.40
-32.45
-38.81
-46.07
-53.31
-59.21
-62.18
-60.80
-54.30
-42.91
-27.91
-11.26
4.86
18.60
28.82
35.14
37.79
37.36
34.60
30.33
25.48
21.05
18.01
17.06
18.38
21.50
25.46
29.13
31.69
32.79
32.61
31.59
30.05
28.05
25.29
21.49
16.52
10.65
4.42
-1.54
-6.74
-11.03
-14.56
-17.71
-20.99
-24.84
-29.61
-35.43
-42.06
-48.79
-54.50
-57.77
-57.40
-52.63
-43.61
-31.24
-17.05
-2.71
10.27
20.75
28.02
31.68
31.73
28.53
22.92
16.18
9.84
5.33
3.60
4.86
8.53
13.52
18.55
22.57
25.01
25.79
25.20
23.63
21.40
18.68
15.42
11.51
6.83
1.42
-4.56
-10.77
-16.85
-22.49
-27.63
-32.46
-37.39
-42.92
-49.38
-56.72
-64.23
-70.63
-74.28
-73.65
-67.79
-56.77
-41.64
-24.16
-6.35
10.04
23.75
34.03
40.50
43.09
42.07
38.08
32.27
26.07
20.95
18.02
17.78
20.01
23.94
28.49
32.65
35.71
37.36
37.63
36.75
34.90
32.15
28.46
23.77
18.18
12.03
5.86
0.25
-4.40
-8.05
-11.01
-13.92
-17.57
-22.62
-29.31
-37.23
-45.22
-51.50
-54.17
-51.80
-43.93
-31.26
-15.47
1.36
17.21
30.59
40.64
47.04
49.73
49.00
45.39
39.89
33.79
28.54
25.33
24.82
26.88
30.61
34.79
38.17
40.01
40.17
39.10
37.51
35.96
34.55
32.94
30.62
27.19
22.65
17.45
12.24
7.61
3.80
0.64
-2.27
-5.41
-9.31
-14.30
-20.53
-27.70
-34.94
-40.81
-43.58
-41.81
-34.85
-23.26
-8.63
6.98
21.66
34.29
44.73
53.48
61.32
68.87
76.42
84.25
92.74
102.68
115.00
130.41
148.73
168.58
187.37
202.05
209.97
209.84
202.03
188.41
171.44
153.26
135.11
117.26
99.38
81.10
62.25
42.85
22.90
2.24
-19.33
-41.76
-64.47
-86.51
-106.86
-125.02
-141.06
-155.45
-168.48
-179.79
-188.38
-193.00
-192.92
-188.36
-180.54
-171.26
-162.18
-154.44
-148.65
-145.14
-144.32
-146.64
-152.41
-161.32
-172.34
-183.84
-194.12
-201.95
-206.78
-208.74
-208.28
-205.66
-200.76
-192.92
-181.14
-164.33
-141.70
-113.02
-78.80
-40.27
0.81
42.46
82.77
120.06
152.90
180.07
200.56
213.63
219.05
217.25
209.31
196.82
181.62
165.55
150.22
136.94
126.64
119.75
116.19
115.22
115.59
115.73
114.12
109.62
101.78
90.71
77.06
61.79
46.03
30.94
17.67
7.06
-0.47
-5.06
-7.46
-8.85
-10.47
-13.24
-17.42
-22.50
-27.47
-31.18
-32.80
-32.24
-30.13
-27.65
-25.92
-25.66
-26.92
-29.22
-31.87
-34.35
-36.50
-38.54
-40.86
-43.93
-48.07
-53.37
-59.57
-65.90
-71.09
-73.63
-72.08
-65.58
-54.27
-39.27
-22.37
-5.57
9.40
21.42
29.87
34.55
35.61
33.50
28.96
23.12
17.22
12.43
9.54
8.73
9.62
11.41
13.24
14.40
14.62
13.98
12.79
11.37
9.87
8.27
6.56
4.86
3.57
3.23
4.16
6.42
9.57
12.93
15.79
17.63
18.16
17.24
14.90
11.36
7.19
3.38
1.21
1.83
5.89
13.12
22.43
32.28
41.06
47.66
51.49
52.42
50.52
45.76
38.18
27.98
15.88
2.98
-9.29
-19.75
-27.77
-33.41
-37.25
-40.05
-42.43
-44.74
-47.16
-49.87
-53.06
-57.06
-62.13
-68.45
-76.00
-84.50
-93.42
-101.95
-109.07
-113.79
-115.48
-114.14
-110.52
-105.88
-101.52
-98.21
-95.83
-93.33
-89.16
-81.84
-70.54
-55.37
-37.35
-18.12
0.62
17.37
31.07
40.97
46.64
48.10
45.74
40.54
33.88
27.36
22.24
19.32
18.63
19.64
21.52
23.44
24.89
25.56
25.35
24.23
22.09
18.84
14.47
9.12
3.09
-3.16
-9.19
-14.70
-19.68
-24.43
-29.44
-35.39
-42.82
-51.92
-62.19
-72.38
-80.64
-84.97
-83.87
-76.85
-64.61
-48.80
-31.51
-14.67
0.28
12.46
21.45
27.11
29.58
29.27
26.97
23.80
21.04
19.80
20.68
23.62
27.96
32.64
36.61
39.12
39.97
39.32
37.54
34.94
31.61
27.44
22.31
16.20
9.31
1.95
-5.47
-12.64
-19.37
-25.72
-32.04
-38.88
-46.86
-56.27
-66.69
-76.82
-84.54
-87.59
-84.25
-74.03
-57.88
-37.87
-16.60
3.55
20.83
34.30
43.65
49.06
50.98
50.10
47.33
43.82
40.78
39.31
40.09
43.14
47.81
52.92
57.19
59.68
60.00
58.44
55.60
52.09
48.19
43.84
38.68
32.49
25.32
17.53
9.76
2.61
-3.57
-8.75
-13.20
-17.40
-21.94
-27.39
-34.29
-42.91
-53.09
-63.95
-73.81
-80.48
-81.82
-76.48
-64.48
-47.26
-27.23
-6.99
11.32
26.49
38.06
46.08
50.78
52.50
51.80
49.60
47.11
45.59
45.94
48.43
52.62
57.58
62.23
65.63
67.25
66.99
65.14
62.18
58.59
54.75
50.76
46.50
41.77
36.44
30.55
24.33
18.11
12.20
6.68
1.49
-3.59
-8.78
-14.34
-20.54
-27.77
-36.36
-46.30
-56.96
-66.91
-74.07
-76.32
-72.15
-61.29
-44.82
-24.86
-3.98
15.51
31.86
44.10
51.90
55.45
55.39
52.77
48.92
45.26
42.92
42.51
44.05
47.01
50.61
54.01
56.53
57.75
57.51
55.86
53.03
49.36
45.13
40.54
35.64
30.37
24.65
18.54
12.26
6.10
0.40
-4.70
-9.26
-13.50
-17.79
-22.53
-28.10
-34.75
-42.45
-50.75
-58.61
-64.52
-66.80
-64.15
-56.02
-42.96
-26.40
-8.37
9.05
24.06
35.49
42.75
45.88
45.43
42.36
37.92
33.44
30.05
28.59
29.37
32.20
36.35
40.91
44.87
47.50
48.48
47.94
46.33
44.12
41.55
38.55
34.80
29.97
24.00
17.27
10.47
4.40
-0.41
-3.87
-6.39
-8.68
-11.48
-15.32
-20.41
-26.60
-33.44
-40.19
-45.83
-49.15
-48.86
-43.95
-34.04
-19.52
-1.57
18.25
38.50
58.17
76.48
92.56
105.02
112.11
112.36
105.39
92.49
76.49
60.82
48.33
40.35
36.70
36.21
37.63
40.19
43.64
47.81
52.25
56.13
58.49
58.67
56.51
52.35
46.78
40.36
33.46
26.21
18.71
11.08
3.52
-3.75
-10.55
-16.80
-22.56
-28.09
-33.85
-40.36
-48.01
-56.72
-65.62
-73.01
-76.88
-75.49
-68.21
-55.88
-40.57
-24.94
-11.34
-1.19
5.22
8.47
9.39
8.73
6.91
4.23
1.07
-2.03
-4.34
-5.27
-4.63
-2.67
-0.05
2.47
4.26
5.08
4.99
4.24
3.07
1.57
-0.30
-2.61
-5.41
-8.57
-11.83
-14.84
-17.29
-18.99
-19.93
-20.35
-20.60
-21.16
-22.46
-24.87
-28.56
-33.46
-39.13
-44.72
-48.98
-50.52
-48.14
-41.29
-30.40
-16.86
-2.68
10.09
19.89
26.01
28.60
28.38
26.30
23.23
19.82
16.59
14.00
12.47
12.31
13.58
15.94
18.76
21.30
22.90
23.30
22.62
21.30
19.83
18.46
17.15
15.52
13.20
9.95
5.89
1.44
-2.85
-6.57
-9.57
-12.11
-14.66
-17.75
-21.81
-27.04
-33.48
-40.85
-48.47
-55.27
-59.84
-60.76
-57.07
-48.68
-36.53
-22.42
-8.43
3.64
12.75
18.72
21.96
23.17
23.00
21.96
20.40
18.72
17.22
16.26
16.00
16.45
17.37
18.39
19.18
19.55
19.46
19.03
18.37
17.56
16.57
15.32
13.80
12.04
10.17
8.35
6.69
5.19
3.70
1.98
-0.21
-3.03
-6.49
-10.47
-14.80
-19.39
-24.17
-29.15
-34.20
-38.91
-42.54
-44.09
-42.73
-38.08
-30.47
-20.91
-10.81
-1.47
6.21
11.84
15.38
17.00
16.92
15.48
13.12
10.53
8.35
7.13
7.00
7.69
8.71
9.51
9.82
9.54
8.80
7.71
6.32
4.60
2.48
-0.00
-2.79
-5.71
-8.65
-11.46
-14.11
-16.54
-18.73
-20.75
-22.72
-24.85
-27.46
-30.78
-34.84
-39.25
-43.20
-45.61
-45.48
-42.24
-35.99
-27.47
-17.84
-8.24
0.39
7.46
12.70
15.99
17.37
16.97
15.14
12.50
9.81
7.82
6.97
7.24
8.17
9.05
9.22
8.41
6.76
4.82
3.17
2.14
1.61
1.05
-0.16
-2.43
-5.71
-9.45
-12.96
-15.70
-17.63
-19.19
-21.12
-24.09
-28.43
-33.97
-39.98
-45.46
-49.28
-50.42
-48.28
-42.70
-34.19
-23.73
-12.57
-1.92
7.31
14.61
19.79
22.89
24.05
23.55
21.91
19.74
17.73
16.39
15.91
16.13
16.63
16.96
16.80
16.07
14.92
13.53
12.01
10.39
8.50
6.19
3.35
-0.03
-3.87
-7.96
-12.07
-15.97
-19.50
-22.65
-25.61
-28.75
-32.50
-37.11
-42.37
-47.54
-51.41
-52.63
-50.26
-44.00
-34.40
-22.72
-10.53
0.73
9.90
16.41
20.18
21.44
20.78
18.91
16.55
14.38
12.80
12.00
11.86
12.14
12.51
12.76
12.78
12.48
11.84
10.81
9.25
7.08
4.30
0.93
-2.84
-6.79
-10.65
-14.15
-17.05
-19.29
-21.10
-23.08
-26.00
-30.41
-36.26
-42.76
-48.43
-51.63
-50.98
-45.78
-36.07
-22.54
-6.27
11.53
29.58
46.64
61.52
73.34
81.68
86.78
89.41
90.52
90.73
89.96
87.58
82.51
74.05
62.28
48.36
34.27
22.25
14.24
11.46
14.16
21.58
31.94
42.70
50.98
54.33
51.40
42.31
28.53
12.21
-4.60
-20.65
-35.63
-49.96
-64.12
-78.13
-91.21
-101.91
-108.53
-109.88
-105.90
-97.92
-88.45
-80.33
-75.64
-74.93
-77.13
-80.14
-81.87
-81.08
-77.78
-72.76
-66.87
-60.48
-53.30
-44.77
-34.70
-23.64
-12.71
-3.17
4.21
9.36
12.83
15.22
16.91
17.83
17.63
16.04
13.15
9.48
5.79
2.79
0.81
-0.30
-1.10
-2.36
-4.66
-8.14
-12.26
-16.00
-18.03
-17.21
-13.00
-5.66
3.79
13.89
23.16
30.55
35.59
38.35
39.25
38.78
37.36
35.24
32.65
29.81
27.07
24.81
23.25
22.42
22.01
21.60
20.69
19.06
16.69
13.82
10.77
7.75
4.87
2.09
-0.60
-3.22
-5.69
-7.99
-10.24
-12.66
-15.60
-19.33
-23.92
-29.07
-34.07
-37.82
-39.21
-37.39
-32.14
-23.99
-14.07
-3.82
5.51
12.98
18.19
21.10
21.95
21.11
19.10
16.51
13.96
12.00
10.91
10.73
11.25
12.21
13.29
14.26
14.95
15.22
14.98
14.13
12.67
10.65
8.15
5.28
2.20
-0.96
-4.09
-7.14
-10.20
-13.52
-17.39
-22.02
-27.26
-32.54
-36.89
-39.20
-38.61
-34.77
-27.98
-19.11
-9.38
-0.03
7.89
13.69
17.08
18.19
17.42
15.41
12.86
10.42
8.61
7.69
7.63
8.17
8.98
9.70
10.10
10.06
9.52
8.40
6.67
4.32
1.44
-1.72
-4.87
-7.81
-10.48
-12.99
-15.55
-18.32
-21.45
-25.13
-29.47
-34.45
-39.65
-44.19
-46.81
-46.33
-42.02
-34.04
-23.38
-11.53
-0.01
10.13
18.35
24.52
28.68
30.92
31.36
30.28
28.15
25.62
23.35
21.75
20.97
20.83
21.01
21.15
20.98
20.35
19.15
17.30
14.67
11.21
6.93
2.06
-3.04
-7.97
-12.42
-16.28
-19.71
-23.00
-26.51
-30.54
-35.27
-40.60
-46.16
-51.19
-54.63
-55.35
-52.49
-45.79
-35.81
-23.79
-11.35
0.03
9.32
16.14
20.61
23.20
24.39
24.59
24.20
23.57
23.13
23.21
23.98
25.35
26.92
28.21
28.81
28.51
27.39
25.74
23.85
21.92
19.92
17.58
14.59
10.74
6.08
0.92
-4.18
-8.68
-12.30
-15.12
-17.63
-20.52
-24.46
-29.79
-36.43
-43.75
-50.70
-55.98
-58.32
-56.84
-51.32
-42.26
-30.75
-18.17
-5.72
5.73
15.74
24.08
30.59
35.04
37.34
37.58
36.35
34.63
33.59
34.22
37.06
42.02
48.51
55.66
62.52
68.36
72.72
75.53
77.01
77.68
78.19
79.05
80.55
82.57
84.65
86.12
86.36
84.88
81.49
76.22
69.25
60.81
51.12
40.33
28.51
15.75
2.29
-11.29
-24.12
-35.07
-43.14
-47.81
-49.19
-48.05
-45.43
-42.38
-39.48
-36.79
-33.80
-29.75
-24.05
-16.76
-8.79
-1.94
1.60
0.02
-7.38
-20.02
-36.19
-53.61
-69.97
-83.24
-91.72
-94.39
-91.26
-83.62
-73.88
-64.66
-57.74
-53.39
-50.63
-48.13
-45.25
-42.48
-40.87
-41.13
-42.84
-44.58
-44.83
-42.92
-39.49
-36.03
-34.09
-34.43
-36.92
-40.73
-44.97
-48.89
-51.96
-53.67
-53.43
-50.61
-44.73
-35.76
-24.23
-11.18
2.04
14.15
24.05
31.11
35.16
36.59
36.18
34.96
33.93
33.73
34.46
35.76
37.00
37.68
37.65
37.10
36.43
35.92
35.56
35.08
34.02
32.07
29.21
25.69
21.91
18.23
14.74
11.34
7.81
4.00
-0.17
-4.78
-9.94
-15.87
-22.68
-30.12
-37.40
-43.25
-46.23
-45.24
-39.97
-30.99
-19.62
-7.39
4.29
14.43
22.46
28.10
31.20
31.81
30.27
27.32
24.03
21.46
20.36
20.86
22.43
24.19
25.31
25.28
24.16
22.36
20.39
18.54
16.76
14.60
11.54
7.20
1.64
-4.63
-10.86
-16.32
-20.74
-24.31
-27.67
-31.56
-36.51
-42.69
-49.81
-57.16
-63.74
-68.37
-69.85
-67.41
-60.74
-50.25
-37.01
-22.40
-7.90
5.29
16.26
24.56
30.00
32.75
33.30
32.35
30.81
29.54
29.14
29.83
31.47
33.54
35.43
36.58
36.66
35.66
33.82
31.42
28.66
25.51
21.73
17.07
11.40
4.93
-1.88
-8.49
-14.44
-19.62
-24.22
-28.70
-33.63
-39.43
-46.36
-54.21
-62.33
-69.46
-74.05
-74.57
-70.06
-60.50
-46.94
-31.16
-15.09
-0.27
12.38
22.54
30.21
35.48
38.46
39.44
38.95
37.87
37.13
37.46
39.11
41.75
44.69
47.10
48.38
48.30
47.02
44.89
42.23
39.19
35.65
31.41
26.25
20.15
13.39
6.41
-0.32
-6.43
-11.78
-16.48
-20.75
-24.96
-29.54
-34.97
-41.57
-49.38
-57.75
-65.33
-70.32
-70.98
-66.27
-56.33
-42.40
-26.39
-10.28
4.40
16.69
26.19
32.78
36.50
37.60
36.61
34.41
32.09
30.72
30.95
32.91
36.12
39.71
42.80
44.75
45.38
44.89
43.68
42.05
40.07
37.55
34.22
29.89
24.69
18.99
13.28
8.00
3.35
-0.73
-4.52
-8.34
-12.50
-17.32
-23.01
-29.63
-36.87
-43.95
-49.55
-52.14
-50.47
-44.00
-33.24
-19.55
-4.83
9.15
20.99
29.97
35.86
38.86
39.44
38.33
36.42
34.66
33.84
34.35
36.19
38.93
42.03
45.02
47.66
49.95
51.98
53.85
55.47
56.64
57.09
56.61
55.25
53.30
51.41
50.42
51.16
54.11
58.92
64.28
67.99
67.58
61.11
47.95
29.19
7.47
-13.89
-31.78
-44.16
-50.37
-50.88
-46.76
-39.10
-28.73
-16.18
-1.94
13.36
28.81
43.32
55.79
65.24
70.95
72.40
69.26
61.40
49.09
33.00
14.38
-5.07
-23.54
-39.42
-51.65
-59.88
-64.42
-66.04
-65.84
-65.07
-65.02
-66.75
-70.93
-77.53
-85.70
-93.84
-99.99
-102.57
-100.96
-95.92
-89.35
-83.51
-80.13
-79.65
-81.16
-82.81
-82.74
-79.63
-73.13
-63.66
-51.96
-38.77
-24.75
-10.64
2.72
14.34
23.40
29.44
32.60
33.48
33.07
32.43
32.38
33.28
34.90
36.67
37.86
38.00
37.08
35.51
33.91
32.68
31.84
30.96
29.44
26.76
22.78
17.73
12.16
6.64
1.62
-2.70
-6.44
-9.98
-13.90
-18.86
-25.27
-33.20
-42.00
-50.49
-57.09
-60.26
-59.02
-53.18
-43.37
-30.85
-17.08
-3.50
8.78
18.97
26.61
31.55
33.92
34.16
32.92
31.02
29.24
28.15
27.95
28.50
29.44
30.26
30.60
30.23
29.17
27.52
25.40
22.90
19.99
16.61
12.63
8.05
2.95
-2.50
-8.05
-13.48
-18.65
-23.56
-28.36
-33.29
-38.61
-44.49
-50.83
-57.10
-62.23
-64.83
-63.59
-57.74
-47.46
-33.88
-18.75
-3.91
9.21
19.82
27.60
32.56
34.83
34.68
32.62
29.51
26.37
24.19
23.51
24.29
25.99
27.79
29.01
29.36
28.93
28.03
26.98
25.85
24.53
22.72
20.13
16.64
12.29
7.33
2.09
-3.11
-8.06
-12.79
-17.56
-22.92
-29.48
-37.64
-47.27
-57.49
-66.71
-73.01
-74.72
-70.90
-61.79
-48.61
-33.14
-17.23
-2.39
10.44
20.76
28.34
33.20
35.48
35.68
34.60
33.28
32.62
33.17
34.89
37.29
39.63
41.30
42.01
41.80
40.90
39.54
37.72
35.24
31.83
27.28
21.62
15.16
8.40
1.96
-3.67
-8.28
-12.04
-15.42
-19.14
-23.91
-30.17
-37.97
-46.73
-55.28
-62.01
-65.25
-63.72
-56.99
-45.69
-31.28
-15.60
-0.40
13.10
24.20
32.63
38.29
41.20
41.57
39.96
37.32
34.82
33.47
33.80
35.63
38.20
40.49
41.65
41.28
39.51
36.83
33.85
30.93
28.16
25.24
21.83
17.59
12.46
6.59
0.38
-5.70
-11.32
-16.37
-20.98
-25.46
-30.23
-35.73
-42.24
-49.89
-58.30
-66.63
-73.51
-77.26
-76.37
-70.06
-58.60
-43.52
-27.04
-11.50
1.32
10.65
16.59
19.72
20.67
19.90
17.73
14.71
11.70
9.90
10.44
13.87
19.85
27.25
34.63
40.78
45.18
47.93
49.43
49.85
48.98
46.19
40.88
32.83
22.45
10.71
-1.25
-12.39
-22.01
-29.94
-36.32
-41.59
-46.36
-51.31
-57.10
-64.15
-72.27
-80.68
-87.96
-92.45
-92.71
-88.01
-78.53
-65.32
-49.98
-34.28
-19.81
-7.74
1.25
7.01
9.82
10.36
9.60
8.49
7.76
7.70
8.22
8.92
9.43
9.49
9.18
8.60
7.76
6.51
4.48
1.39
-2.78
-7.64
-12.59
-17.05
-20.72
-23.65
-26.19
-28.76
-31.79
-35.76
-41.22
-48.69
-58.23
-69.08
-79.46
-86.88
-88.96
-84.24
-72.77
-56.04
-36.41
-16.31
2.32
18.30
30.97
39.96
45.08
46.46
44.76
41.30
37.81
35.99
36.90
40.61
46.22
52.28
57.30
60.30
60.94
59.39
56.10
51.53
46.05
39.97
33.67
27.53
21.94
17.05
12.72
8.49
3.72
-2.31
-10.17
-20.04
-31.52
-43.47
-54.07
-61.24
-63.16
-58.93
-48.93
-34.76
-18.75
-3.18
10.39
21.30
29.64
35.78
40.01
42.41
43.02
42.18
40.52
39.00
38.45
39.23
41.08
43.20
44.61
44.56
42.85
39.77
35.99
32.14
28.60
25.38
22.21
18.75
14.77
10.21
5.16
-0.38
-6.54
-13.52
-21.43
-29.91
-38.05
-44.40
-47.33
-45.55
-38.57
-26.91
-11.98
4.41
20.47
34.86
46.78
55.88
62.02
65.23
65.66
63.72
60.15
55.85
51.70
48.32
45.89
44.20
42.81
41.24
39.12
36.25
32.55
28.04
22.86
17.17
11.23
5.28
-0.54
-6.20
-11.84
-17.77
-24.39
-32.17
-41.32
-51.60
-62.09
-71.14
-76.76
-77.20
-71.62
-60.43
-45.31
-28.57
-12.42
1.58
12.87
21.49
27.81
32.06
34.31
34.59
33.22
30.90
28.58
27.15
27.08
28.30
30.16
31.78
32.33
31.34
28.72
24.81
20.07
14.92
9.63
4.30
-1.01
-6.31
-11.59
-17.01
-22.87
-29.50
-37.06
-45.13
-52.60
-57.82
-59.10
-55.35
-46.48
-33.49
-18.08
-2.17
12.65
25.33
35.39
42.79
47.69
50.42
51.35
50.89
49.51
47.70
45.95
44.64
43.99
43.96
44.16
43.99
42.75
39.91
35.29
29.13
21.98
14.44
6.98
-0.21
-7.23
-14.24
-21.44
-28.95
-36.94
-45.55
-54.77
-64.16
-72.72
-78.96
-81.27
-78.59
-70.84
-58.95
-44.53
-29.34
-14.77
-1.66
9.64
18.96
26.20
31.31
34.37
35.76
36.09
36.09
36.35
37.23
38.73
40.59
42.44
43.81
44.29
43.56
41.36
37.62
32.49
26.27
19.46
12.49
5.70
-0.80
-7.15
-13.71
-20.93
-29.24
-38.77
-49.13
-59.28
-67.58
-72.16
-71.45
-64.80
-52.74
-36.90
-19.45
-2.45
12.62
25.07
34.72
41.61
45.81
47.49
47.05
45.24
43.10
41.60
41.35
42.31
43.91
45.42
46.25
46.19
45.35
44.02
42.30
40.15
37.34
33.69
29.14
23.91
18.33
12.70
7.20
1.66
-4.33
-11.37
-19.89
-29.82
-40.31
-49.80
-56.31
-58.11
-54.34
-45.27
-32.26
-17.15
-1.77
12.59
25.19
35.65
43.65
48.91
51.32
51.09
48.92
45.82
42.80
40.55
39.32
39.00
39.22
39.64
39.93
39.79
38.92
36.97
33.78
29.40
24.16
18.52
12.83
7.16
1.28
-5.25
-12.85
-21.70
-31.67
-42.16
-52.25
-60.74
-66.42
-68.30
-65.91
-59.42
-49.63
-37.75
-25.05
-12.62
-1.21
8.60
16.37
21.61
23.92
23.10
19.43
13.72
7.25
1.46
-2.46
-3.79
-2.58
0.57
4.68
8.85
12.44
15.23
17.37
19.11
20.68
22.18
23.58
24.74
25.47
25.41
24.11
21.06
15.95
9.05
1.30
-5.72
-10.15
-10.51
-6.13
2.66
14.68
28.27
41.82
53.98
63.86
70.95
75.08
76.47
75.60
73.25
70.22
67.23
64.70
62.67
60.93
59.11
56.86
53.88
50.01
45.19
39.54
33.32
26.95
20.83
15.27
10.34
5.84
1.44
-3.33
-8.91
-15.66
-23.72
-32.83
-42.26
-50.83
-57.08
-59.75
-58.13
-52.32
-43.28
-32.45
-21.39
-11.40
-3.34
2.35
5.53
6.24
4.75
1.57
-2.53
-6.58
-9.63
-10.99
-10.41
-8.17
-4.96
-1.62
1.00
2.32
2.04
0.17
-3.06
-7.26
-11.93
-16.59
-20.84
-24.47
-27.49
-30.16
-33.06
-36.88
-42.14
-48.80
-56.02
-62.16
-65.26
-63.71
-56.84
-45.33
-30.92
-15.85
-2.14
8.92
16.80
21.53
23.36
22.58
19.51
14.52
8.13
0.91
-6.60
-13.97
-20.92
-27.18
-32.45
-36.39
-38.65
-39.06
-37.71
-34.98
-31.40
-27.55
-23.90
-20.73
-18.13
-16.17
-14.93
-14.67
-15.71
-18.39
-22.66
-27.94
-32.96
-35.99
-35.25
-29.51
-18.61
-3.55
13.72
30.82
45.53
56.27
62.35
63.90
61.69
56.78
50.30
43.25
36.43
30.50
26.06
23.60
23.38
25.38
28.96
32.99
36.03
36.80
34.61
29.71
23.13
16.23
10.04
4.88
0.21
-4.99
-11.73
-20.64
-31.80
-44.80
-58.85
-72.77
-85.01
-93.61
-96.66
-92.78
-81.78
-64.94
-44.76
-24.33
-6.39
7.36
16.46
21.53
23.77
24.45
24.67
25.18
26.39
28.38
30.97
33.74
36.20
37.96
38.90
39.12
38.87
38.36
37.64
36.51
34.51
31.09
25.82
18.62
9.85
0.14
-9.92
-20.17
-30.80
-41.99
-53.14
-62.41
-66.82
-63.06
-48.74
-23.42
11.20
51.78
94.07
133.67
166.28
188.28
197.33
193.32
178.80
158.65
138.57
123.05
113.74
109.06
105.29
98.57
86.74
70.19
51.46
33.96
20.57
12.84
10.78
13.31
18.75
25.27
31.13
34.90
35.61
33.07
28.00
21.83
16.20
12.33
10.45
9.66
8.36
4.99
-1.17
-9.56
-18.37
-25.09
-27.28
-23.47
-13.61
0.69
16.71
31.34
42.01
47.17
46.50
40.65
30.90
18.95
6.51
-4.85
-14.13
-21.07
-26.28
-30.97
-36.48
-43.71
-52.83
-63.35
-74.45
-85.37
-95.68
-105.37
-114.54
-123.04
-130.13
-134.42
-134.29
-128.67
-117.70
-102.94
-86.93
-72.21
-60.63
-52.93
-49.02
-48.40
-50.30
-53.72
-57.22
-59.07
-57.76
-52.65
-44.35
-34.47
-24.89
-16.93
-10.97
-6.67
-3.49
-1.28
-0.48
-1.93
-6.50
-14.65
-26.11
-39.85
-54.21
-67.27
-77.32
-83.30
-84.99
-83.00
-78.55
-73.05
-67.82
-63.97
-62.29
-63.37
-67.45
-74.40
-83.41
-93.12
-101.76
-107.78
-110.33
-109.58
-106.64
-103.19
-100.91
-101.03
-104.13
-109.95
-117.30
-124.24
-128.60
-128.73
-124.28
-116.56
-108.25
-102.56
-102.18
-108.35
-120.44
-136.07
-151.74
-163.58
-168.38
-164.20
-150.82
-129.70
-103.29
-74.34
-45.02
-16.64
10.27
35.48
58.66
79.24
96.48
109.92
119.62
126.03
129.33
128.95
123.52
111.72
93.47
71.00
48.60
31.26
22.60
23.23
30.69
40.64
48.92
53.06
52.73
48.95
42.87
35.04
25.49
14.31
2.29
-8.95
-17.38
-21.18
-19.22
-11.37
1.75
19.08
39.27
60.66
81.32
99.26
112.80
121.04
124.21
123.55
120.75
117.23
113.62
109.84
105.49
100.57
95.69
91.93
89.99
89.28
87.43
80.86
66.01
41.15
7.53
-30.54
-66.85
-95.17
-111.07
-112.89
-101.76
-80.68
-53.48
-23.98
4.40
28.85
47.21
58.26
62.04
59.74
53.39
45.21
37.00
30.01
25.11
23.20
25.21
31.63
41.60
52.36
59.78
59.81
50.48
33.41
13.52
-2.77
-10.21
-6.90
5.11
20.97
35.30
44.17
46.04
41.42
31.87
19.08
4.50
-10.51
-24.47
-35.86
-43.54
-47.13
-47.19
-45.02
-42.04
-39.23
-36.86
-34.51
-31.39
-26.81
-20.53
-13.01
-5.22
1.74
7.08
10.70
13.08
15.03
17.13
19.49
21.70
23.20
23.64
23.15
22.20
21.40
21.15
21.46
21.93
21.91
20.68
17.69
12.77
6.20
-1.28
-8.65
-14.90
-19.32
-21.52
-21.44
-19.20
-14.94
-8.87
-1.27
7.33
16.15
24.29
30.97
35.75
38.57
39.70
39.54
38.43
36.52
33.86
30.57
26.99
23.80
21.93
22.28
25.35
31.04
38.49
46.28
52.90
57.14
58.41
56.70
52.49
46.35
38.89
30.68
22.37
14.81
8.90
5.34
4.34
5.51
7.96
10.62
12.61
13.45
13.11
11.90
10.25
8.54
7.04
5.78
4.63
3.35
1.67
-0.56
-3.35
-6.61
-10.13
-13.64
-16.95
-19.90
-22.40
-24.48
-26.29
-28.05
-29.94
-32.06
-34.29
-36.38
-38.05
-39.12
-39.61
-39.72
-39.65
-39.43
-38.82
-37.31
-34.33
-29.50
-22.93
-15.27
-7.62
-1.20
2.96
4.45
3.43
0.57
-3.20
-7.01
-10.29
-12.68
-14.09
-14.49
-13.95
-12.61
-10.75
-8.79
-7.19
-6.29
-6.23
-6.88
-7.95
-9.06
-9.95
-10.48
-10.65
-10.59
-10.52
-10.77
-11.75
-13.84
-17.24
-21.76
-26.76
-31.26
-34.21
-34.86
-32.95
-28.82
-23.17
-16.82
-10.46
-4.54
0.78
5.50
9.88
14.23
18.78
23.49
27.81
30.78
31.38
28.93
23.58
16.28
8.49
1.66
-3.19
-5.70
-5.92
-4.23
-1.07
2.93
6.92
9.86
10.77
9.08
4.96
-0.68
-6.44
-10.85
-12.83
-11.95
-8.39
-2.79
4.00
11.15
18.06
24.37
29.92
34.72
38.89
42.59
46.08
49.60
53.23
56.81
59.78
61.50
61.55
60.16
58.25
57.18
58.15
61.57
66.72
71.98
75.27
74.88
69.85
60.17
46.63
30.46
13.10
-4.11
-19.96
-33.68
-44.95
-53.93
-61.13
-67.19
-72.66
-77.82
-82.74
-87.20
-90.83
-93.07
-93.34
-91.06
-86.02
-78.56
-69.56
-60.29
-51.94
-45.09
-39.54
-34.34
-28.31
-20.71
-11.53
-1.39
9.04
19.62
30.78
43.04
56.25
69.12
79.43
85.04
84.86
79.34
70.20
59.42
48.40
37.54
26.62
15.46
4.36
-6.08
-15.35
-23.53
-31.37
-39.87
-49.67
-60.60
-71.68
-81.44
-88.64
-92.66
-93.80
-93.14
-91.99
-91.40
-91.92
-93.38
-95.09
-96.11
-95.74
-93.93
-91.46
-89.83
-90.64
-94.81
-102.00
-110.63
-118.44
-123.51
-125.02
-123.51
-120.14
-115.72
-109.76
-100.30
-84.41
-59.31
-23.83
20.40
68.56
113.40
147.00
163.25
159.93
139.27
107.10
70.65
36.37
8.46
-11.31
-22.87
-26.94
-24.52
-16.84
-5.65
6.78
18.00
26.01
29.89
30.04
27.97
25.82
25.53
28.19
33.90
41.92
51.32
61.37
71.76
82.21
91.89
99.23
102.08
98.60
88.08
71.48
51.20
30.24
11.19
-4.74
-17.92
-29.94
-42.68
-57.18
-72.91
-87.77
-98.79
-103.06
-98.76
-85.48
-64.31
-37.51
-8.23
19.92
43.36
59.26
66.34
65.17
58.11
48.38
39.02
31.95
27.65
25.59
24.81
24.57
24.54
24.81
25.76
28.01
32.33
39.39
49.39
61.68
74.65
85.94
93.19
94.62
89.61
78.82
63.87
46.95
30.23
15.58
4.32
-2.83
-5.87
-5.44
-2.64
1.25
5.02
7.81
9.15
8.94
7.32
4.55
0.89
-3.30
-7.61
-11.54
-14.50
-15.93
-15.48
-13.16
-9.42
-5.07
-1.05
1.98
3.86
4.91
5.62
6.26
6.56
5.79
3.08
-2.13
-9.82
-19.32
-29.63
-39.68
-48.44
-55.04
-58.67
-58.67
-54.70
-46.95
-36.18
-23.65
-10.83
0.97
10.73
17.86
22.09
23.47
22.19
18.77
13.97
8.71
3.92
0.21
-2.28
-3.98
-5.61
-7.81
-10.86
-14.58
-18.45
-21.96
-24.87
-27.29
-29.61
-32.30
-35.77
-40.27
-45.85
-52.29
-58.98
-64.90
-68.74
-69.25
-65.63
-57.84
-46.73
-33.69
-20.33
-7.98
2.50
10.71
16.52
19.93
20.97
19.80
16.89
13.00
9.10
6.06
4.40
4.05
4.44
4.67
3.99
1.95
-1.31
-5.31
-9.38
-12.98
-15.96
-18.53
-21.29
-24.89
-29.93
-36.61
-44.60
-52.96
-60.30
-65.00
-65.60
-61.24
-51.90
-38.49
-22.62
-6.23
8.82
21.15
30.01
35.26
37.20
36.31
33.24
28.62
23.13
17.49
12.41
8.43
5.82
4.41
3.65
2.84
1.36
-1.06
-4.27
-7.88
-11.51
-15.04
-18.62
-22.59
-27.30
-32.99
-39.71
-47.44
-55.99
-64.92
-73.32
-79.74
-82.43
-79.85
-71.23
-57.02
-38.87
-19.17
-0.43
15.46
27.55
35.76
40.57
42.64
42.59
40.95
38.31
35.33
32.64
30.73
29.79
29.62
29.82
29.92
29.50
28.33
26.29
23.36
19.58
15.06
9.95
4.51
-1.01
-6.42
-11.67
-16.96
-22.71
-29.50
-37.86
-47.87
-58.87
-69.29
-76.93
-79.55
-75.57
-64.78
-48.33
-28.50
-7.89
11.24
27.48
40.16
49.26
54.95
57.48
57.24
54.86
51.22
47.42
44.39
42.66
42.19
42.43
42.68
42.31
41.04
38.97
36.39
33.61
30.77
27.70
24.10
19.61
14.09
7.68
0.81
-5.98
-12.25
-17.81
-22.81
-27.72
-33.19
-39.90
-48.32
-58.51
-69.80
-80.69
-89.01
-92.42
-89.08
-78.37
-61.17
-39.65
-16.62
5.20
23.82
38.21
48.19
54.13
56.69
56.61
54.68
51.70
48.48
45.76
44.07
43.60
44.13
45.14
45.95
45.94
44.81
42.64
39.77
36.67
33.66
30.80
27.87
24.51
20.39
15.42
9.78
3.90
-1.77
-6.89
-11.38
-15.45
-19.50
-24.05
-29.63
-36.70
-45.45
-55.51
-65.81
-74.52
-79.43
-78.57
-70.87
-56.65
-37.60
-16.22
4.84
23.48
38.47
49.41
56.43
59.92
60.31
58.20
54.39
49.90
45.81
42.97
41.73
41.88
42.75
43.54
43.64
42.74
40.93
38.51
35.86
33.16
30.39
27.32
23.55
18.77
12.96
6.45
-0.15
-6.13
-11.10
-15.07
-18.53
-22.21
-26.88
-33.11
-41.17
-50.80
-61.10
-70.53
-77.00
-78.42
-73.36
-61.67
-44.60
-24.46
-3.92
14.77
30.18
41.73
49.33
53.17
53.57
51.06
46.51
41.11
36.12
32.55
30.84
30.83
31.85
33.02
33.59
33.13
31.61
29.29
26.60
23.92
21.36
18.78
15.83
12.14
7.56
2.26
-3.32
-8.68
-13.50
-17.83
-22.07
-26.86
-32.82
-40.32
-49.27
-58.94
-67.96
-74.42
-76.27
-71.89
-60.73
-43.55
-22.38
0.14
21.46
39.76
54.21
64.78
71.81
75.69
76.70
75.23
71.94
67.84
64.10
61.61
60.67
60.79
60.98
60.19
57.75
53.60
48.22
42.31
36.36
30.55
24.63
18.08
10.44
1.36
-9.22
-21.11
-33.95
-47.27
-60.56
-73.36
-85.37
-96.50
-106.92
-117.07
-127.41
-138.08
-148.48
-157.09
-161.64
-159.77
-149.82
-131.62
-106.77
-78.17
-49.21
-22.78
-0.67
16.59
29.31
38.09
43.46
45.85
45.74
43.82
41.08
38.53
36.88
36.31
36.47
36.67
36.23
34.79
32.38
29.30
25.96
22.70
19.58
16.53
13.37
9.93
6.14
2.05
-2.16
-6.31
-10.24
-13.85
-17.16
-20.31
-23.62
-27.59
-32.80
-39.65
-47.96
-56.75
-64.21
-68.12
-66.56
-58.60
-44.71
-26.60
-6.63
12.85
30.05
43.86
53.82
59.78
61.88
60.53
56.51
50.96
45.16
40.23
36.88
35.27
35.01
35.47
36.00
36.17
35.87
35.22
34.42
33.56
32.46
30.76
28.00
23.84
18.32
11.79
4.88
-1.77
-7.71
-12.81
-17.30
-21.70
-26.75
-33.20
-41.62
-52.05
-63.69
-74.87
-83.18
-86.19
-82.11
-70.47
-52.35
-30.14
-6.79
14.97
33.16
46.80
55.72
60.28
61.09
58.95
54.88
50.04
45.68
42.79
41.89
42.90
45.22
47.98
50.39
51.99
52.67
52.56
51.86
50.66
48.84
46.12
42.23
36.98
30.45
22.90
14.81
6.67
-1.10
-8.23
-14.67
-20.54
-26.15
-31.99
-38.67
-46.80
-56.74
-68.29
-80.41
-91.19
-98.19
-99.15
-92.68
-78.91
-59.37
-36.67
-13.62
7.50
25.27
39.14
49.10
55.36
58.16
57.86
55.08
50.74
46.01
41.98
39.44
38.65
39.34
40.95
42.81
44.37
45.26
45.32
44.42
42.46
39.40
35.30
30.37
24.91
19.22
13.48
7.68
1.72
-4.54
-11.08
-17.70
-24.05
-29.83
-34.95
-39.68
-44.58
-50.36
-57.54
-66.24
-75.79
-84.71
-90.93
-92.23
-86.88
-74.15
-54.59
-29.82
-2.14
26.14
53.11
77.47
98.38
115.23
127.48
134.73
136.98
134.86
129.73
123.41
117.68
113.80
112.15
112.25
113.10
113.66
113.16
111.35
108.30
104.32
99.73
94.72
89.22
82.73
74.39
63.06
47.88
28.62
6.08
-18.05
-41.66
-62.90
-80.74
-95.12
-106.67
-116.27
-124.72
-132.61
-140.27
-147.72
-154.47
-159.33
-160.53
-156.15
-144.83
-126.46
-102.40
-75.23
-47.97
-23.31
-3.02
12.14
22.27
27.91
29.84
28.96
26.26
22.79
19.52
17.21
16.29
16.90
18.92
22.02
25.79
29.71
33.27
35.98
37.59
38.02
37.36
35.67
32.89
28.78
23.12
15.93
7.60
-1.12
-9.40
-16.56
-22.38
-27.09
-31.26
-35.65
-40.96
-47.65
-55.74
-64.60
-72.85
-78.62
-80.01
-75.68
-65.45
-50.36
-32.39
-13.85
3.31
17.82
29.15
37.19
42.02
43.76
42.72
39.50
35.05
30.50
26.91
24.94
24.65
25.64
27.20
28.64
29.49
29.62
29.11
28.16
26.88
25.18
22.78
19.27
14.40
8.19
1.14
-6.00
-12.42
-17.68
-21.86
-25.55
-29.64
-35.01
-42.26
-51.57
-62.53
-74.04
-84.39
-91.49
-93.32
-88.61
-77.30
-60.63
-40.79
-20.21
-0.84
16.12
30.18
41.18
49.04
53.63
55.06
53.86
51.04
47.91
45.65
45.03
46.15
48.59
51.59
54.37
56.33
57.13
56.74
55.23
52.76
49.43
45.26
40.20
34.22
27.34
19.76
11.80
3.83
-3.86
-11.13
-17.99
-24.63
-31.28
-38.22
-45.74
-54.20
-63.92
-74.93
-86.75
-98.17
-107.27
-111.92
-110.38
-101.85
-86.85
-67.02
-44.66
-22.19
-1.55
15.98
29.83
39.92
46.58
50.33
51.84
51.85
51.12
50.29
49.85
50.05
50.90
52.22
53.69
54.96
55.67
55.56
54.46
52.30
49.16
45.18
40.59
35.59
30.35
25.00
19.57
14.10
8.54
2.81
-3.17
-9.42
-15.87
-22.41
-28.93
-35.47
-42.28
-49.87
-58.77
-69.31
-81.19
-93.31
-103.84
-110.60
-111.68
-105.99
-93.59
-75.69
-54.30
-31.75
-10.16
8.90
24.44
36.06
43.86
48.18
49.63
48.95
46.99
44.68
42.85
42.16
42.94
45.14
48.37
52.04
55.45
58.03
59.36
59.30
57.92
55.49
52.28
48.52
44.26
39.40
33.87
27.68
21.03
14.33
8.04
2.46
-2.32
-6.43
-10.19
-14.01
-18.42
-24.01
-31.33
-40.65
-51.60
-62.93
-72.61
-78.30
-78.06
-71.08
-58.01
-40.72
-21.69
-3.30
12.75
25.49
34.58
40.02
41.94
40.68
36.87
31.48
25.78
21.02
18.08
17.27
18.19
19.96
21.57
22.22
21.55
19.71
17.14
14.32
11.58
8.91
6.09
2.73
-1.53
-6.87
-13.14
-19.82
-26.02
-30.70
-32.98
-32.50
-29.57
-25.23
-20.92
-18.09
-17.77
-20.32
-25.26
-31.32
-36.74
-39.59
-38.32
-32.17
-21.43
-7.45
7.82
22.33
34.50
43.42
48.86
51.01
50.27
47.11
42.14
36.14
30.03
24.72
20.90
18.89
18.57
19.41
20.71
21.73
21.94
21.09
19.28
16.84
14.17
11.61
9.26
7.00
4.60
1.83
-1.41
-5.03
-8.81
-12.55
-16.15
-19.64
-23.29
-27.46
-32.57
-39.05
-47.08
-56.40
-66.14
-74.79
-80.40
-81.12
-75.77
-64.29
-47.86
-28.58
-8.87
9.14
24.01
35.11
42.47
46.51
47.85
47.13
45.00
42.05
38.84
35.92
33.70
32.46
32.25
32.91
34.05
35.20
35.84
35.61
34.31
31.93
28.62
24.61
20.18
15.57
10.95
6.36
1.77
-2.92
-7.78
-12.79
-17.84
-22.77
-27.44
-31.81
-36.02
-40.38
-45.35
-51.47
-59.06
-67.94
-77.19
-85.11
-89.53
-88.42
-80.57
-66.07
-46.39
-23.98
-1.58
18.50
34.77
46.69
54.42
58.49
59.60
58.47
55.86
52.60
49.46
47.06
45.74
45.42
45.70
46.07
46.13
45.75
45.02
44.14
43.17
41.93
40.06
37.13
32.96
27.75
21.98
16.27
11.08
6.53
2.39
-1.80
-6.40
-11.53
-16.98
-22.36
-27.34
-31.73
-35.67
-39.56
-44.00
-49.65
-57.06
-66.31
-76.76
-86.90
-94.51
-97.27
-93.42
-82.52
-65.61
-44.93
-23.23
-3.03
13.98
27.02
36.05
41.45
43.81
43.84
42.26
39.82
37.23
34.95
33.24
32.13
31.49
31.22
31.21
31.41
31.66
31.68
31.06
29.41
26.42
22.10
16.72
10.72
4.51
-1.64
-7.71
-13.82
-20.13
-26.71
-33.53
-40.50
-47.50
-54.42
-61.20
-67.88
-74.67
-81.98
-90.34
-100.09
-110.97
-121.63
-129.68
-132.01
-125.69
-108.87
-81.44
-45.15
-3.16
40.77
83.08
120.92
152.34
176.33
192.51
201.01
202.42
197.69
188.22
175.60
161.41
146.90
132.86
119.57
107.02
95.15
84.07
74.09
65.59
58.81
53.66
49.76
46.41
42.91
38.58
32.90
25.65
16.85
6.78
-4.08
-15.20
-26.11
-36.50
-46.27
-55.52
-64.52
-73.67
-83.31
-93.36
-103.16
-111.28
-115.91
-115.35
-108.67
-96.12
-79.14
-59.92
-40.72
-23.38
-9.08
1.58
8.37
11.22
10.39
6.49
0.64
-5.70
-11.12
-14.60
-15.81
-15.13
-13.43
-11.65
-10.55
-10.41
-11.18
-12.54
-14.14
-15.85
-17.73
-19.98
-22.82
-26.40
-30.66
-35.35
-40.13
-44.58
-48.40
-51.49
-53.99
-56.30
-59.06
-62.94
-68.41
-75.45
-83.24
-90.15
-94.06
-92.97
-85.70
-72.33
-54.19
-33.41
-12.24
7.44
24.39
37.93
47.72
53.59
55.67
54.48
50.98
46.44
42.14
39.02
37.53
37.64
38.92
40.79
42.65
43.92
44.21
43.29
41.13
37.95
34.05
29.73
25.15
20.36
15.25
9.72
3.80
-2.30
-8.20
-13.55
-18.12
-21.96
-25.43
-29.11
-33.65
-39.64
-47.41
-56.79
-66.94
-76.28
-82.78
-84.44
-79.93
-69.09
-53.13
-34.23
-14.96
2.47
16.67
27.09
33.82
37.24
37.87
36.21
32.92
28.85
24.98
22.27
21.42
22.63
25.57
29.46
33.32
36.26
37.74
37.65
36.26
34.03
31.33
28.30
24.87
20.79
15.92
10.32
4.31
-1.64
-7.06
-11.66
-15.38
-18.42
-21.17
-24.04
-27.46
-31.87
-37.66
-45.09
-53.97
-63.42
-71.71
-76.54
-75.71
-67.86
-53.08
-33.01
-10.34
12.01
31.65
47.18
58.08
64.48
66.83
65.71
61.91
56.42
50.33
44.70
40.27
37.36
35.88
35.45
35.58
35.84
35.91
35.61
34.89
33.65
31.83
29.36
26.18
22.43
18.31
14.07
9.88
5.76
1.57
-2.86
-7.62
-12.67
-17.92
-23.18
-28.36
-33.44
-38.48
-43.72
-49.58
-56.53
-64.88
-74.26
-83.38
-90.11
-92.06
-87.43
-75.84
-58.57
-38.16
-17.57
0.83
15.67
26.62
33.91
37.90
38.85
36.98
32.66
26.66
20.08
14.11
9.74
7.51
7.45
9.12
11.82
14.82
17.57
19.81
21.49
22.67
23.36
23.38
22.42
20.17
16.52
11.58
5.82
-0.18
-5.84
-10.81
-15.03
-18.83
-22.77
-27.59
-33.90
-41.98
-51.44
-61.15
-69.27
-73.72
-72.75
-65.57
-52.65
-35.71
-17.12
0.67
15.85
27.50
35.46
40.01
41.55
40.38
36.82
31.41
25.05
18.91
14.17
11.61
11.40
13.05
15.71
18.52
20.86
22.42
23.11
22.92
21.71
19.30
15.52
10.34
3.99
-3.05
-10.10
-16.46
-21.66
-25.56
-28.40
-30.68
-33.05
-36.06
-40.22
-45.98
-53.60
-62.92
-73.00
-82.03
-87.53
-87.14
-79.50
-64.83
-44.96
-22.78
-1.24
17.45
32.23
43.05
50.39
54.82
56.71
56.33
54.00
50.31
46.11
42.33
39.65
38.33
38.10
38.41
38.62
38.30
37.25
35.50
33.15
30.30
27.01
23.34
19.36
15.10
10.57
5.77
0.81
-4.04
-8.38
-11.80
-14.18
-15.80
-17.27
-19.39
-22.93
-28.35
-35.70
-44.47
-53.57
-61.32
-65.66
-64.74
-57.43
-43.88
-25.59
-4.90
15.67
34.16
49.61
61.91
71.56
79.13
85.00
89.26
91.87
92.83
92.27
90.57
88.22
85.66
83.14
80.62
77.89
74.58
70.42
65.30
59.25
52.49
45.33
38.07
31.03
24.39
18.17
12.20
6.22
0.06
-6.22
-12.36
-18.01
-22.90
-27.04
-30.69
-34.23
-38.11
-42.69
-48.31
-55.17
-63.19
-71.72
-79.41
-84.32
-84.45
-78.51
-66.56
-50.07
-31.60
-13.90
0.88
11.71
18.60
22.19
23.33
22.68
20.77
18.05
15.08
12.51
10.92
10.63
11.62
13.48
15.55
17.16
17.76
17.13
15.39
12.85
9.90
6.87
3.86
0.76
-2.63
-6.53
-10.95
-15.72
-20.50
-24.95
-28.81
-32.04
-34.83
-37.51
-40.50
-44.24
-49.12
-55.41
-63.11
-71.70
-80.05
-86.40
-88.77
-85.57
-76.21
-61.39
-43.05
-23.69
-5.61
9.62
21.33
29.54
34.53
36.57
35.94
33.03
28.59
23.62
19.20
16.21
15.02
15.42
16.76
18.20
19.02
18.82
17.62
15.71
13.47
11.05
8.43
5.29
1.36
-3.48
-9.02
-14.84
-20.44
-25.45
-29.84
-33.88
-38.01
-42.67
-48.16
-54.57
-61.74
-69.20
-76.14
-81.39
-83.54
-81.31
-73.91
-61.49
-45.14
-26.76
-8.44
7.95
21.25
31.03
37.40
40.78
41.64
40.47
37.77
34.18
30.45
27.40
25.68
25.64
27.15
29.69
32.48
34.78
36.02
35.99
34.80
32.74
30.14
27.22
24.07
20.64
16.88
12.75
8.32
3.68
-1.10
-6.03
-11.18
-16.68
-22.62
-29.11
-36.26
-44.22
-53.20
-63.14
-73.50
-83.01
-89.80
-91.85
-87.68
-76.93
-60.65
-40.96
-20.46
-1.44
14.54
26.81
35.32
40.42
42.65
42.61
41.05
38.77
36.55
35.00
34.44
34.91
36.20
37.98
39.88
41.54
42.65
42.92
42.21
40.43
37.71
34.20
30.14
25.70
20.98
15.97
10.65
5.06
-0.69
-6.38
-11.83
-16.93
-21.70
-26.24
-30.70
-35.33
-40.42
-46.38
-53.56
-61.99
-71.01
-79.10
-84.13
-83.99
-77.42
-64.55
-47.01
-27.41
-8.48
7.69
20.07
28.59
33.74
36.14
36.31
34.69
31.82
28.41
25.29
23.21
22.60
23.52
25.65
28.53
31.71
34.90
37.89
40.50
42.54
43.78
44.11
43.60
42.48
41.02
39.38
37.49
35.12
32.02
28.11
23.57
18.73
13.91
9.30
4.82
0.20
-4.91
-10.91
-18.24
-27.32
-38.28
-50.73
-63.48
-74.48
-81.26
-81.69
-74.75
-60.95
-42.21
-21.22
-0.69
17.34
31.76
42.24
48.98
52.45
53.27
52.25
50.30
48.28
46.72
45.75
45.00
43.87
41.85
38.71
34.66
30.19
25.87
22.14
19.14
16.68
14.48
12.27
9.97
7.63
5.46
3.63
2.15
0.93
-0.21
-1.40
-2.69
-3.96
-5.13
-6.20
-7.39
-9.07
-11.77
-16.01
-22.05
-29.81
-38.63
-47.30
-54.14
-57.46
-56.01
-49.24
-37.59
-22.26
-5.04
12.19
27.66
40.01
48.37
52.42
52.41
49.02
43.32
36.57
30.10
25.05
22.27
22.05
24.05
27.39
30.84
33.27
33.95
32.67
29.71
25.52
20.57
15.14
9.40
3.39
-2.85
-9.27
-15.75
-22.09
-28.01
-33.12
-37.12
-39.83
-41.44
-42.44
-43.64
-45.95
-50.03
-56.01
-63.21
-70.10
-74.58
-74.61
-68.83
-57.14
-40.75
-21.80
-2.79
14.22
27.88
37.67
43.63
46.09
45.54
42.58
38.00
32.74
27.82
24.15
22.29
22.29
23.71
25.72
27.39
28.01
27.26
25.27
22.46
19.29
16.05
12.75
9.16
5.00
0.12
-5.35
-11.06
-16.53
-21.35
-25.32
-28.55
-31.44
-34.55
-38.61
-44.19
-51.57
-60.43
-69.73
-77.69
-82.20
-81.38
-74.19
-60.89
-43.02
-22.98
-3.32
13.85
27.36
36.86
42.66
45.31
45.40
43.51
40.27
36.47
32.95
30.46
29.42
29.76
31.05
32.66
34.05
34.87
34.99
34.35
32.88
30.49
27.22
23.23
18.87
14.50
10.31
6.20
1.83
-3.12
-8.76
-14.87
-20.95
-26.51
-31.27
-35.31
-39.08
-43.24
-48.49
-55.40
-64.23
-74.73
-85.96
-96.26
-103.49
-105.45
-100.53
-88.28
-69.59
-46.51
-21.71
2.17
23.12
39.91
52.11
59.75
63.23
63.12
60.28
55.87
51.19
47.49
45.56
45.52
46.88
48.74
50.26
50.96
50.77
49.88
48.48
46.58
44.02
40.66
36.50
31.81
27.01
22.53
18.53
14.88
11.18
6.99
2.04
-3.62
-9.59
-15.32
-20.33
-24.43
-27.77
-30.83
-34.29
-38.86
-45.08
-53.08
-62.32
-71.42
-78.41
-81.08
-77.77
-67.95
-52.46
-33.33
-13.15
5.70
21.56
33.75
42.33
47.80
50.75
51.73
51.22
49.65
47.53
45.38
43.67
42.71
42.54
42.95
43.57
44.01
43.98
43.40
42.29
40.66
38.46
35.53
31.78
27.31
22.48
17.80
13.71
10.29
7.25
4.01
0.04
-4.89
-10.61
-16.54
-22.10
-26.83
-30.66
-33.88
-37.06
-40.87
-45.95
-52.63
-60.70
-69.24
-76.66
-81.02
-80.53
-74.21
-62.19
-45.78
-27.07
-8.39
8.25
21.49
30.73
35.92
37.41
35.81
31.92
26.78
21.57
17.41
15.21
15.41
17.93
22.17
27.29
32.38
36.71
39.82
41.52
41.81
40.79
38.57
35.29
31.08
26.12
20.67
15.05
9.57
4.38
-0.50
-5.17
-9.76
-14.30
-18.77
-23.08
-27.24
-31.35
-35.72
-40.87
-47.41
-55.75
-65.74
-76.30
-85.51
-90.92
-90.37
-82.82
-68.78
-50.22
-29.91
-10.49
6.22
19.49
29.40
36.34
40.70
42.72
42.71
41.26
39.30
37.91
37.93
39.68
42.85
46.68
50.36
53.45
55.97
58.33
61.01
64.19
67.57
70.45
71.98
71.50
68.84
64.28
58.48
52.09
45.55
38.97
32.18
25.04
17.65
10.40
3.88
-1.44
-5.47
-8.64
-11.84
-16.17
-22.65
-31.89
-43.87
-57.74
-71.80
-83.73
-91.04
-91.79
-85.17
-71.83
-53.64
-33.21
-13.09
4.71
18.98
29.13
35.04
36.83
34.94
30.11
23.47
16.32
9.89
5.02
2.11
1.05
1.47
2.86
4.77
6.78
8.57
9.90
10.60
10.60
9.95
8.77
7.17
5.16
2.62
-0.67
-4.93
-10.26
-16.58
-23.59
-30.83
-37.69
-43.67
-48.46
-52.17
-55.37
-58.95
-63.77
-70.12
-77.41
-83.99
-87.57
-85.90
-77.53
-62.35
-41.68
-17.93
6.07
27.66
44.80
56.28
61.72
61.49
56.56
48.37
38.62
29.02
21.05
15.74
13.52
14.29
17.42
22.00
26.99
31.42
34.55
36.02
35.83
34.22
31.54
28.16
24.34
20.29
16.15
12.00
7.90
3.78
-0.52
-5.18
-10.28
-15.75
-21.33
-26.72
-31.69
-36.27
-40.82
-45.90
-52.19
-60.07
-69.36
-79.04
-87.38
-92.20
-91.64
-84.70
-71.71
-54.21
-34.49
-14.84
2.95
17.85
29.46
37.67
42.49
44.05
42.76
39.43
35.20
31.24
28.35
26.81
26.36
26.41
26.44
26.15
25.49
24.58
23.47
22.14
20.42
18.20
15.40
12.09
8.46
4.80
1.41
-1.37
-3.32
-4.32
-4.48
-4.15
-3.88
-4.34
-6.17
-9.80
-15.43
-22.93
-31.91
-41.67
-51.28
-59.57
-65.33
-67.43
-65.14
-58.24
-47.15
-32.85
-16.65
0.00
15.84
29.90
41.57
50.61
57.07
61.22
63.55
64.59
64.90
64.95
65.05
65.40
66.07
67.00
68.10
69.16
69.95
70.12
69.33
67.26
63.75
58.82
52.71
45.85
38.67
31.50
24.46
17.49
10.48
3.39
-3.67
-10.41
-16.50
-21.81
-26.44
-30.85
-35.69
-41.65
-49.24
-58.53
-68.95
-79.30
-87.86
-92.74
-92.44
-86.29
-74.76
-59.34
-42.11
-25.19
-10.13
2.25
11.87
18.95
23.78
26.56
27.46
26.80
25.14
23.22
21.73
21.11
21.41
22.37
23.59
24.70
25.42
25.58
25.07
23.92
22.21
20.12
17.79
15.22
12.27
8.70
4.35
-0.75
-6.32
-11.95
-17.30
-22.22
-26.74
-31.04
-35.33
-39.81
-44.75
-50.49
-57.36
-65.46
-74.34
-82.80
-89.02
-91.04
-87.31
-77.25
-61.53
-41.89
-20.60
0.05
18.24
32.83
43.36
49.90
52.90
53.03
51.15
48.12
44.75
41.70
39.43
38.10
37.71
38.01
38.71
39.49
40.02
40.05
39.34
37.69
34.99
31.26
26.71
21.62
16.27
10.82
5.25
-0.61
-6.92
-13.76
-21.00
-28.40
-35.61
-42.32
-48.40
-53.88
-59.04
-64.33
-70.28
-77.20
-84.91
-92.54
-98.55
-101.05
-98.38
-89.75
-75.49
-57.03
-36.44
-15.84
3.04
19.01
31.47
40.13
44.96
46.22
44.52
40.77
36.12
31.70
28.36
26.55
26.24
27.01
28.20
29.12
29.30
28.53
26.98
24.96
22.82
20.70
18.46
15.78
12.30
7.83
2.43
-3.61
-9.92
-16.14
-22.10
-27.81
-33.39
-39.09
-45.22
-52.19
-60.35
-69.88
-80.38
-90.76
-99.32
-104.17
-103.79
-97.66
-86.48
-71.88
-55.98
-40.70
-27.46
-17.11
-10.10
-6.68
-7.01
-11.09
-18.56
-28.78
-40.72
-53.29
-65.40
-76.26
-85.50
-93.20
-99.98
-106.80
-114.65
-124.24
-135.60
-148.00
-160.16
-170.66
-178.44
-183.19
-185.39
-186.12
-186.54
-187.54
-189.36
-191.42
-192.50
-190.96
-185.25
-174.47
-158.72
-139.23
-118.03
-97.28
-78.40
-61.64
-45.85
-28.98
-8.91
15.72
44.96
77.44
110.81
142.39
169.82
191.54
206.83
215.73
218.69
216.39
209.64
199.49
187.27
174.46
162.46
152.31
144.46
138.81
134.97
132.40
130.66
129.38
128.20
126.76
124.72
121.78
117.76
112.57
106.24
98.87
90.67
82.00
73.26
64.87
57.05
49.79
42.91
36.14
29.24
22.04
14.34
5.80
-3.96
-15.11
-27.21
-38.96
-48.31
-52.98
-51.21
-42.46
-27.61
-8.74
11.59
31.05
47.98
61.48
71.16
76.97
79.04
77.76
73.87
68.42
62.68
57.79
54.56
53.31
53.86
55.64
57.88
59.82
60.86
60.66
59.19
56.67
53.42
49.72
45.69
41.27
36.31
30.73
24.58
18.14
11.78
5.86
0.60
-4.05
-8.31
-12.59
-17.37
-23.23
-30.66
-39.89
-50.56
-61.54
-70.91
-76.40
-75.98
-68.66
-54.83
-36.23
-15.40
5.07
23.20
37.86
48.71
55.83
59.55
60.23
58.40
54.81
50.43
46.28
43.25
41.89
42.26
44.01
46.52
49.13
51.24
52.45
52.54
51.42
49.13
45.75
41.51
36.69
31.61
26.50
21.44
16.38
11.17
5.76
0.22
-5.29
-10.59
-15.62
-20.49
-25.53
-31.13
-37.73
-45.66
-55.01
-65.37
-75.65
-84.19
-88.94
-88.09
-80.71
-67.06
-48.69
-27.94
-7.28
11.30
26.63
38.33
46.52
51.56
53.84
53.82
52.08
49.39
46.57
44.38
43.26
43.30
44.27
45.73
47.19
48.24
48.53
47.83
46.03
43.16
39.39
35.01
30.34
25.57
20.84
16.14
11.41
6.62
1.81
-2.94
-7.45
-11.63
-15.40
-18.84
-22.16
-25.74
-30.01
-35.39
-42.03
-49.65
-57.30
-63.49
-66.44
-64.62
-57.20
-44.35
-27.23
-7.60
12.63
31.77
48.56
62.21
72.27
78.67
81.70
82.15
81.14
79.94
79.52
80.33
82.24
84.68
86.99
88.68
89.55
89.71
89.47
89.27
89.62
90.93
93.20
95.66
96.71
94.14
86.03
71.62
51.96
29.73
8.34
-9.36
-21.97
-29.67
-33.79
-35.75
-36.57
-36.69
-36.43
-36.45
-37.83
-41.62
-48.09
-56.17
-63.55
-67.41
-65.68
-57.95
-45.69
-31.57
-18.34
-7.74
-0.04
5.58
10.20
14.36
17.76
19.55
19.05
16.34
12.34
8.47
6.04
5.71
7.31
10.06
13.06
15.67
17.70
19.28
20.57
21.51
21.74
20.79
18.32
14.37
9.36
3.89
-1.48
-6.46
-11.07
-15.55
-20.16
-24.99
-29.91
-34.69
-39.13
-43.29
-47.50
-52.32
-58.15
-64.91
-71.83
-77.48
-80.13
-78.32
-71.42
-59.82
-44.97
-28.89
-13.57
-0.63
9.05
15.25
18.20
18.39
16.48
13.27
9.69
6.71
5.05
4.93
5.98
7.34
8.10
7.67
6.02
3.61
1.14
-0.87
-2.25
-3.20
-4.20
-5.71
-7.94
-10.85
-14.08
-17.15
-19.61
-21.17
-21.90
-22.20
-22.65
-23.79
-26.05
-29.58
-34.24
-39.59
-44.83
-48.91
-50.60
-48.89
-43.28
-34.10
-22.45
-9.95
1.79
11.49
18.44
22.47
23.69
22.47
19.25
14.66
9.47
4.55
0.66
-1.79
-2.78
-2.72
-2.25
-2.01
-2.36
-3.38
-4.94
-6.89
-9.21
-12.07
-15.75
-20.39
-25.90
-31.88
-37.80
-43.17
-47.79
-51.77
-55.51
-59.51
-64.25
-70.01
-76.66
-83.50
-89.29
-92.38
-91.27
-84.99
-73.67
-58.48
-41.35
-24.35
-9.07
3.65
13.74
21.40
26.89
30.24
31.48
30.83
28.92
26.68
25.01
24.45
24.93
25.89
26.61
26.61
25.86
24.71
23.54
22.45
21.13
19.02
15.63
10.82
4.88
-1.58
-7.93
-13.80
-19.13
-24.14
-29.24
-34.82
-41.18
-48.41
-56.29
-64.11
-70.69
-74.52
-74.06
-68.29
-57.11
-41.59
-23.69
-5.73
10.30
23.28
33.01
39.91
44.52
47.10
47.60
45.99
42.60
38.29
34.29
31.72
31.10
32.07
33.69
34.78
34.58
33.02
30.66
28.31
26.58
25.54
24.63
23.08
20.20
15.84
10.45
4.81
-0.27
-4.40
-7.72
-10.74
-14.12
-18.50
-24.26
-31.52
-40.05
-49.08
-57.26
-62.84
-64.06
-59.71
-49.63
-34.80
-17.06
1.39
18.66
33.48
45.22
53.71
58.99
61.27
60.91
58.52
54.93
51.07
47.76
45.50
44.40
44.24
44.65
45.31
46.02
46.65
47.10
47.15
46.54
45.01
42.38
38.58
33.65
27.71
21.01
13.90
6.80
0.15
-5.83
-11.16
-16.14
-21.31
-27.16
-34.06
-42.02
-50.61
-58.98
-65.88
-69.83
-69.43
-63.78
-52.90
-37.85
-20.53
-3.15
12.34
24.70
33.50
38.88
41.24
40.98
38.44
34.02
28.33
22.14
16.37
11.75
8.69
7.18
6.78
6.91
6.94
6.50
5.49
4.11
2.63
1.24
-0.07
-1.54
-3.49
-6.17
-9.59
-13.49
-17.45
-21.05
-24.07
-26.51
-28.69
-31.06
-34.18
-38.47
-44.14
-50.89
-57.88
-63.70
-66.70
-65.45
-59.24
-48.39
-34.14
-18.29
-2.60
11.61
23.52
32.74
39.04
42.28
42.50
40.11
35.97
31.28
27.24
24.61
23.52
23.48
23.68
23.42
22.28
20.29
17.81
15.29
13.04
11.12
9.26
7.04
4.07
0.20
-4.45
-9.49
-14.43
-18.94
-22.91
-26.58
-30.37
-34.82
-40.32
-46.95
-54.28
-61.34
-66.73
-68.91
-66.65
-59.48
-47.89
-33.17
-17.03
-1.21
12.95
24.59
33.28
38.96
41.74
41.94
40.04
36.73
32.81
29.01
25.90
23.71
22.35
21.43
20.55
19.35
17.74
15.80
13.74
11.72
9.69
7.43
4.62
1.00
-3.47
-8.57
-13.88
-18.92
-23.33
-27.02
-30.19
-33.29
-36.86
-41.34
-46.94
-53.45
-60.12
-65.72
-68.77
-67.86
-62.11
-51.49
-36.92
-20.10
-3.04
12.42
25.00
34.15
39.95
42.83
43.34
42.01
39.39
35.98
32.38
29.11
26.54
24.80
23.80
23.26
22.87
22.38
21.64
20.50
18.90
16.80
14.22
11.24
7.93
4.36
0.53
-3.54
-7.78
-12.02
-16.02
-19.58
-22.60
-25.15
-27.42
-29.78
-32.68
-36.63
-42.02
-48.81
-56.27
-62.86
-66.51
-65.15
-57.57
-43.98
-26.14
-6.94
10.48
23.67
31.54
34.48
33.90
31.51
28.47
24.98
20.40
13.87
5.17
-4.49
-12.63
-16.33
-13.64
-4.97
6.50
15.67
17.11
7.03
-15.44
-47.76
-84.38
-117.50
-138.39
-139.18
-115.25
-67.33
-2.37
67.88
130.25
174.43
196.15
197.78
186.32
169.83
154.14
141.25
129.45
115.20
95.26
68.33
35.77
1.17
-30.93
-56.70
-74.06
-83.00
-84.97
-81.55
-73.91
-62.76
-49.02
-34.43
-21.53
-12.68
-9.07
-9.92
-12.82
-14.83
-13.77
-9.03
-1.73
5.93
11.78
14.46
13.96
11.40
8.40
6.29
5.57
5.73
5.64
4.19
0.81
-4.20
-9.97
-15.45
-19.94
-23.28
-25.86
-28.39
-31.57
-35.88
-41.34
-47.51
-53.42
-57.76
-59.13
-56.47
-49.42
-38.47
-24.93
-10.52
3.06
14.49
23.07
28.61
31.30
31.55
29.80
26.56
22.40
18.02
14.15
11.36
9.95
9.75
10.31
10.96
11.19
10.78
9.79
8.42
6.77
4.68
1.81
-2.14
-7.22
-13.12
-19.19
-24.73
-29.28
-32.77
-35.59
-38.42
-41.94
-46.75
-52.98
-60.15
-67.20
-72.55
-74.49
-71.72
-63.81
-51.39
-35.98
-19.54
-3.83
9.95
21.17
29.66
35.39
38.33
38.57
36.48
32.85
28.77
25.30
23.16
22.49
22.82
23.40
23.53
22.82
21.28
19.19
16.91
14.57
12.10
9.23
5.65
1.22
-4.00
-9.70
-15.43
-20.73
-25.33
-29.23
-32.70
-36.32
-40.70
-46.43
-53.65
-62.03
-70.47
-77.32
-80.73
-79.14
-71.93
-59.55
-43.54
-25.97
-8.88
6.19
18.46
27.75
34.24
38.16
39.76
39.31
37.28
34.40
31.51
29.37
28.37
28.42
29.01
29.46
29.28
28.35
26.99
25.70
24.91
24.68
24.69
24.35
23.09
20.51
16.59
11.62
6.07
0.49
-4.71
-9.33
-13.44
-17.32
-21.39
-26.13
-31.94
-39.05
-47.29
-55.91
-63.57
-68.58
-69.39
-65.13
-55.92
-42.90
-27.78
-12.29
2.30
15.23
26.14
34.82
41.03
44.60
45.58
44.43
41.96
39.15
36.86
35.54
35.18
35.40
35.63
35.37
34.46
32.98
31.23
29.51
27.93
26.37
24.47
21.91
18.43
14.04
8.96
3.64
-1.47
-5.99
-9.84
-13.25
-16.71
-20.81
-26.03
-32.62
-40.42
-48.83
-56.79
-62.98
-66.08
-65.00
-59.29
-49.20
-35.71
-20.27
-4.50
10.08
22.35
31.57
37.46
40.12
39.99
37.81
34.53
31.15
28.52
27.16
27.12
28.06
29.32
30.27
30.44
29.72
28.31
26.56
24.75
22.89
20.75
17.93
14.11
9.20
3.48
-2.49
-8.15
-13.08
-17.30
-21.22
-25.54
-31.01
-38.09
-46.75
-56.27
-65.36
-72.28
-75.41
-73.55
-66.41
-54.63
-39.68
-23.35
-7.44
6.73
18.35
27.10
32.96
36.04
36.56
34.83
31.41
27.04
22.65
19.18
17.35
17.48
19.35
22.33
25.62
28.46
30.38
31.29
31.45
31.26
31.11
31.13
31.05
30.31
28.32
24.77
19.95
14.69
10.18
7.45
6.93
8.20
10.09
11.17
10.29
7.17
2.49
-2.38
-5.84
-6.60
-3.93
2.19
11.13
21.65
32.07
40.49
45.76
48.11
49.60
53.49
62.59
77.39
94.99
109.97
116.60
111.78
96.64
76.24
57.13
44.24
38.92
38.75
39.15
35.67
25.79
9.36
-11.98
-35.82
-59.54
-80.43
-95.77
-103.40
-102.51
-94.52
-83.04
-72.76
-67.61
-69.26
-76.65
-86.75
-96.18
-102.66
-105.49
-105.36
-103.47
-100.95
-98.74
-97.72
-98.85
-102.74
-109.09
-116.24
-121.41
-121.47
-114.06
-98.67
-76.87
-51.79
-27.03
-5.45
11.63
24.30
33.58
40.53
45.85
49.62
51.80
52.53
52.31
51.88
51.88
52.66
54.09
55.69
56.92
57.35
56.74
55.18
52.84
49.93
46.60
42.84
38.55
33.60
27.90
21.58
14.89
8.18
1.69
-4.47
-10.41
-16.39
-22.68
-29.56
-37.23
-45.83
-55.28
-65.03
-73.93
-80.20
-81.94
-77.68
-67.09
-51.21
-32.21
-12.67
5.26
20.34
32.23
41.14
47.40
51.21
52.72
52.25
50.49
48.31
46.56
45.77
45.95
46.80
47.82
48.66
49.11
49.12
48.74
48.02
46.98
45.67
44.12
42.34
40.30
37.91
35.04
31.54
27.41
22.69
17.58
12.18
6.60
0.82
-5.25
-11.71
-18.73
-26.46
-35.00
-44.21
-53.52
-61.81
-67.51
-69.05
-65.34
-56.33
-43.07
-27.48
-11.69
2.45
13.85
22.16
27.59
30.64
31.77
31.41
29.93
27.72
25.22
22.93
21.27
20.48
20.58
21.25
22.10
22.67
22.67
22.05
20.92
19.50
17.96
16.39
14.70
12.69
10.14
6.83
2.75
-1.91
-6.80
-11.55
-15.95
-19.99
-23.91
-28.04
-32.69
-38.16
-44.74
-52.60
-61.58
-70.96
-79.34
-84.84
-85.64
-80.65
-69.93
-54.74
-37.05
-18.95
-2.08
12.64
24.81
34.38
41.37
45.84
47.97
48.16
47.01
45.20
43.31
41.72
40.58
39.82
39.28
38.75
38.05
37.12
35.97
34.61
33.01
31.08
28.66
25.60
21.77
17.15
11.83
6.00
-0.09
-6.14
-11.96
-17.42
-22.54
-27.42
-32.27
-37.33
-42.99
-49.63
-57.55
-66.66
-76.20
-84.71
-90.20
-90.84
-85.47
-74.18
-58.19
-39.45
-20.08
-1.72
14.57
28.24
39.07
46.97
52.03
54.53
55.09
54.38
53.08
51.62
50.12
48.52
46.81
45.08
43.55
42.42
41.68
41.08
40.22
38.78
36.57
33.64
30.17
26.38
22.43
18.34
14.17
9.81
5.22
0.31
-4.95
-10.51
-16.22
-21.91
-27.47
-32.96
-38.63
-44.88
-52.11
-60.47
-69.63
-78.57
-85.61
-88.86
-86.72
-78.55
-64.92
-47.52
-28.58
-10.19
6.19
19.87
30.71
38.84
44.39
47.49
48.42
47.75
46.24
44.74
43.78
43.56
43.86
44.27
44.43
44.19
43.65
42.99
42.32
41.53
40.31
38.31
35.38
31.55
27.20
22.76
18.51
14.51
10.51
6.20
1.30
-4.23
-10.23
-16.42
-22.47
-28.19
-33.53
-38.66
-43.89
-49.68
-56.43
-64.28
-72.82
-81.00
-87.19
-89.64
-86.95
-78.59
-65.05
-47.84
-28.91
-10.29
6.47
20.35
30.92
38.11
42.12
43.34
42.34
39.91
36.95
34.35
32.76
32.40
33.12
34.42
35.69
36.47
36.48
35.69
34.26
32.42
30.44
28.54
26.79
25.17
23.55
21.81
19.92
17.92
15.90
13.86
11.69
9.22
6.28
2.87
-0.88
-4.80
-8.85
-13.16
-17.87
-22.77
-27.02
-29.08
-27.01
-18.98
-3.93
18.02
45.24
74.66
102.05
122.67
132.32
128.72
112.32
86.51
56.62
28.19
5.27
-10.28
-18.33
-19.43
-14.04
-2.67
13.37
31.29
47.18
57.40
59.91
55.04
44.70
31.01
15.14
-2.92
-23.31
-45.16
-66.00
-82.31
-91.05
-91.17
-84.52
-75.22
-68.28
-67.75
-75.40
-90.31
-109.61
-129.69
-147.49
-160.98
-169.11
-171.34
-167.22
-156.46
-139.39
-117.42
-92.96
-68.84
-47.38
-29.71
-15.72
-4.35
5.62
14.85
23.28
30.25
35.09
37.63
38.40
38.44
38.84
40.20
42.51
45.14
47.36
48.63
48.83
48.20
47.03
45.48
43.45
40.63
36.74
31.65
25.48
18.57
11.34
4.14
-2.88
-9.81
-16.87
-24.40
-32.70
-41.97
-52.20
-63.00
-73.50
-82.32
-87.78
-88.35
-83.05
-71.87
-55.81
-36.65
-16.42
3.04
20.44
34.99
46.31
54.28
58.96
60.61
59.77
57.29
54.14
51.28
49.38
48.61
48.68
48.99
48.93
48.11
46.50
44.32
41.85
39.21
36.31
32.87
28.58
23.37
17.38
11.00
4.67
-1.31
-6.86
-12.12
-17.37
-23.00
-29.39
-36.82
-45.49
-55.27
-65.55
-75.10
-82.19
-84.95
-82.00
-73.00
-58.79
-41.23
-22.58
-4.83
10.71
23.45
33.34
40.52
45.17
47.59
48.26
47.88
47.21
46.89
47.20
48.08
49.26
50.36
51.14
51.43
51.14
50.17
48.43
45.91
42.68
38.94
34.95
30.98
27.17
23.45
19.57
15.17
9.99
3.95
-2.70
-9.51
-15.96
-21.76
-26.94
-31.87
-37.21
-43.68
-51.76
-61.46
-72.06
-82.02
-89.27
-91.72
-87.98
-77.86
-62.54
-44.17
-25.11
-7.32
8.14
20.96
31.30
39.29
44.95
48.27
49.40
48.85
47.46
46.16
45.63
46.16
47.49
49.08
50.31
50.69
50.08
48.61
46.53
44.06
41.36
38.44
35.25
31.70
27.76
23.37
18.54
13.28
7.65
1.78
-4.15
-9.95
-15.49
-20.76
-25.93
-31.29
-37.34
-44.51
-53.16
-63.12
-73.53
-82.75
-88.66
-89.27
-83.39
-71.21
-54.22
-34.77
-15.30
2.35
17.22
29.08
38.00
44.11
47.41
48.06
46.61
44.00
41.41
39.83
39.78
41.12
43.24
45.36
46.87
47.50
47.28
46.40
45.01
43.17
40.82
37.90
34.38
30.25
25.54
20.26
14.49
8.39
2.24
-3.73
-9.32
-14.59
-19.74
-25.17
-31.26
-38.38
-46.70
-56.09
-65.92
-74.96
-81.53
-83.84
-80.59
-71.46
-57.35
-40.12
-22.01
-5.01
9.61
21.34
30.20
36.39
40.11
41.56
41.06
39.24
36.97
35.16
34.42
34.85
36.00
37.10
37.41
36.55
34.66
32.30
30.06
28.26
26.75
24.98
22.35
18.55
13.71
8.40
3.30
-1.13
-4.85
-8.23
-11.82
-16.16
-21.58
-28.26
-36.10
-44.73
-53.40
-60.86
-65.57
-66.05
-61.39
-51.59
-37.70
-21.54
-5.13
9.78
22.01
31.00
36.63
39.09
38.80
36.41
32.76
28.85
25.56
23.50
22.82
23.14
23.81
24.11
23.57
22.05
19.77
17.18
14.65
12.28
9.80
6.66
2.28
-3.68
-11.12
-19.48
-27.97
-35.91
-43.05
-49.86
-57.43
-67.06
-79.66
-95.05
-111.70
-126.88
-137.60
-141.52
-137.88
-127.82
-113.88
-99.16
-86.36
-77.09
-71.87
-70.43
-72.22
-76.81
-83.97
-93.40
-104.40
-115.68
-125.38
-131.44
-132.00
-125.63
-111.28
-88.31
-56.88
-18.71
22.17
59.77
87.56
100.85
98.85
85.14
66.31
49.08
37.73
32.72
31.55
30.53
26.81
19.21
7.87
-6.59
-23.65
-42.77
-62.67
-80.84
-93.92
-98.74
-93.84
-80.30
-61.62
-42.29
-25.98
-14.07
-5.45
2.57
12.58
25.83
41.62
57.90
72.19
82.61
88.53
90.57
90.29
89.64
90.22
92.73
96.65
100.44
102.15
100.35
94.54
85.34
73.95
61.51
48.79
36.16
24.02
13.08
4.31
-1.48
-4.13
-4.36
-3.63
-3.67
-6.03
-11.73
-21.09
-33.54
-47.58
-60.79
-70.28
-73.53
-69.19
-57.52
-40.27
-20.03
0.63
19.82
36.53
50.42
61.47
69.79
75.57
79.21
81.36
82.74
83.96
85.30
86.77
88.10
89.07
89.58
89.72
89.68
89.54
89.17
88.16
86.12
82.88
78.64
73.96
69.43
65.38
61.73
57.92
53.19
46.81
38.28
27.40
14.30
-0.51
-15.97
-30.51
-42.13
-48.89
-49.50
-43.79
-32.93
-19.08
-4.69
8.23
18.52
25.97
30.93
33.98
35.57
36.05
35.72
34.99
34.32
34.11
34.50
35.34
36.26
36.85
36.84
36.11
34.65
32.45
29.43
25.51
20.69
15.16
9.28
3.48
-1.84
-6.61
-10.98
-15.50
-20.87
-27.76
-36.56
-47.07
-58.35
-68.79
-76.41
-79.49
-77.04
-69.19
-57.05
-42.41
-27.09
-12.46
0.73
12.23
22.01
29.98
35.97
39.83
41.69
42.08
41.82
41.78
42.52
44.12
46.23
48.25
49.68
50.27
50.07
49.24
47.81
45.63
42.33
37.61
31.43
24.12
16.32
8.68
1.66
-4.69
-10.73
-17.11
-24.57
-33.62
-44.30
-55.96
-67.28
-76.43
-81.51
-81.10
-74.70
-62.96
-47.39
-30.01
-12.70
3.16
16.78
27.90
36.47
42.57
46.34
48.10
48.43
48.09
47.82
48.12
49.04
50.26
51.26
51.53
50.87
49.36
47.33
45.15
43.01
40.84
38.33
35.09
30.79
25.35
19.00
12.17
5.38
-0.98
-6.78
-12.22
-17.78
-24.10
-31.79
-41.17
-52.05
-63.58
-74.26
-82.27
-85.86
-83.91
-76.25
-63.72
-47.96
-30.89
-14.23
0.79
13.59
24.02
32.19
38.25
42.40
44.83
45.87
45.94
45.52
45.11
45.05
45.50
46.39
47.44
48.26
48.45
47.72
45.97
43.33
40.03
36.36
32.49
28.45
24.10
19.26
13.80
7.78
1.45
-4.86
-10.87
-16.50
-21.86
-27.22
-32.92
-39.29
-46.57
-54.81
-63.73
-72.56
-80.00
-84.44
-84.40
-79.02
-68.48
-53.97
-37.37
-20.59
-5.14
8.12
18.94
27.30
33.21
36.68
37.84
37.12
35.33
33.47
32.44
32.74
34.25
36.38
38.38
39.59
39.73
38.86
37.29
35.25
32.90
30.12
26.77
22.73
18.01
12.83
7.48
2.28
-2.63
-7.20
-11.60
-16.04
-20.82
-26.27
-32.67
-40.27
-49.03
-58.41
-67.25
-73.92
-76.70
-74.37
-66.64
-54.35
-39.17
-23.05
-7.62
6.08
17.64
26.96
33.99
38.56
40.61
40.29
38.21
35.31
32.60
30.85
30.33
30.76
31.54
32.00
31.71
30.58
28.82
26.73
24.51
22.09
19.16
15.32
10.33
4.21
-2.63
-9.60
-16.12
-21.87
-26.87
-31.50
-36.25
-41.57
-47.80
-55.04
-63.10
-71.43
-78.98
-84.31
-85.84
-82.30
-73.29
-59.48
-42.39
-24.05
-6.28
9.64
23.15
34.17
42.81
49.12
53.08
54.73
54.33
52.44
49.83
47.22
45.08
43.47
42.14
40.65
38.68
36.16
33.28
30.33
27.54
24.85
21.97
18.47
14.03
8.54
2.18
-4.62
-11.33
-17.54
-23.04
-27.84
-32.23
-36.62
-41.59
-47.62
-55.00
-63.47
-72.05
-79.14
-82.82
-81.50
-74.46
-62.16
-46.17
-28.64
-11.62
3.43
15.79
25.33
32.14
36.33
37.96
37.16
34.43
30.60
26.77
23.93
22.76
23.35
25.34
28.06
30.82
33.13
34.80
35.90
36.77
37.76
39.17
41.08
43.37
45.71
47.77
49.30
50.19
50.39
49.76
48.05
44.83
39.71
32.48
23.16
11.92
-0.93
-14.94
-29.37
-43.07
-54.43
-61.67
-63.34
-58.81
-48.48
-33.75
-16.56
1.21
18.08
33.23
46.30
57.20
65.96
72.68
77.62
81.29
84.40
87.73
91.75
96.38
100.86
104.04
104.96
103.41
100.30
97.36
96.57
99.23
105.33
113.47
121.26
126.23
126.48
121.11
110.24
94.66
75.56
54.30
32.37
11.22
-7.90
-24.19
-37.53
-48.46
-57.98
-67.08
-76.25
-85.23
-93.07
-98.50
-100.40
-98.35
-92.80
-84.96
-76.50
-68.97
-63.46
-60.41
-59.58
-60.26
-61.48
-62.23
-61.65
-59.14
-54.51
-47.99
-40.26
-32.28
-25.04
-19.33
-15.53
-13.54
-12.90
-13.01
-13.33
-13.50
-13.39
-13.03
-12.57
-12.17
-12.04
-12.32
-13.07
-14.18
-15.44
-16.64
-17.78
-19.08
-21.06
-24.28
-29.08
-35.28
-42.02
-47.86
-51.09
-50.24
-44.50
-34.01
-19.85
-3.67
12.72
27.83
40.66
50.77
58.09
62.79
65.16
65.45
63.80
60.07
53.82
44.54
31.85
15.88
-2.56
-22.09
-41.07
-58.01
-71.89
-82.23
-89.01
-92.47
-93.03
-91.13
-87.25
-81.84
-75.24
-67.66
-59.31
-50.55
-41.95
-34.36
-28.71
-25.85
-26.24
-29.74
-35.65
-42.61
-48.98
-53.06
-53.66
-50.38
-43.82
-35.41
-26.88
-19.74
-14.80
-12.12
-11.17
-11.25
-11.77
-12.42
-13.04
-13.47
-13.50
-12.90
-11.65
-10.04
-8.67
-8.19
-9.08
-11.25
-14.16
-16.98
-19.02
-20.08
-20.55
-21.25
-23.08
-26.64
-32.00
-38.65
-45.64
-51.86
-56.39
-58.72
-58.96
-57.73
-55.98
-54.63
-54.20
-54.55
-54.83
-53.76
-50.05
-42.86
-32.14
-18.70
-3.97
10.39
22.96
32.82
39.64
43.54
44.78
43.67
40.49
35.64
29.74
23.61
18.16
14.04
11.47
10.12
9.35
8.49
7.12
5.17
2.79
0.20
-2.55
-5.56
-8.94
-12.70
-16.67
-20.43
-23.54
-25.68
-26.80
-27.15
-27.33
-28.10
-30.23
-34.28
-40.34
-47.89
-55.75
-62.24
-65.51
-64.02
-57.02
-44.72
-28.41
-10.07
8.12
24.29
37.21
46.33
51.64
53.44
52.20
48.52
43.21
37.21
31.56
27.07
24.13
22.66
22.20
22.16
22.08
21.70
20.89
19.53
17.46
14.47
10.40
5.30
-0.54
-6.74
-12.88
-18.74
-24.26
-29.68
-35.36
-41.70
-48.96
-56.96
-64.93
-71.51
-75.09
-74.30
-68.51
-58.15
-44.55
-29.55
-15.00
-2.37
7.39
13.76
16.54
15.75
11.75
5.23
-2.83
-11.22
-18.84
-24.82
-28.87
-31.13
-32.24
-33.04
-34.25
-36.30
-39.12
-42.33
-45.36
-47.73
-49.20
-49.86
-50.09
-50.41
-51.44
-53.58
-56.82
-60.66
-64.22
-66.52
-66.75
-64.53
-59.73
-52.34
-42.25
-29.34
-13.72
3.99
22.54
40.29
55.57
67.10
74.23
76.94
75.65
71.10
64.25
56.21
48.08
40.75
34.74
30.11
26.68
24.27
22.96
23.21
25.65
30.73
38.32
47.51
56.73
64.19
68.42
68.74
65.30
58.94
50.81
41.98
33.25
25.08
17.57
10.64
4.13
-1.98
-7.41
-11.51
-13.52
-13.02
-10.34
-6.78
-4.23
-4.47
-8.47
-15.98
-25.86
-36.68
-47.38
-57.66
-67.82
-78.36
-89.80
-102.46
-116.58
-132.25
-149.09
-165.91
-180.55
-190.19
-192.13
-184.73
-168.05
-143.79
-114.85
-84.36
-54.95
-28.29
-5.11
14.59
31.12
44.90
56.25
65.46
72.72
78.28
82.40
85.46
87.86
89.99
92.17
94.60
97.31
100.17
102.85
104.90
105.86
105.30
103.02
99.04
93.70
87.46
80.82
74.10
67.31
60.22
52.49
43.89
34.47
24.65
14.99
6.01
-2.10
-9.59
-17.13
-25.62
-35.86
-48.22
-62.24
-76.54
-88.93
-96.83
-97.94
-90.95
-75.99
-54.65
-29.55
-3.64
20.49
41.03
57.10
68.56
75.80
79.49
80.41
79.44
77.40
74.99
72.77
71.11
70.24
70.20
70.94
72.18
73.55
74.61
74.96
74.38
72.78
70.24
66.89
62.86
58.23
53.09
47.48
41.45
35.10
28.49
21.79
15.10
8.56
2.19
-4.08
-10.43
-17.17
-24.67
-33.30
-43.29
-54.44
-65.87
-75.89
-82.32
-83.04
-76.72
-63.36
-44.41
-22.28
0.27
20.95
38.27
51.58
60.85
66.37
68.53
67.87
65.08
61.05
56.76
53.16
50.90
50.21
50.90
52.43
54.17
55.58
56.35
56.39
55.66
54.13
51.70
48.32
44.07
39.24
34.23
29.38
24.78
20.27
15.52
10.27
4.45
-1.70
-7.73
-13.30
-18.21
-22.63
-26.97
-31.86
-37.84
-45.25
-53.90
-62.97
-70.96
-76.03
-76.44
-71.03
-59.72
-43.50
-24.31
-4.43
13.96
29.31
40.78
48.26
52.12
52.96
51.47
48.38
44.39
40.22
36.54
33.92
32.71
32.88
34.07
35.66
36.94
37.40
36.84
35.36
33.23
30.70
27.89
24.79
21.29
17.32
12.90
8.17
3.27
-1.62
-6.41
-11.08
-15.62
-20.03
-24.36
-28.67
-33.15
-38.08
-43.81
-50.47
-57.77
-64.81
-70.10
-71.98
-69.08
-60.90
-48.02
-32.02
-14.96
1.19
15.02
25.80
33.41
38.04
39.94
39.41
36.83
32.81
28.19
23.94
20.87
19.40
19.45
20.48
21.82
22.82
23.12
22.68
21.65
20.20
18.47
16.49
14.21
11.56
8.51
4.99
1.03
-3.33
-7.95
-12.62
-17.11
-21.26
-25.03
-28.57
-32.19
-36.31
-41.28
-47.31
-54.17
-61.12
-66.92
-70.03
-69.10
-63.29
-52.67
-38.26
-21.76
-5.11
9.95
22.18
31.00
36.30
38.36
37.61
34.66
30.22
25.21
20.58
17.17
15.48
15.51
16.74
18.36
19.59
19.93
19.32
18.03
16.46
14.88
13.26
11.35
8.77
5.25
0.76
-4.40
-9.71
-14.60
-18.66
-21.77
-24.17
-26.37
-28.96
-32.54
-37.47
-43.79
-51.03
-58.17
-63.80
-66.39
-64.74
-58.35
-47.57
-33.58
-18.00
-2.53
11.46
22.97
31.43
36.58
38.45
37.30
33.74
28.62
23.04
18.04
14.40
12.49
12.22
13.06
14.33
15.43
16.00
15.91
15.30
14.29
12.94
11.13
8.63
5.30
1.15
-3.60
-8.49
-13.09
-17.10
-20.48
-23.46
-26.42
-29.82
-34.04
-39.32
-45.60
-52.41
-58.81
-63.42
-64.82
-61.89
-54.34
-42.80
-28.70
-13.82
0.22
12.32
21.85
28.60
32.47
33.48
31.80
27.96
22.92
17.88
13.97
11.93
11.85
13.23
15.23
17.10
18.39
19.09
19.39
19.47
19.25
18.39
16.40
12.97
8.11
2.21
-4.08
-10.09
-15.38
-19.80
-23.61
-27.33
-31.59
-36.98
-43.77
-51.76
-60.11
-67.38
-71.83
-71.87
-66.58
-56.02
-41.32
-24.30
-7.00
8.81
21.93
31.70
37.93
40.68
40.23
37.14
32.22
26.56
21.26
17.24
14.96
14.39
15.05
16.27
17.45
18.21
18.44
18.19
17.48
16.22
14.19
11.15
6.98
1.82
-3.95
-9.83
-15.33
-20.13
-24.23
-27.90
-31.71
-36.34
-42.37
-50.03
-58.95
-68.04
-75.60
-79.72
-78.83
-72.19
-60.16
-44.07
-25.84
-7.48
9.34
23.47
34.30
41.59
45.40
46.07
44.16
40.46
35.93
31.59
28.26
26.45
26.20
27.11
28.44
29.46
29.64
28.83
27.28
25.37
23.40
21.35
18.87
15.46
10.78
4.84
-1.95
-8.88
-15.28
-20.72
-25.24
-29.25
-33.43
-38.49
-44.98
-53.12
-62.58
-72.45
-81.16
-86.81
-87.56
-82.24
-70.77
-54.23
-34.62
-14.22
4.92
21.38
34.36
43.54
48.87
50.51
48.93
45.00
39.96
35.15
31.71
30.27
30.79
32.66
35.01
37.03
38.17
38.21
37.22
35.46
33.20
30.60
27.71
24.42
20.55
15.95
10.62
4.71
-1.47
-7.56
-13.27
-18.54
-23.50
-28.46
-33.93
-40.38
-48.19
-57.37
-67.35
-76.80
-83.86
-86.51
-83.17
-73.30
-57.58
-37.82
-16.47
4.07
21.89
35.86
45.51
50.88
52.36
50.55
46.33
40.77
35.11
30.55
27.99
27.77
29.64
32.84
36.36
39.30
41.09
41.60
40.95
39.41
37.17
34.30
30.78
26.59
21.76
16.37
10.62
4.74
-1.04
-6.52
-11.60
-16.37
-21.12
-26.27
-32.27
-39.46
-48.00
-57.60
-67.50
-76.36
-82.46
-84.02
-79.73
-69.26
-53.38
-33.93
-13.19
6.55
23.62
37.03
46.43
51.90
53.69
52.29
48.39
43.00
37.31
32.52
29.54
28.73
29.81
32.04
34.54
36.62
37.93
38.43
38.23
37.42
35.93
33.58
30.22
25.85
20.62
14.81
8.73
2.66
-3.24
-8.88
-14.23
-19.31
-24.22
-29.16
-34.51
-40.71
-48.14
-56.80
-66.11
-74.75
-80.89
-82.61
-78.55
-68.31
-52.72
-33.59
-13.24
6.07
22.67
35.58
44.47
49.47
50.96
49.46
45.68
40.60
35.36
31.16
28.87
28.83
30.70
33.64
36.64
38.85
39.88
39.76
38.77
37.20
35.21
32.75
29.66
25.82
21.20
15.91
10.13
4.17
-1.72
-7.29
-12.50
-17.45
-22.46
-27.96
-34.45
-42.27
-51.43
-61.36
-70.86
-78.18
-81.46
-79.21
-70.86
-56.98
-39.21
-19.79
-1.00
15.36
28.19
37.07
42.09
43.63
42.27
38.81
34.21
29.60
26.05
24.31
24.66
26.81
30.03
33.42
36.17
37.82
38.29
37.72
36.32
34.16
31.15
27.09
21.93
15.78
9.04
2.21
-4.28
-10.21
-15.62
-20.72
-25.87
-31.46
-37.85
-45.33
-53.95
-63.28
-72.21
-79.01
-81.76
-78.88
-69.79
-55.23
-37.03
-17.62
0.68
16.19
28.03
35.96
40.17
41.07
39.21
35.44
30.85
26.69
24.13
23.84
25.85
29.50
33.70
37.28
39.46
39.95
38.94
36.89
34.17
30.95
27.16
22.59
17.13
10.81
3.88
-3.23
-10.12
-16.44
-22.07
-27.04
-31.62
-36.27
-41.57
-48.14
-56.40
-66.31
-76.97
-86.70
-93.23
-94.32
-88.55
-75.82
-57.49
-35.94
-13.85
6.49
23.59
36.81
46.10
51.76
54.29
54.29
52.57
49.96
47.33
45.34
44.47
44.85
46.30
48.43
50.69
52.53
53.54
53.49
52.31
50.10
46.98
43.05
38.35
32.90
26.77
20.06
12.97
5.68
-1.58
-8.63
-15.31
-21.47
-27.07
-32.17
-37.08
-42.33
-48.59
-56.40
-65.86
-76.24
-85.96
-92.81
-94.59
-89.81
-78.23
-61.06
-40.51
-19.18
0.64
17.42
30.47
39.70
45.36
47.84
47.62
45.35
41.85
38.05
34.83
32.80
32.21
32.90
34.42
36.21
37.79
38.81
39.12
38.71
37.62
35.94
33.71
30.97
27.70
23.90
19.56
14.78
9.68
4.45
-0.74
-5.74
-10.50
-15.06
-19.51
-24.07
-29.06
-34.93
-42.18
-51.05
-61.23
-71.57
-80.12
-84.60
-83.07
-74.66
-59.94
-40.85
-20.11
-0.44
16.09
28.42
36.41
40.54
41.51
40.07
37.03
33.28
29.84
27.70
27.52
29.52
33.28
38.04
42.90
47.09
50.13
51.80
52.03
50.86
48.36
44.71
40.17
35.03
29.56
23.89
18.07
12.09
6.01
-0.03
-5.84
-11.26
-16.24
-20.97
-25.80
-31.23
-37.77
-45.80
-55.33
-65.82
-76.02
-84.07
-87.91
-85.88
-77.33
-62.95
-44.56
-24.68
-5.70
10.66
23.52
32.75
38.58
41.35
41.44
39.27
35.57
31.31
27.57
25.31
25.06
26.70
29.62
32.90
35.65
37.21
37.32
36.01
33.53
30.21
26.33
22.07
17.44
12.24
6.27
-0.65
-8.38
-16.46
-24.16
-30.77
-35.79
-39.17
-41.26
-42.73
-44.35
-46.85
-50.65
-55.76
-61.50
-66.55
-69.16
-67.63
-60.89
-48.85
-32.57
-13.90
5.01
22.23
36.36
46.63
52.76
54.85
53.30
48.81
42.43
35.44
29.24
24.94
23.15
23.74
25.99
28.78
31.07
32.18
31.93
30.61
28.62
26.31
23.67
20.45
16.23
10.76
4.15
-3.05
-9.97
-15.68
-19.55
-21.51
-22.14
-22.52
-23.91
-27.37
-33.32
-41.27
-49.87
-57.09
-60.80
-59.40
-52.29
-40.04
-24.20
-6.84
10.08
25.01
37.02
45.66
50.84
52.67
51.42
47.66
42.28
36.43
31.29
27.80
26.29
26.45
27.42
28.22
28.14
27.01
25.17
23.16
21.37
19.72
17.77
14.90
10.66
5.08
-1.39
-8.03
-14.16
-19.40
-23.83
-27.91
-32.37
-37.91
-45.07
-54.00
-64.32
-75.04
-84.56
-90.95
-92.32
-87.42
-76.05
-59.25
-39.08
-18.02
1.59
18.11
30.71
39.21
43.88
45.14
43.55
39.85
35.01
30.23
26.67
25.15
25.88
28.34
31.49
34.18
35.57
35.38
33.92
31.74
29.28
26.61
23.43
19.28
13.83
7.12
-0.48
-8.33
-15.79
-22.40
-27.99
-32.73
-37.06
-41.67
-47.34
-54.63
-63.66
-73.74
-83.35
-90.31
-92.34
-87.71
-75.84
-57.55
-34.87
-10.51
12.84
33.05
48.92
59.96
66.30
68.39
66.83
62.45
56.26
49.38
42.95
37.88
34.63
33.29
33.51
34.66
36.04
36.99
37.06
36.07
34.18
31.69
28.93
26.07
22.97
19.35
14.94
9.69
3.79
-2.32
-8.23
-13.69
-18.66
-23.30
-27.97
-33.02
-38.90
-45.95
-54.37
-63.99
-74.00
-83.01
-89.14
-90.51
-85.80
-74.72
-58.24
-38.30
-17.36
2.25
18.83
31.47
39.95
44.55
45.75
44.20
40.68
36.18
31.76
28.44
26.94
27.45
29.65
32.78
35.99
38.54
40.05
40.46
39.98
38.89
37.36
35.39
32.80
29.35
24.94
19.56
13.45
6.96
0.50
-5.63
-11.28
-16.43
-21.26
-26.02
-31.08
-36.87
-43.81
-52.11
-61.48
-70.94
-78.78
-82.90
-81.39
-73.24
-58.82
-39.91
-19.13
0.77
17.71
30.60
39.27
44.14
45.77
44.75
41.63
37.17
32.33
28.18
25.67
25.32
27.08
30.34
34.18
37.63
39.94
40.73
39.98
37.98
35.10
31.70
27.97
23.96
19.56
14.67
9.23
3.38
-2.62
-8.42
-13.80
-18.68
-23.16
-27.53
-32.19
-37.58
-44.07
-51.78
-60.40
-69.01
-76.07
-79.79
-78.61
-71.67
-59.21
-42.52
-23.62
-4.70
12.32
26.15
36.14
42.12
44.33
43.23
39.57
34.35
28.81
24.19
21.49
21.11
22.81
25.80
29.02
31.55
32.87
32.91
31.91
30.18
27.91
25.05
21.37
16.60
10.64
3.71
-3.68
-10.82
-17.12
-22.27
-26.42
-30.13
-34.19
-39.36
-46.17
-54.64
-64.19
-73.55
-80.99
-84.62
-82.91
-75.15
-61.69
-43.95
-23.99
-4.09
13.78
28.29
38.70
44.93
47.27
46.32
42.95
38.22
33.30
29.29
26.96
26.51
27.60
29.40
30.99
31.69
31.30
29.98
28.11
25.94
23.46
20.44
16.59
11.73
5.98
-0.37
-6.84
-12.98
-18.51
-23.40
-27.93
-32.67
-38.34
-45.60
-54.72
-65.25
-75.84
-84.47
-88.92
-87.43
-79.30
-65.16
-46.76
-26.48
-6.63
11.05
25.50
36.32
43.47
47.08
47.43
45.05
40.79
35.78
31.29
28.30
27.29
28.08
29.94
31.99
33.47
34.09
33.94
33.29
32.30
30.88
28.67
25.26
20.45
14.41
7.64
0.82
-5.45
-10.87
-15.46
-19.57
-23.75
-28.60
-34.64
-42.19
-51.19
-60.99
-70.25
-77.12
-79.62
-76.32
-66.79
-51.87
-33.46
-13.90
4.56
20.26
32.30
40.37
44.60
45.42
43.52
39.79
35.31
31.13
28.03
26.44
26.30
27.20
28.57
29.84
30.62
30.77
30.33
29.37
27.86
25.60
22.27
17.62
11.65
4.70
-2.60
-9.51
-15.54
-20.53
-24.81
-29.09
-34.16
-40.77
-49.27
-59.41
-70.19
-79.89
-86.36
-87.63
-82.45
-70.77
-53.86
-33.95
-13.55
5.18
20.82
32.82
41.17
46.11
47.99
47.25
44.52
40.78
37.14
34.61
33.86
34.94
37.36
40.27
42.82
44.34
44.49
43.31
41.04
38.05
34.70
31.21
27.60
23.70
19.29
14.17
8.36
2.12
-4.14
-10.01
-15.33
-20.19
-25.01
-30.37
-36.83
-44.86
-54.52
-65.28
-75.84
-84.15
-87.86
-84.98
-74.60
-57.44
-35.71
-12.51
9.08
26.83
39.73
47.85
51.89
52.76
51.30
48.29
44.46
40.58
37.35
35.29
34.65
35.31
36.91
38.93
40.82
42.13
42.56
42.01
40.55
38.40
35.80
32.91
29.70
26.03
21.72
16.68
10.96
4.85
-1.30
-7.10
-12.29
-16.81
-20.87
-24.89
-29.49
-35.39
-43.16
-52.95
-64.21
-75.54
-84.87
-89.91
-88.82
-80.82
-66.52
-47.74
-27.00
-6.87
10.71
24.57
34.36
40.23
42.66
42.28
39.87
36.29
32.54
29.56
28.08
28.40
30.35
33.37
36.66
39.42
41.05
41.33
40.43
38.72
36.64
34.43
32.08
29.33
25.83
21.38
16.01
10.09
4.20
-1.15
-5.66
-9.39
-12.71
-16.16
-20.33
-25.69
-32.56
-40.95
-50.39
-59.84
-67.63
-71.85
-70.85
-63.86
-51.31
-34.77
-16.47
1.33
16.94
29.37
38.28
43.72
45.90
45.18
42.15
37.66
32.82
28.76
26.36
26.03
27.58
30.30
33.28
35.64
36.80
36.51
34.87
32.18
28.77
24.94
20.84
16.49
11.79
6.65
1.10
-4.69
-10.39
-15.63
-20.13
-23.89
-27.17
-30.45
-34.33
-39.32
-45.74
-53.56
-62.22
-70.56
-76.92
-79.44
-76.59
-67.75
-53.46
-35.43
-16.07
2.24
17.66
29.25
36.85
40.81
41.72
40.27
37.22
33.41
29.73
26.98
25.70
26.00
27.58
29.87
32.21
34.07
35.12
35.28
34.57
33.10
30.97
28.26
25.14
21.78
18.36
14.91
11.36
7.46
3.01
-2.04
-7.49
-12.93
-17.99
-22.54
-26.76
-31.18
-36.41
-42.99
-51.09
-60.39
-69.92
-78.14
-83.15
-83.16
-77.13
-65.10
-48.38
-29.17
-9.94
7.26
21.17
31.36
37.96
41.37
42.07
40.59
37.63
34.03
30.67
28.30
27.30
27.70
29.16
31.18
33.26
34.99
36.11
36.45
35.89
34.39
31.94
28.69
24.89
20.86
16.86
13.06
9.44
5.88
2.20
-1.72
-5.93
-10.31
-14.71
-18.97
-23.08
-27.23
-31.75
-37.16
-43.85
-52.01
-61.22
-70.45
-78.01
-81.93
-80.54
-72.97
-59.59
-41.98
-22.46
-3.52
12.88
25.71
34.78
40.43
43.18
43.48
41.78
38.62
34.74
31.04
28.36
27.23
27.70
29.35
31.56
33.70
35.29
36.05
35.82
34.51
32.12
28.77
24.80
20.62
16.66
13.18
10.12
7.27
4.24
0.72
-3.42
-8.08
-12.99
-17.78
-22.13
-25.90
-29.20
-32.50
-36.43
-41.64
-48.40
-56.28
-64.12
-70.13
-72.39
-69.50
-61.03
-47.70
-31.18
-13.63
2.92
16.92
27.52
34.50
38.06
38.66
36.95
33.67
29.67
25.80
22.84
21.22
21.01
21.94
23.48
25.07
26.29
26.90
26.84
26.17
24.93
23.18
20.91
18.15
14.91
11.24
7.26
3.12
-0.97
-4.80
-8.26
-11.42
-14.49
-17.77
-21.53
-25.97
-31.19
-37.20
-43.91
-50.94
-57.50
-62.38
-64.07
-61.31
-53.55
-41.29
-25.95
-9.54
6.03
19.35
29.64
36.59
40.19
40.57
38.04
33.24
27.18
21.14
16.36
13.70
13.34
14.80
17.13
19.35
20.72
20.95
20.15
18.65
16.75
14.55
12.01
8.95
5.30
1.14
-3.28
-7.65
-11.69
-15.27
-18.45
-21.43
-24.47
-27.85
-31.83
-36.64
-42.42
-49.05
-56.04
-62.36
-66.60
-67.26
-63.24
-54.25
-41.01
-25.14
-8.65
6.55
19.07
28.22
33.92
36.42
36.14
33.60
29.51
24.76
20.41
17.44
16.42
17.29
19.38
21.68
23.27
23.71
23.10
21.89
20.52
19.09
17.38
14.95
11.43
6.77
1.28
-4.51
-10.07
-15.09
-19.55
-23.66
-27.76
-32.19
-37.30
-43.36
-50.47
-58.35
-66.21
-72.72
-76.23
-75.21
-68.81
-57.17
-41.50
-23.70
-5.84
10.32
23.57
33.31
39.38
41.90
41.21
37.98
33.11
27.75
23.05
19.91
18.73
19.37
21.21
23.35
25.01
25.71
25.40
24.30
22.77
20.97
18.79
15.89
11.94
6.84
0.88
-5.32
-11.02
-15.72
-19.32
-22.22
-25.11
-28.72
-33.62
-40.05
-47.81
-56.23
-64.11
-69.95
-72.13
-69.42
-61.35
-48.47
-32.23
-14.59
2.45
17.32
29.01
37.04
41.37
42.28
40.34
36.43
31.60
26.99
23.53
21.85
22.06
23.83
26.50
29.25
31.33
32.26
31.88
30.39
28.10
25.32
22.14
18.46
14.09
8.94
3.11
-3.09
-9.23
-14.91
-19.86
-24.09
-27.79
-31.38
-35.38
-40.32
-46.56
-54.03
-62.07
-69.34
-74.13
-74.66
-69.76
-59.23
-44.02
-25.92
-7.14
10.28
24.85
35.73
42.70
45.91
45.83
43.14
38.76
33.79
29.35
26.33
25.19
25.92
28.02
30.70
33.19
34.91
35.61
35.31
34.25
32.63
30.51
27.81
24.37
20.11
15.06
9.48
3.72
-1.90
-7.18
-12.13
-16.89
-21.66
-26.63
-32.01
-38.02
-44.87
-52.61
-60.82
-68.47
-73.94
-75.43
-71.51
-61.77
-47.01
-29.11
-10.43
6.85
21.15
31.80
38.73
42.23
42.72
40.73
36.96
32.39
28.14
25.27
24.45
25.69
28.44
31.71
34.51
36.18
36.49
35.64
33.98
31.83
29.37
26.54
23.23
19.29
14.65
9.41
3.84
-1.71
-6.93
-11.67
-15.99
-20.11
-24.41
-29.31
-35.14
-42.11
-50.03
-58.16
-65.18
-69.34
-68.95
-62.98
-51.50
-35.79
-18.00
-0.47
14.85
26.84
35.14
39.89
41.43
40.14
36.54
31.41
25.83
21.07
18.14
17.53
18.94
21.51
24.19
26.19
27.24
27.54
27.42
27.03
26.13
24.22
20.83
15.87
9.78
3.38
-2.53
-7.43
-11.34
-14.69
-18.15
-22.37
-27.79
-34.50
-42.29
-50.50
-57.98
-63.28
-64.84
-61.48
-52.84
-39.61
-23.41
-6.37
9.44
22.47
31.94
37.67
39.96
39.31
36.34
31.85
26.84
22.35
19.29
18.08
18.58
20.13
21.91
23.19
23.65
23.30
22.39
21.12
19.51
17.33
14.32
10.30
5.36
-0.18
-5.79
-10.99
-15.48
-19.29
-22.78
-26.51
-31.13
-37.20
-44.91
-53.98
-63.45
-71.76
-76.97
-77.34
-71.81
-60.44
-44.51
-26.11
-7.59
9.08
22.66
32.63
39.00
42.02
42.06
39.66
35.64
31.09
27.19
24.90
24.63
26.11
28.53
30.88
32.33
32.55
31.66
30.06
28.19
26.20
23.93
20.96
16.94
11.74
5.67
-0.67
-6.60
-11.66
-15.81
-19.43
-23.18
-27.74
-33.67
-41.17
-50.00
-59.40
-68.03
-74.16
-76.07
-72.50
-63.17
-48.90
-31.44
-12.99
4.41
19.26
30.75
38.68
43.22
44.71
43.69
40.79
36.82
32.71
29.32
27.34
27.10
28.47
30.89
33.54
35.58
36.44
35.97
34.43
32.26
29.89
27.47
24.85
21.71
17.74
12.88
7.38
1.65
-3.89
-8.94
-13.43
-17.49
-21.33
-25.23
-29.58
-34.82
-41.38
-49.45
-58.67
-67.90
-75.29
-78.71
-76.39
-67.65
-53.18
-34.98
-15.63
2.39
17.40
28.70
36.33
40.70
42.32
41.65
39.29
36.07
32.99
30.94
30.43
31.41
33.34
35.49
37.29
38.49
39.10
39.25
38.91
37.92
36.15
33.53
30.24
26.64
23.05
19.64
16.37
13.02
9.30
5.00
0.07
-5.32
-10.81
-15.94
-20.35
-23.94
-26.97
-30.04
-33.93
-39.40
-46.85
-56.10
-66.16
-75.31
-81.37
-82.32
-76.98
-65.39
-48.95
-29.95
-10.86
6.32
20.40
30.95
38.05
41.89
42.76
41.02
37.40
32.95
28.88
26.27
25.73
27.22
30.12
33.59
36.80
39.28
40.89
41.70
41.82
41.19
39.65
36.99
33.21
28.59
23.65
19.10
15.41
12.73
10.70
8.65
5.83
1.81
-3.29
-8.94
-14.39
-19.08
-22.88
-26.16
-29.58
-33.82
-39.40
-46.46
-54.79
-63.62
-71.72
-77.42
-79.00
-75.16
-65.49
-50.77
-32.75
-13.79
3.89
18.64
29.68
36.91
40.70
41.60
40.21
37.19
33.30
29.38
26.27
24.62
24.73
26.46
29.27
32.41
35.13
36.91
37.54
37.03
35.58
33.40
30.67
27.51
24.08
20.47
16.80
13.12
9.46
5.78
1.99
-2.00
-6.25
-10.76
-15.43
-20.08
-24.59
-29.03
-33.68
-39.10
-45.66
-53.26
-60.93
-66.95
-69.28
-66.30
-57.49
-43.70
-26.85
-9.34
6.72
19.94
29.75
36.16
39.47
40.01
38.22
34.66
30.13
25.59
22.01
20.08
20.02
21.54
23.91
26.17
27.50
27.44
25.99
23.49
20.46
17.26
14.03
10.65
6.94
2.77
-1.77
-6.51
-11.19
-15.65
-19.80
-23.66
-27.21
-30.48
-33.52
-36.59
-40.17
-44.89
-51.21
-59.04
-67.35
-74.28
-77.61
-75.49
-67.19
-53.41
-36.09
-17.65
-0.38
14.19
25.36
33.10
37.67
39.46
38.92
36.63
33.33
29.84
26.96
25.27
25.02
26.13
28.23
30.74
33.07
34.66
35.16
34.44
32.63
29.97
26.75
23.18
19.39
15.44
11.33
7.07
2.66
-1.87
-6.50
-11.17
-15.83
-20.39
-24.85
-29.27
-33.93
-39.30
-45.88
-53.95
-63.25
-72.69
-80.50
-84.62
-83.35
-75.99
-63.07
-46.27
-27.80
-9.85
6.01
18.88
28.46
34.79
38.03
38.44
36.49
32.98
28.98
25.62
23.78
23.80
25.47
28.13
30.95
33.28
34.72
35.14
34.59
33.12
30.77
27.64
23.94
20.00
16.18
12.66
9.45
6.35
3.12
-0.41
-4.20
-8.14
-12.06
-15.93
-19.86
-24.10
-29.03
-35.03
-42.44
-51.31
-61.14
-70.70
-78.15
-81.45
-78.99
-70.23
-55.96
-38.07
-19.00
-1.03
14.22
25.91
33.89
38.43
40.00
39.23
36.92
34.00
31.40
29.86
29.72
30.89
32.94
35.33
37.57
39.42
40.81
41.76
42.18
41.85
40.54
38.04
34.45
30.10
25.48
21.04
16.95
13.08
9.06
4.49
-0.78
-6.66
-12.72
-18.47
-23.53
-27.78
-31.45
-35.04
-39.20
-44.55
-51.38
-59.46
-67.83
-74.90
-78.72
-77.59
-70.64
-58.13
-41.47
-22.81
-4.41
11.89
24.90
34.17
39.72
41.92
41.37
38.89
35.44
32.04
29.52
28.37
28.66
30.06
32.08
34.23
36.13
37.57
38.50
38.87
38.59
37.56
35.64
32.82
29.27
25.27
21.20
17.30
13.65
10.09
6.36
2.24
-2.37
-7.35
-12.46
-17.45
-22.14
-26.54
-30.87
-35.58
-41.16
-48.03
-56.16
-64.87
-72.72
-77.84
-78.37
-73.15
-62.14
-46.50
-28.24
-9.61
7.40
21.50
32.04
38.88
42.23
42.50
40.34
36.59
32.23
28.21
25.30
23.94
24.24
25.90
28.39
31.00
32.99
33.85
33.35
31.62
29.07
26.11
23.05
19.90
16.46
12.55
8.11
3.37
-1.32
-5.59
-9.25
-12.33
-15.06
-17.79
-20.87
-24.70
-29.65
-35.94
-43.46
-51.56
-58.97
-63.98
-64.94
-60.73
-51.28
-37.58
-21.44
-4.96
10.05
22.37
31.45
37.19
39.78
39.44
36.57
31.84
26.26
21.04
17.38
16.00
16.91
19.46
22.57
25.22
26.74
26.95
26.06
24.39
22.21
19.53
16.24
12.22
7.47
2.19
-3.27
-8.50
-13.17
-17.19
-20.73
-24.16
-28.00
-32.77
-38.86
-46.41
-55.13
-64.19
-72.21
-77.45
-78.27
-73.62
-63.46
-48.87
-31.72
-14.15
2.00
15.53
25.90
33.03
37.00
38.02
36.42
32.83
28.26
23.97
21.07
20.26
21.50
24.09
27.00
29.24
30.23
29.95
28.76
27.11
25.27
23.19
20.52
16.83
11.88
5.80
-0.88
-7.47
-13.32
-18.11
-21.94
-25.34
-29.06
-33.83
-40.17
-48.16
-57.27
-66.36
-73.70
-77.36
-75.76
-68.14
-55.00
-37.94
-19.27
-1.34
14.07
25.98
34.21
39.08
41.16
41.00
39.21
36.43
33.42
30.97
29.73
30.06
31.85
34.63
37.62
40.06
41.37
41.33
40.07
37.91
35.25
32.34
29.24
25.83
21.97
17.51
12.45
6.92
1.15
-4.60
-10.08
-15.13
-19.70
-23.92
-28.11
-32.75
-38.44
-45.65
-54.40
-64.05
-73.20
-79.93
-82.28
-78.94
-69.67
-55.48
-38.27
-20.28
-3.40
11.10
22.68
31.21
36.77
39.54
39.77
38.00
35.06
32.00
29.83
29.29
30.59
33.44
37.16
40.86
43.78
45.35
45.39
44.03
41.61
38.51
34.98
31.19
27.10
22.62
17.63
12.10
6.15
0.05
-5.82
-11.11
-15.62
-19.42
-22.77
-26.10
-29.86
-34.45
-40.15
-47.02
-54.74
-62.43
-68.65
-71.63
-69.81
-62.38
-49.73
-33.33
-15.36
1.93
16.81
28.28
36.10
40.47
41.83
40.76
37.95
34.22
30.51
27.72
26.43
26.83
28.58
30.99
33.28
34.86
35.49
35.24
34.38
33.11
31.43
29.18
26.13
22.15
17.28
11.79
6.08
0.57
-4.46
-8.90
-12.87
-16.67
-20.69
-25.32
-30.82
-37.41
-45.13
-53.70
-62.38
-69.87
-74.45
-74.48
-68.90
-57.76
-42.24
-24.38
-6.42
9.76
23.00
32.82
39.24
42.63
43.41
42.16
39.53
36.28
33.18
30.89
29.84
30.13
31.51
33.50
35.48
36.91
37.41
36.86
35.34
33.10
30.38
27.36
24.09
20.47
16.36
11.65
6.38
0.77
-4.85
-10.18
-15.06
-19.61
-24.10
-28.92
-34.47
-41.11
-49.04
-58.15
-67.84
-76.82
-83.28
-85.25
-81.29
-71.06
-55.50
-36.65
-16.99
1.24
16.54
28.20
36.24
41.01
42.99
42.73
40.82
38.00
35.09
32.93
32.16
33.09
35.50
38.74
41.93
44.21
45.04
44.35
42.45
39.78
36.75
33.57
30.25
26.66
22.65
18.19
13.30
8.15
2.96
-2.10
-6.94
-11.58
-16.15
-20.83
-25.85
-31.44
-37.88
-45.41
-54.00
-63.14
-71.65
-77.81
-79.79
-76.21
-66.69
-52.09
-34.26
-15.51
1.97
16.59
27.58
34.83
38.75
39.96
39.18
37.12
34.56
32.28
30.94
31.04
32.67
35.56
39.07
42.48
45.18
46.86
47.48
47.10
45.76
43.40
39.92
35.35
29.94
24.17
18.54
13.40
8.77
4.45
0.08
-4.56
-9.46
-14.46
-19.30
-23.85
-28.16
-32.53
-37.46
-43.45
-50.76
-59.11
-67.47
-74.14
-77.11
-74.75
-66.44
-52.83
-35.71
-17.44
-0.21
14.43
25.78
33.79
38.68
40.80
40.54
38.42
35.18
31.74
29.04
27.76
28.15
29.95
32.52
35.04
36.79
37.32
36.53
34.65
32.05
29.14
26.14
23.05
19.74
16.02
11.79
7.16
2.38
-2.27
-6.57
-10.47
-14.06
-17.46
-20.91
-24.68
-29.16
-34.75
-41.65
-49.55
-57.53
-64.03
-67.25
-65.73
-58.83
-47.06
-31.89
-15.32
0.69
14.67
25.78
33.70
38.30
39.62
37.87
33.63
27.93
22.18
17.73
15.42
15.33
16.82
18.86
20.49
21.25
21.13
20.48
19.61
18.64
17.36
15.46
12.64
8.82
4.19
-0.89
-5.95
-10.59
-14.61
-18.05
-21.22
-24.67
-28.98
-34.63
-41.70
-49.69
-57.49
-63.51
-66.10
-64.00
-56.73
-44.78
-29.50
-12.76
3.58
18.00
29.48
37.62
42.40
44.06
43.02
39.90
35.52
30.86
26.88
24.37
23.63
24.41
25.99
27.49
28.20
27.78
26.34
24.21
21.72
18.97
15.83
12.04
7.48
2.28
-3.16
-8.33
-12.86
-16.66
-19.99
-23.37
-27.39
-32.52
-39.02
-46.78
-55.21
-63.17
-69.16
-71.57
-69.13
-61.37
-48.85
-33.05
-16.01
0.31
14.44
25.59
33.60
38.63
40.99
41.05
39.23
36.09
32.42
29.04
26.75
25.97
26.73
28.61
30.87
32.73
33.60
33.17
31.59
29.24
26.59
23.89
21.17
18.14
14.46
9.91
4.54
-1.30
-7.10
-12.38
-16.80
-20.31
-23.14
-25.76
-28.82
-33.04
-38.98
-46.75
-55.79
-64.78
-71.83
-75.02
-72.92
-65.07
-52.19
-35.94
-18.45
-1.76
12.65
24.00
32.16
37.36
39.95
40.34
38.97
36.41
33.38
30.64
28.77
28.08
28.50
29.65
31.02
32.19
32.88
32.94
32.31
30.92
28.80
26.00
22.69
19.07
15.27
11.30
7.08
2.58
-2.16
-6.91
-11.41
-15.47
-19.11
-22.57
-26.24
-30.54
-35.79
-42.14
-49.44
-57.21
-64.51
-69.96
-72.08
-69.63
-62.12
-50.03
-34.74
-18.09
-1.93
12.31
23.84
32.33
37.76
40.22
39.93
37.36
33.28
28.75
24.84
22.43
21.90
23.10
25.38
27.88
29.78
30.61
30.31
29.15
27.56
25.88
24.26
22.54
20.39
17.45
13.58
8.92
3.83
-1.21
-5.89
-10.10
-14.00
-17.87
-22.01
-26.64
-31.96
-38.09
-44.97
-52.22
-58.91
-63.69
-65.07
-61.96
-54.03
-41.95
-27.19
-11.55
3.29
16.08
26.05
32.85
36.38
36.85
34.72
30.78
26.07
21.68
18.51
16.98
17.01
18.11
19.56
20.77
21.43
21.52
21.22
20.65
19.77
18.31
15.93
12.45
7.98
2.92
-2.16
-6.81
-10.82
-14.28
-17.48
-20.78
-24.45
-28.75
-33.90
-40.01
-46.93
-53.95
-59.84
-63.03
-62.11
-56.35
-46.00
-32.25
-16.85
-1.65
11.88
22.73
30.39
34.71
35.82
34.16
30.44
25.68
20.98
17.36
15.48
15.49
17.00
19.26
21.43
22.88
23.33
22.88
21.81
20.35
18.58
16.35
13.42
9.63
5.02
-0.15
-5.49
-10.59
-15.16
-19.16
-22.68
-26.09
-29.84
-34.50
-40.54
-48.14
-56.86
-65.61
-72.68
-76.21
-74.74
-67.70
-55.61
-39.92
-22.62
-5.68
9.34
21.48
30.31
35.81
38.22
38.00
35.82
32.49
28.93
25.90
23.97
23.34
23.86
25.12
26.56
27.68
28.17
27.97
27.18
25.97
24.41
22.40
19.70
16.09
11.54
6.28
0.79
-4.42
-9.00
-12.90
-16.36
-19.84
-23.85
-28.83
-35.08
-42.64
-51.23
-60.03
-67.74
-72.72
-73.40
-68.76
-58.68
-44.08
-26.69
-8.62
8.16
22.13
32.54
39.23
42.54
43.07
41.49
38.52
34.87
31.26
28.36
26.64
26.25
27.06
28.60
30.31
31.62
32.13
31.68
30.29
28.14
25.46
22.53
19.51
16.45
13.28
9.89
6.14
2.02
-2.40
-6.95
-11.43
-15.66
-19.55
-23.15
-26.70
-30.60
-35.39
-41.51
-49.04
-57.46
-65.56
-71.63
-73.86
-70.93
-62.45
-49.18
-32.72
-15.17
1.51
15.89
27.20
35.22
40.07
42.05
41.54
39.04
35.25
31.01
27.22
24.62
23.58
24.07
25.62
27.52
29.09
29.83
29.54
28.29
26.27
23.69
20.69
17.34
13.70
9.80
5.70
1.41
-3.00
-7.48
-11.95
-16.33
-20.54
-24.54
-28.27
-31.63
-34.65
-37.45
-40.30
-43.53
-47.20
-50.92
-53.72
-54.30
-51.48
-44.72
-34.36
-21.59
-8.03
4.75
15.57
23.72
28.93
31.26
31.00
28.79
25.46
21.93
19.00
17.11
16.28
16.29
16.90
18.05
19.94
22.96
27.57
34.18
43.04
54.12
66.86
79.95
91.50
99.40
102.12
99.29
91.96
82.13
71.94
62.92
55.63
49.87
45.14
40.99
37.10
33.05
28.26
22.16
14.68
6.62
-0.31
-4.00
-2.69
4.31
16.30
31.45
47.29
61.34
71.71
77.30
77.84
73.85
66.34
56.57
45.90
35.53
26.39
19.11
13.91
10.67
8.94
8.04
7.21
5.83
3.56
0.39
-3.45
-7.65
-12.03
-16.61
-21.44
-26.45
-31.29
-35.37
-38.09
-39.21
-39.03
-38.37
-38.31
-39.83
-43.50
-49.35
-56.83
-64.90
-72.08
-76.70
-77.20
-72.57
-62.69
-48.49
-31.83
-14.94
0.07
11.68
19.17
22.47
21.98
18.35
12.42
5.17
-2.23
-8.63
-13.05
-15.01
-14.69
-12.83
-10.45
-8.42
-7.16
-6.63
-6.50
-6.44
-6.38
-6.56
-7.32
-8.95
-11.47
-14.64
-18.03
-21.25
-24.03
-26.33
-28.34
-30.30
-32.63
-35.75
-39.98
-45.35
-51.39
-57.02
-60.76
-61.13
-57.19
-48.94
-37.43
-24.40
-11.75
-1.01
6.96
11.99
14.28
14.24
12.27
8.86
4.59
0.21
-3.50
-5.92
-6.79
-6.31
-5.04
-3.69
-2.85
-2.78
-3.36
-4.21
-4.93
-5.26
-5.24
-5.18
-5.51
-6.65
-8.74
-11.64
-14.95
-18.23
-21.12
-23.54
-25.66
-27.88
-30.73
-34.69
-40.12
-47.08
-55.18
-63.46
-70.50
-74.64
-74.44
-69.10
-58.84
-44.82
-28.83
-12.82
1.65
13.61
22.64
28.74
32.05
32.80
31.36
28.40
24.91
21.94
20.38
20.61
22.37
24.96
27.56
29.52
30.50
30.47
29.54
27.86
25.59
22.92
20.05
17.14
14.23
11.26
8.06
4.47
0.46
-3.88
-8.44
-13.11
-17.90
-22.93
-28.34
-34.37
-41.17
-48.73
-56.63
-63.93
-69.16
-70.66
-67.11
-57.97
-43.77
-26.01
-6.64
12.44
29.77
44.47
56.03
64.25
69.11
70.93
70.44
68.78
67.22
66.80
67.97
70.38
72.96
74.33
73.25
69.04
61.75
52.00
40.81
29.21
18.01
7.66
-1.71
-10.17
-17.78
-24.56
-30.44
-35.33
-39.23
-42.25
-44.60
-46.59
-48.53
-50.78
-53.65
-57.26
-61.33
-65.01
-66.93
-65.52
-59.56
-48.73
-33.82
-16.53
0.96
16.72
29.39
38.30
43.39
44.93
43.41
39.56
34.34
28.96
24.64
22.37
22.55
24.94
28.68
32.56
35.43
36.49
35.53
32.84
29.16
25.21
21.46
17.93
14.27
9.94
4.63
-1.55
-8.10
-14.27
-19.44
-23.40
-26.42
-29.11
-32.21
-36.33
-41.88
-49.00
-57.31
-65.89
-73.24
-77.58
-77.25
-71.41
-60.29
-45.19
-28.17
-11.38
3.47
15.31
23.69
28.60
30.29
29.21
26.06
21.74
17.32
13.77
11.82
11.71
13.23
15.78
18.60
21.01
22.63
23.46
23.77
23.90
23.99
23.80
22.86
20.67
17.06
12.38
7.37
2.88
-0.56
-2.96
-4.76
-6.66
-9.26
-12.91
-17.75
-23.67
-30.31
-36.97
-42.47
-45.30
-43.98
-37.58
-26.10
-10.76
6.41
23.08
37.22
47.65
54.10
57.00
57.15
55.34
52.22
48.32
44.13
40.13
36.84
34.52
33.14
32.31
31.50
30.20
28.16
25.46
22.37
19.25
16.33
13.74
11.39
9.04
6.38
3.12
-0.90
-5.60
-10.67
-15.63
-20.08
-23.81
-26.94
-29.86
-33.04
-36.93
-41.71
-47.34
-53.36
-58.94
-62.88
-63.93
-61.01
-53.72
-42.47
-28.49
-13.44
0.96
13.39
23.15
30.03
34.17
35.82
35.27
32.96
29.47
25.64
22.34
20.28
19.77
20.60
22.20
23.79
24.71
24.62
23.56
21.86
19.86
17.81
15.64
13.20
10.25
6.74
2.83
-1.14
-4.83
-8.04
-10.79
-13.30
-15.86
-18.77
-22.25
-26.42
-31.14
-35.94
-39.87
-41.70
-40.19
-34.55
-24.80
-11.88
2.55
16.66
28.93
38.47
45.03
48.79
50.05
49.03
45.93
40.98
34.65
27.61
20.67
14.51
9.51
5.57
2.27
-0.97
-4.63
-8.89
-13.55
-18.20
-22.43
-25.99
-28.93
-31.47
-33.80
-35.99
-37.84
-39.13
-39.68
-39.55
-39.03
-38.54
-38.55
-39.41
-41.25
-43.84
-46.51
-48.10
-47.28
-42.83
-34.23
-21.95
-7.37
7.52
20.91
31.59
39.13
43.72
45.81
45.73
43.73
40.09
35.35
30.31
25.89
22.81
21.27
20.97
21.20
21.11
20.11
17.86
14.45
10.13
5.27
0.15
-5.04
-10.27
-15.51
-20.63
-25.36
-29.34
-32.25
-33.98
-34.78
-35.12
-35.60
-36.80
-39.14
-42.83
-47.77
-53.50
-58.99
-62.83
-63.43
-59.60
-50.98
-38.27
-23.13
-7.60
6.53
18.06
26.49
31.90
34.59
34.96
33.42
30.43
26.56
22.39
18.57
15.62
13.91
13.49
14.11
15.21
16.04
15.91
14.44
11.70
8.15
4.41
0.97
-1.98
-4.63
-7.28
-10.24
-13.61
-17.21
-20.76
-24.00
-26.79
-29.24
-31.67
-34.50
-38.15
-42.90
-48.66
-54.88
-60.43
-63.82
-63.54
-58.49
-48.51
-34.50
-18.20
-1.69
13.21
25.31
34.17
39.87
42.80
43.33
41.91
39.03
35.35
31.66
28.76
27.27
27.50
29.29
32.08
35.05
37.32
38.28
37.70
35.68
32.59
28.75
24.36
19.49
14.10
8.21
1.99
-4.26
-10.12
-15.24
-19.39
-22.64
-25.32
-28.06
-31.52
-36.26
-42.46
-49.72
-57.00
-62.73
-65.27
-63.26
-56.15
-44.37
-29.29
-12.83
3.09
16.84
27.46
34.57
38.25
38.78
36.68
32.63
27.54
22.47
18.47
16.38
16.53
18.74
22.23
26.03
29.21
31.20
31.92
31.60
30.63
29.20
27.22
24.39
20.36
15.02
8.56
1.46
-5.65
-12.29
-18.18
-23.35
-28.06
-32.75
-37.86
-43.85
-50.96
-59.03
-67.30
-74.30
-78.12
-76.95
-69.68
-56.44
-38.69
-18.83
0.49
17.16
30.01
38.88
44.18
46.49
46.35
44.19
40.58
36.30
32.33
29.59
28.57
29.20
30.79
32.46
33.39
33.15
31.81
29.68
27.17
24.53
21.74
18.61
14.90
10.47
5.42
0.04
-5.33
-10.33
-14.83
-18.77
-22.29
-25.62
-29.16
-33.38
-38.79
-45.68
-53.79
-62.20
-69.32
-73.22
-72.26
-65.65
-53.85
-38.41
-21.61
-5.74
7.50
17.30
23.64
27.05
28.16
27.53
25.61
22.87
19.93
17.54
16.39
16.88
18.91
21.87
24.91
27.23
28.32
28.11
26.86
25.03
22.96
20.82
18.45
15.61
12.01
7.56
2.39
-3.09
-8.37
-12.98
-16.68
-19.57
-22.01
-24.50
-27.55
-31.57
-36.78
-43.22
-50.54
-57.93
-64.03
-67.11
-65.60
-58.60
-46.37
-30.34
-12.68
4.34
18.96
30.19
37.79
41.96
43.11
41.76
38.59
34.47
30.46
27.55
26.44
27.34
29.91
33.42
36.97
39.78
41.41
41.80
41.21
40.02
38.56
36.92
34.93
32.28
28.68
24.02
18.52
12.62
6.90
1.79
-2.48
-6.05
-9.35
-12.97
-17.52
-23.35
-30.40
-38.03
-44.98
-49.69
-50.66
-46.93
-38.43
-26.09
-11.53
3.28
16.57
27.06
34.08
37.50
37.61
34.90
30.12
24.14
17.97
12.62
8.93
7.32
7.75
9.63
12.08
14.15
15.16
14.88
13.53
11.66
9.79
8.19
6.75
5.02
2.57
-0.80
-4.84
-8.95
-12.52
-15.14
-16.93
-18.36
-20.12
-22.85
-26.95
-32.44
-38.99
-45.83
-51.78
-55.40
-55.29
-50.50
-40.88
-27.26
-11.29
5.03
19.86
31.95
40.70
46.06
48.41
48.21
46.02
42.49
38.35
34.41
31.41
29.81
29.62
30.40
31.36
31.77
31.10
29.19
26.25
22.65
18.74
14.73
10.66
6.41
1.82
-3.25
-8.84
-14.82
-20.90
-26.70
-31.84
-36.13
-39.67
-42.80
-45.99
-49.80
-54.63
-60.65
-67.57
-74.56
-80.17
-82.67
-80.44
-72.64
-59.53
-42.46
-23.59
-5.13
11.06
23.88
32.88
38.13
39.99
38.99
35.89
31.60
27.20
23.69
21.87
22.12
24.32
27.88
31.90
35.46
37.83
38.73
38.27
36.85
34.84
32.38
29.38
25.59
20.94
15.58
10.00
4.73
0.14
-3.76
-7.23
-10.70
-14.63
-19.34
-25.13
-32.23
-40.67
-50.06
-59.39
-66.95
-70.78
-69.31
-61.98
-49.60
-34.07
-17.80
-2.93
9.23
18.17
24.04
27.15
27.80
26.28
23.09
19.08
15.36
13.12
13.16
15.65
20.09
25.51
30.83
35.29
38.47
40.39
41.29
41.38
40.75
39.27
36.76
33.16
28.67
23.60
18.37
13.29
8.49
3.94
-0.49
-4.92
-9.54
-14.52
-20.12
-26.62
-34.09
-42.15
-49.78
-55.46
-57.54
-54.74
-46.67
-34.06
-18.58
-2.37
12.56
24.78
33.63
39.09
41.47
41.21
38.77
34.67
29.72
24.93
21.37
19.89
20.73
23.48
27.27
31.05
34.06
35.97
36.89
37.15
37.00
36.45
35.30
33.29
30.32
26.56
22.55
18.97
16.44
15.23
15.03
14.96
13.73
9.98
2.69
-8.51
-23.08
-39.63
-56.05
-69.95
-79.18
-82.38
-79.30
-70.84
-58.76
-45.18
-32.05
-20.75
-12.04
-6.03
-2.45
-0.87
-0.77
-1.63
-2.97
-4.25
-4.94
-4.58
-2.94
-0.11
3.42
6.93
9.71
11.35
11.81
11.33
10.31
9.00
7.43
5.42
2.84
-0.34
-3.96
-7.78
-11.54
-15.10
-18.48
-21.66
-24.71
-27.66
-30.63
-33.89
-37.95
-43.36
-50.36
-58.53
-66.54
-72.37
-73.80
-69.22
-58.25
-41.98
-22.65
-2.92
14.87
29.19
39.47
45.87
48.92
49.30
47.68
44.75
41.18
37.66
34.83
33.13
32.75
33.55
35.04
36.58
37.49
37.38
36.20
34.22
31.89
29.50
27.06
24.34
20.91
16.49
11.11
5.07
-1.06
-6.74
-11.54
-15.40
-18.54
-21.43
-24.69
-28.86
-34.41
-41.39
-49.36
-57.21
-63.28
-65.61
-62.57
-53.39
-38.55
-19.74
0.61
20.01
36.54
49.10
57.45
61.79
62.60
60.44
56.04
50.37
44.59
39.92
37.29
37.11
39.10
42.46
46.11
49.14
51.03
51.80
51.82
51.51
51.12
50.53
49.35
47.12
43.56
38.74
33.03
27.10
21.62
17.07
13.59
10.80
7.98
4.20
-1.39
-9.17
-18.86
-29.41
-39.22
-46.38
-49.12
-46.36
-37.98
-24.94
-9.04
7.52
22.85
35.69
45.60
52.63
56.90
58.38
56.77
51.88
43.91
33.64
22.27
11.08
1.00
-7.61
-14.81
-20.92
-26.21
-30.76
-34.45
-37.13
-38.72
-39.23
-38.92
-38.05
-37.04
-36.18
-35.67
-35.58
-35.93
-36.74
-38.07
-40.09
-43.06
-47.30
-53.12
-60.63
-69.61
-79.26
-88.19
-94.55
-96.58
-93.14
-84.16
-70.71
-54.60
-37.88
-22.28
-9.03
1.09
7.56
10.13
8.79
4.11
-2.69
-9.94
-15.87
-19.12
-19.13
-16.17
-11.18
-5.37
0.21
4.90
8.50
11.07
12.76
13.57
13.36
11.87
8.92
4.56
-0.85
-6.76
-12.53
-17.66
-21.88
-25.35
-28.56
-32.31
-37.40
-44.40
-53.36
-63.55
-73.51
-81.18
-84.47
-81.71
-72.33
-56.97
-37.38
-15.89
5.17
23.97
39.35
50.76
58.06
61.34
61.06
57.99
53.33
48.42
44.53
42.45
42.40
44.03
46.56
49.15
51.04
51.80
51.29
49.61
46.93
43.38
38.94
33.50
27.07
19.80
12.16
4.69
-2.06
-7.85
-12.75
-17.25
-22.03
-27.82
-35.20
-44.27
-54.48
-64.48
-72.35
-75.98
-73.74
-65.02
-50.51
-32.01
-11.94
7.40
24.22
37.49
46.80
52.14
53.76
52.14
48.04
42.56
37.01
32.57
30.04
29.62
30.92
33.12
35.37
37.05
37.95
38.21
38.08
37.69
36.89
35.27
32.39
28.03
22.36
15.96
9.57
3.88
-0.85
-4.73
-8.26
-12.05
-16.68
-22.58
-29.91
-38.47
-47.47
-55.54
-60.85
-61.57
-56.48
-45.51
-29.86
-11.70
6.50
22.72
35.73
45.05
50.72
52.86
51.65
47.48
41.19
34.11
27.85
23.80
22.68
24.33
27.86
32.06
35.92
38.89
40.87
41.95
42.17
41.28
38.82
34.36
27.75
19.26
9.64
-0.16
-9.15
-16.62
-22.36
-26.67
-30.34
-34.44
-40.07
-48.01
-58.38
-70.51
-82.85
-93.20
-99.18
-98.76
-90.90
-75.96
-55.63
-32.57
-9.67
10.66
26.94
38.62
45.89
49.22
49.24
46.62
42.34
37.57
33.59
31.39
31.36
33.10
35.65
37.92
39.13
39.06
38.01
36.53
35.06
33.62
31.75
28.72
23.83
16.83
8.09
-1.45
-10.65
-18.65
-25.19
-30.70
-36.04
-42.16
-49.68
-58.68
-68.63
-78.32
-86.02
-89.71
-87.56
-78.48
-62.61
-41.48
-17.69
5.81
26.44
42.54
53.52
59.67
61.79
60.89
58.10
54.54
51.31
49.34
49.15
50.70
53.33
56.00
57.59
57.33
55.04
51.11
46.27
41.20
36.28
31.36
26.04
19.86
12.64
4.69
-3.32
-10.58
-16.56
-21.26
-25.27
-29.61
-35.37
-43.35
-53.75
-66.01
-78.73
-89.87
-97.05
-98.07
-91.59
-77.52
-57.17
-32.98
-7.78
15.82
35.97
51.65
62.41
68.18
69.04
65.48
58.50
49.73
41.21
34.90
32.07
32.95
36.65
41.57
45.94
48.50
48.68
46.62
42.89
38.12
32.82
27.24
21.51
15.75
10.16
5.04
0.59
-3.12
-6.32
-9.49
-13.27
-18.32
-25.16
-34.03
-44.72
-56.46
-67.88
-77.10
-82.13
-81.37
-74.16
-61.07
-43.85
-24.90
-6.65
8.97
20.83
28.53
32.19
32.18
29.08
23.74
17.31
11.18
6.72
4.91
6.04
9.66
14.75
20.08
24.63
27.80
29.43
29.65
28.61
26.36
22.82
17.96
11.89
5.03
-2.00
-8.57
-14.22
-18.86
-22.75
-26.52
-30.88
-36.47
-43.54
-51.77
-60.10
-66.92
-70.35
-68.76
-61.34
-48.34
-31.21
-12.14
6.44
22.53
34.82
42.78
46.47
46.32
43.00
37.33
30.42
23.51
17.84
14.35
13.44
14.82
17.65
20.90
23.63
25.27
25.60
24.69
22.66
19.57
15.39
10.18
4.19
-2.11
-8.16
-13.52
-18.11
-22.22
-26.40
-31.31
-37.49
-45.19
-54.20
-63.66
-72.07
-77.46
-77.97
-72.33
-60.52
-43.74
-24.14
-4.14
14.24
29.74
41.74
50.03
54.55
55.39
52.94
48.07
42.09
36.46
32.35
30.38
30.41
31.80
33.69
35.40
36.55
37.06
37.00
36.35
34.99
32.60
28.97
24.06
18.10
11.60
5.16
-0.74
-5.89
-10.47
-14.98
-20.14
-26.67
-35.04
-45.19
-56.34
-66.85
-74.47
-76.87
-72.44
-60.89
-43.48
-22.71
-1.51
17.59
33.00
44.15
51.18
54.54
54.71
52.17
47.54
41.74
35.92
31.22
28.49
28.00
29.37
31.74
34.04
35.40
35.46
34.33
32.51
30.45
28.32
25.88
22.66
18.25
12.54
5.85
-1.20
-7.93
-13.87
-18.92
-23.29
-27.44
-31.82
-36.87
-42.89
-50.15
-58.70
-68.16
-77.47
-84.80
-87.94
-84.88
-74.60
-57.56
-35.68
-11.73
11.45
31.71
47.91
59.68
67.25
70.91
71.01
68.06
62.87
56.54
50.35
45.44
42.37
41.10
40.95
40.99
40.42
38.79
36.16
32.89
29.42
25.95
22.39
18.35
13.39
7.20
-0.27
-8.69
-17.57
-26.35
-34.60
-42.14
-48.99
-55.39
-61.60
-67.92
-74.55
-81.43
-88.07
-93.44
-95.97
-93.95
-86.07
-72.00
-52.67
-30.14
-7.03
14.20
31.77
44.79
53.11
56.97
56.88
53.50
47.75
40.88
34.29
29.28
26.60
26.33
27.84
30.12
32.16
33.26
33.17
31.96
29.86
26.92
23.09
18.13
12.02
5.00
-2.33
-9.16
-14.80
-18.95
-21.78
-23.91
-26.21
-29.50
-34.28
-40.53
-47.54
-53.91
-57.83
-57.54
-51.90
-40.81
-25.34
-7.33
11.04
27.93
42.06
52.72
59.67
62.90
62.65
59.45
54.23
48.12
42.32
37.75
34.94
33.94
34.42
35.94
38.00
40.19
42.16
43.57
44.02
43.04
40.12
34.88
27.27
17.62
6.62
-4.87
-16.09
-26.59
-36.28
-45.41
-54.44
-63.88
-74.05
-84.89
-95.61
-104.70
-110.04
-109.56
-101.92
-87.23
-67.11
-44.28
-21.79
-2.13
13.26
24.02
30.52
33.45
33.51
31.39
27.91
24.01
20.80
19.19
19.71
22.23
26.03
30.07
33.40
35.46
36.19
35.85
34.77
33.04
30.43
26.51
21.00
13.94
5.88
-2.34
-9.80
-15.92
-20.64
-24.51
-28.49
-33.65
-40.76
-49.91
-60.24
-70.05
-77.07
-79.12
-74.72
-63.65
-46.99
-26.93
-6.04
13.28
29.28
41.07
48.45
51.61
51.05
47.45
41.79
35.30
29.38
25.18
23.35
23.85
25.99
28.69
30.94
32.00
31.64
30.10
27.79
25.12
22.27
19.09
15.20
10.28
4.28
-2.42
-9.11
-15.02
-19.68
-23.13
-25.84
-28.56
-32.06
-37.01
-43.78
-52.36
-62.09
-71.56
-78.70
-81.24
-77.44
-66.71
-49.98
-29.40
-7.77
12.33
29.06
41.48
49.39
53.04
52.92
49.67
44.16
37.52
31.07
26.07
23.42
23.39
25.46
28.55
31.41
33.05
33.10
31.78
29.67
27.34
25.05
22.59
19.58
15.66
10.76
5.21
-0.41
-5.54
-9.85
-13.39
-16.58
-20.01
-24.31
-29.94
-37.15
-45.82
-55.35
-64.54
-71.66
-74.71
-72.04
-62.91
-47.90
-28.83
-8.25
11.29
27.88
40.50
48.91
53.22
53.78
50.98
45.50
38.41
31.11
25.14
21.66
21.09
22.97
26.16
29.29
31.26
31.62
30.54
28.51
26.01
23.17
19.80
15.60
10.42
4.42
-1.87
-7.89
-13.17
-17.58
-21.31
-24.75
-28.38
-32.63
-37.93
-44.53
-52.38
-60.86
-68.67
-74.01
-74.97
-70.18
-59.36
-43.50
-24.62
-5.20
12.55
27.14
37.88
44.67
47.76
47.48
44.27
38.83
32.23
25.85
21.04
18.69
18.97
21.18
24.13
26.60
27.77
27.41
25.81
23.43
20.60
17.33
13.39
8.52
2.65
-3.96
-10.79
-17.29
-23.03
-27.89
-32.00
-35.76
-39.65
-44.19
-49.90
-57.12
-65.74
-74.99
-83.28
-88.42
-88.29
-81.52
-68.13
-49.57
-28.34
-7.17
11.70
26.88
37.88
44.76
47.88
47.63
44.65
39.83
34.40
29.73
26.96
26.63
28.49
31.59
34.74
36.93
37.72
37.22
35.88
34.05
31.78
28.76
24.56
18.95
12.09
4.57
-2.79
-9.31
-14.65
-18.94
-22.66
-26.44
-30.95
-36.72
-44.01
-52.70
-62.04
-70.62
-76.48
-77.57
-72.38
-60.57
-43.14
-22.25
-0.59
19.33
35.78
47.89
55.51
58.86
58.37
54.63
48.52
41.24
34.21
28.76
25.71
25.18
26.56
28.84
30.98
32.27
32.52
31.99
31.08
30.07
28.87
27.04
24.02
19.45
13.42
6.51
-0.41
-6.59
-11.72
-16.05
-20.30
-25.36
-32.00
-40.50
-50.55
-61.08
-70.40
-76.48
-77.43
-72.14
-60.67
-44.37
-25.43
-6.35
10.81
24.75
34.86
41.00
43.27
41.98
37.74
31.58
24.95
19.35
15.96
15.23
16.85
19.84
23.03
25.45
26.62
26.53
25.48
23.80
21.55
18.53
14.40
9.05
2.73
-3.89
-9.98
-14.95
-18.73
-21.86
-25.30
-30.04
-36.73
-45.37
-55.18
-64.64
-71.78
-74.61
-71.68
-62.53
-47.87
-29.46
-9.62
9.27
25.37
37.53
45.33
48.86
48.55
45.11
39.52
32.97
26.71
21.87
19.13
18.57
19.69
21.65
23.55
24.77
25.07
24.50
23.18
21.16
18.29
14.39
9.38
3.45
-3.00
-9.37
-15.15
-20.07
-24.22
-28.13
-32.57
-38.35
-45.93
-55.10
-64.77
-73.10
-77.91
-77.25
-70.02
-56.41
-37.87
-16.72
4.40
23.16
37.99
48.18
53.74
55.12
53.00
48.26
41.94
35.26
29.54
25.81
24.50
25.31
27.29
29.29
30.43
30.37
29.33
27.68
25.68
23.13
19.62
14.78
8.58
1.47
-5.80
-12.47
-18.08
-22.69
-26.87
-31.50
-37.49
-45.43
-55.20
-65.80
-75.35
-81.51
-82.15
-76.00
-63.21
-45.25
-24.52
-3.61
15.28
30.74
42.17
49.46
52.85
52.72
49.69
44.67
38.89
33.62
29.91
28.23
28.42
29.81
31.49
32.69
33.01
32.45
31.24
29.64
27.66
25.09
21.59
16.94
11.21
4.82
-1.58
-7.33
-12.04
-15.77
-19.07
-22.86
-28.12
-35.53
-45.02
-55.54
-65.15
-71.43
-72.21
-66.24
-53.68
-36.06
-15.79
4.49
22.57
37.09
47.49
53.79
56.33
55.58
52.15
46.92
40.95
35.46
31.49
29.65
29.94
31.75
34.15
36.23
37.43
37.60
36.90
35.56
33.63
30.91
27.11
22.00
15.70
8.62
1.40
-5.34
-11.21
-16.21
-20.63
-25.01
-30.07
-36.37
-44.18
-53.12
-61.98
-68.91
-71.80
-69.01
-59.93
-45.40
-27.39
-8.50
8.89
23.13
33.48
39.89
42.70
42.30
39.15
33.92
27.62
21.48
16.70
14.03
13.57
14.74
16.66
18.52
19.87
20.61
20.79
20.41
19.31
17.17
13.78
9.16
3.62
-2.33
-8.17
-13.54
-18.37
-22.85
-27.42
-32.61
-38.96
-46.75
-55.83
-65.30
-73.60
-78.71
-78.74
-72.56
-60.28
-43.28
-23.82
-4.40
12.88
26.61
36.15
41.40
42.60
40.29
35.32
28.85
22.26
16.87
13.59
12.76
14.00
16.49
19.30
21.64
23.14
23.77
23.67
22.94
21.50
19.11
15.48
10.50
4.41
-2.24
-8.73
-14.41
-18.98
-22.60
-25.91
-29.76
-34.97
-41.97
-50.50
-59.51
-67.28
-71.73
-71.04
-64.22
-51.46
-34.16
-14.59
4.79
21.91
35.50
45.03
50.61
52.57
51.39
47.72
42.46
36.74
31.79
28.57
27.48
28.29
30.25
32.40
33.99
34.71
34.68
34.17
33.37
32.14
30.10
26.77
21.94
15.81
9.03
2.47
-3.05
-7.09
-9.74
-11.65
-13.88
-17.60
-23.71
-32.42
-42.95
-53.52
-61.78
-65.41
-62.96
-54.28
-40.59
-24.05
-7.07
8.32
20.89
30.16
36.13
39.10
39.43
37.59
34.26
30.35
26.93
24.97
25.03
27.08
30.62
34.78
38.75
41.96
44.23
45.64
46.37
46.44
45.65
43.62
40.03
34.90
28.69
22.25
16.47
11.91
8.42
5.15
0.79
-5.89
-15.54
-27.98
-42.16
-56.42
-68.90
-77.93
-82.37
-81.72
-76.23
-66.80
-54.75
-41.62
-28.84
-17.57
-8.56
-2.14
1.67
3.10
2.63
0.91
-1.20
-2.80
-3.16
-1.96
0.66
4.12
7.72
10.86
13.27
14.98
16.12
16.75
16.70
15.66
13.38
9.91
5.63
1.14
-2.93
-6.21
-8.71
-10.84
-13.26
-16.69
-21.71
-28.61
-37.26
-46.93
-56.25
-63.36
-66.25
-63.44
-54.49
-40.32
-23.03
-5.17
10.93
23.76
32.70
37.80
39.32
37.59
33.06
26.44
18.77
11.27
4.99
0.51
-2.20
-3.61
-4.37
-4.97
-5.75
-6.95
-8.84
-11.78
-16.14
-22.18
-29.84
-38.78
-48.40
-58.06
-67.21
-75.57
-83.08
-89.93
-96.45
-103.04
-110.02
-117.39
-124.59
-130.40
-133.04
-130.66
-121.92
-106.52
-85.39
-60.52
-34.36
-9.15
13.38
32.17
46.69
56.76
62.60
64.88
64.74
63.70
63.27
64.60
68.14
73.69
80.58
87.99
95.14
101.38
106.17
108.91
109.10
106.37
100.73
92.53
82.51
71.59
60.63
50.25
40.66
31.66
22.64
12.79
1.28
-12.32
-27.65
-43.45
-57.56
-67.48
-71.11
-67.41
-56.83
-41.20
-23.11
-5.22
10.38
22.47
30.55
34.71
35.34
33.09
28.83
23.62
18.57
14.57
12.19
11.51
12.30
14.08
16.35
18.65
20.54
21.65
21.65
20.33
17.61
13.67
8.85
3.60
-1.63
-6.54
-11.07
-15.36
-19.78
-24.81
-30.97
-38.62
-47.70
-57.56
-66.77
-73.31
-75.12
-70.67
-59.60
-42.97
-22.94
-2.26
16.63
32.00
43.09
49.85
52.65
52.01
48.59
43.27
37.24
31.83
28.19
26.91
27.82
29.97
32.13
33.29
33.04
31.61
29.58
27.39
25.10
22.31
18.51
13.45
7.36
0.89
-5.16
-10.24
-14.27
-17.66
-21.08
-25.30
-30.90
-38.12
-46.74
-55.88
-64.05
-69.31
-69.80
-64.28
-52.71
-36.31
-17.29
1.79
18.68
31.87
40.67
45.05
45.35
42.21
36.58
29.67
22.88
17.51
14.41
13.77
15.18
17.82
20.82
23.51
25.53
26.72
27.04
26.34
24.49
21.30
16.76
11.07
4.68
-1.84
-7.92
-13.20
-17.66
-21.69
-25.99
-31.38
-38.48
-47.31
-57.00
-65.80
-71.38
-71.59
-65.13
-52.13
-34.16
-13.80
6.15
23.37
36.47
45.03
49.28
49.79
47.29
42.62
36.77
30.81
25.75
22.35
20.88
21.10
22.40
24.04
25.37
25.97
25.67
24.37
22.05
18.66
14.23
8.90
3.06
-2.80
-8.20
-12.86
-16.84
-20.50
-24.45
-29.39
-35.89
-44.14
-53.68
-63.32
-71.09
-74.78
-72.55
-63.66
-48.82
-30.03
-9.96
8.87
24.69
36.69
44.69
48.91
49.65
47.36
42.75
36.94
31.22
26.77
24.31
23.85
24.83
26.36
27.61
28.11
27.76
26.76
25.33
23.56
21.21
17.95
13.52
7.98
1.78
-4.37
-9.77
-14.11
-17.57
-20.83
-24.79
-30.26
-37.68
-46.85
-56.76
-65.74
-71.73
-72.77
-67.67
-56.37
-40.13
-21.15
-1.94
15.29
29.07
38.75
44.34
46.19
44.90
41.27
36.29
31.14
26.98
24.67
24.60
26.54
29.75
33.21
35.94
37.27
37.05
35.61
33.52
31.30
29.08
26.60
23.36
18.89
13.11
6.38
-0.58
-7.02
-12.47
-16.90
-20.67
-24.41
-28.75
-34.23
-41.16
-49.50
-58.72
-67.67
-74.61
-77.55
-74.77
-65.55
-50.40
-31.12
-10.27
9.52
26.18
38.48
46.06
49.11
48.23
44.26
38.32
31.75
25.90
21.91
20.33
21.01
23.18
25.72
27.64
28.33
27.72
26.14
24.03
21.69
19.09
15.92
11.80
6.54
0.31
-6.33
-12.63
-17.91
-21.86
-24.64
-26.85
-29.38
-33.07
-38.53
-45.74
-53.93
-61.64
-66.91
-67.85
-63.16
-52.65
-37.33
-19.20
-0.61
16.29
29.99
39.74
45.39
47.18
45.61
41.37
35.43
28.99
23.37
19.62
18.30
19.30
21.88
25.00
27.68
29.31
29.68
28.88
27.03
24.23
20.38
15.43
9.50
2.94
-3.71
-9.84
-15.02
-19.10
-22.31
-25.28
-28.86
-33.95
-41.03
-49.76
-58.81
-66.00
-68.91
-65.63
-55.51
-39.42
-19.46
1.77
21.84
39.10
52.67
62.28
67.99
70.00
68.81
65.21
60.40
55.79
52.66
51.92
53.88
58.32
64.48
71.37
77.79
82.51
84.42
82.68
76.88
67.08
53.71
37.47
19.18
-0.26
-19.87
-38.61
-55.50
-69.81
-81.19
-89.89
-96.58
-102.25
-107.85
-113.97
-120.41
-126.08
-129.06
-127.23
-118.95
-103.84
-83.02
-58.92
-34.45
-12.19
6.21
20.19
29.94
35.96
38.70
38.58
36.12
32.17
27.88
24.52
23.11
24.07
27.06
31.11
34.97
37.59
38.43
37.58
35.55
32.91
30.00
26.71
22.72
17.70
11.67
5.04
-1.58
-7.57
-12.65
-16.87
-20.69
-24.65
-29.29
-35.06
-42.23
-50.78
-60.14
-69.11
-75.83
-78.26
-74.76
-64.80
-49.18
-29.89
-9.47
9.69
25.88
38.21
46.41
50.59
51.09
48.47
43.62
37.79
32.34
28.41
26.60
26.80
28.36
30.33
31.84
32.41
31.94
30.66
28.90
26.88
24.53
21.56
17.68
12.78
7.05
0.99
-4.83
-9.96
-14.31
-18.08
-21.73
-25.85
-30.97
-37.50
-45.49
-54.43
-63.12
-69.72
-72.16
-68.81
-59.10
-43.85
-25.06
-5.29
13.10
28.45
39.96
47.44
51.03
51.03
47.91
42.45
35.86
29.53
24.67
21.95
21.31
22.09
23.37
24.36
24.68
24.29
23.37
22.04
20.21
17.63
13.98
9.09
3.13
-3.40
-9.84
-15.47
-19.94
-23.31
-26.14
-29.25
-33.55
-39.66
-47.61
-56.70
-65.44
-71.81
-73.80
-69.95
-59.90
-44.58
-25.93
-6.38
11.82
27.01
38.35
45.57
48.79
48.30
44.61
38.57
31.36
24.48
19.35
16.90
17.31
19.92
23.48
26.67
28.56
28.86
27.95
26.40
24.71
22.86
20.46
16.93
11.90
5.47
-1.75
-8.86
-15.08
-20.06
-24.00
-27.62
-31.81
-37.41
-44.89
-54.21
-64.70
-74.99
-83.18
-87.12
-85.00
-75.93
-60.42
-40.27
-18.16
3.20
21.67
36.03
45.89
51.35
52.83
50.89
46.42
40.64
34.94
30.63
28.52
28.77
30.81
33.72
36.42
38.12
38.42
37.36
35.29
32.59
29.53
26.09
22.03
17.05
11.06
4.27
-2.74
-9.25
-14.74
-19.02
-22.42
-25.57
-29.24
-34.14
-40.73
-49.05
-58.47
-67.74
-74.94
-77.97
-75.10
-65.65
-50.30
-30.99
-10.34
9.16
25.69
38.34
46.87
51.40
52.17
49.59
44.40
37.87
31.54
26.88
24.83
25.43
27.95
31.22
34.10
35.92
36.46
35.92
34.58
32.60
29.97
26.52
22.07
16.56
10.15
3.25
-3.60
-9.84
-15.14
-19.53
-23.42
-27.50
-32.49
-38.89
-46.70
-55.42
-63.92
-70.65
-73.95
-72.40
-65.26
-52.80
-36.27
-17.61
0.96
17.53
30.77
40.03
45.16
46.41
44.26
39.47
33.13
26.58
21.13
17.75
16.77
17.83
20.10
22.63
24.65
25.84
26.22
25.87
24.83
22.92
19.92
15.64
10.16
3.87
-2.62
-8.67
-13.81
-17.89
-21.27
-24.63
-28.93
-34.95
-42.94
-52.28
-61.42
-68.18
-70.36
-66.44
-56.12
-40.46
-21.54
-1.86
16.34
31.46
42.67
49.77
52.90
52.44
48.97
43.41
37.04
31.28
27.43
26.25
27.77
31.24
35.51
39.40
42.13
43.46
43.61
43.02
42.00
40.58
38.53
35.58
31.57
26.67
21.31
16.06
11.47
7.95
5.56
4.02
2.65
0.46
-3.53
-9.83
-18.17
-27.30
-35.29
-40.16
-40.59
-36.45
-28.90
-19.98
-11.96
-6.71
-5.26
-7.66
-13.22
-20.71
-28.72
-35.88
-41.03
-43.34
-42.30
-37.91
-30.68
-21.66
-12.21
-3.79
2.55
6.34
7.85
7.79
7.00
5.99
4.84
3.24
0.80
-2.68
-7.07
-11.97
-16.90
-21.45
-25.52
-29.28
-33.07
-37.41
-42.86
-49.86
-58.47
-68.09
-77.33
-84.08
-86.08
-81.61
-70.13
-52.60
-31.19
-8.68
12.28
29.77
42.80
51.10
54.94
54.90
51.74
46.48
40.33
34.58
30.33
28.25
28.37
30.13
32.56
34.64
35.63
35.30
33.87
31.81
29.49
27.01
24.10
20.40
15.62
9.83
3.41
-3.04
-8.98
-14.14
-18.59
-22.65
-26.83
-31.71
-37.76
-45.27
-54.03
-63.19
-71.19
-76.02
-75.78
-69.27
-56.55
-38.98
-18.82
1.41
19.59
34.35
45.04
51.47
53.73
52.13
47.35
40.50
33.15
26.94
23.12
22.17
23.66
26.52
29.47
31.55
32.34
31.99
30.93
29.54
27.88
25.66
22.45
17.95
12.27
5.92
-0.34
-5.81
-10.19
-13.64
-16.70
-20.08
-24.44
-30.21
-37.59
-46.34
-55.69
-64.26
-70.21
-71.64
-67.18
-56.57
-40.80
-21.85
-2.21
15.84
30.60
41.11
47.07
48.63
46.31
40.99
33.85
26.26
19.55
14.77
12.43
12.45
14.20
16.79
19.32
21.13
21.95
21.81
20.86
19.18
16.64
12.95
7.98
1.86
-4.84
-11.37
-17.06
-21.66
-25.51
-29.38
-34.22
-40.76
-49.22
-59.09
-69.15
-77.64
-82.52
-82.06
-75.25
-62.22
-44.29
-23.66
-2.88
15.81
30.90
41.67
48.06
50.34
48.99
44.66
38.27
31.05
24.41
19.59
17.35
17.72
20.04
23.22
26.17
28.15
28.87
28.41
27.01
24.82
21.79
17.71
12.42
6.00
-1.12
-8.27
-14.75
-20.11
-24.34
-27.88
-31.55
-36.23
-42.62
-50.98
-60.90
-71.24
-80.16
-85.47
-85.20
-78.20
-64.57
-45.79
-24.31
-2.85
16.27
31.59
42.56
49.28
52.10
51.44
47.91
42.39
36.21
30.82
27.47
26.73
28.32
31.21
34.15
36.09
36.61
35.87
34.34
32.42
30.18
27.36
23.55
18.43
12.02
4.75
-2.67
-9.49
-15.20
-19.70
-23.42
-27.09
-31.61
-37.68
-45.51
-54.56
-63.47
-70.26
-72.77
-69.37
-59.42
-43.67
-24.01
-3.02
16.77
33.46
45.98
54.03
57.80
57.73
54.49
49.03
42.63
36.73
32.62
31.02
31.92
34.54
37.78
40.57
42.29
42.82
42.47
41.64
40.59
39.33
37.55
34.89
31.08
26.12
20.40
14.61
9.55
5.75
3.26
1.51
-0.47
-3.81
-9.30
-17.00
-26.07
-34.73
-40.59
-41.21
-34.79
-20.85
-0.64
23.03
46.45
66.02
79.20
85.01
83.93
77.26
66.43
52.37
35.60
16.55
-3.91
-24.21
-42.23
-55.90
-63.84
-65.82
-62.75
-56.20
-47.91
-39.32
-31.40
-24.80
-20.07
-17.66
-17.87
-20.60
-25.18
-30.60
-35.68
-39.64
-42.25
-44.00
-45.83
-48.85
-53.84
-60.96
-69.46
-77.68
-83.34
-84.20
-78.78
-66.84
-49.61
-29.39
-8.84
9.72
24.79
35.74
42.58
45.71
45.66
43.15
39.14
34.78
31.19
29.18
28.96
30.14
31.92
33.47
34.36
34.59
34.50
34.37
34.21
33.60
31.93
28.76
23.95
17.87
11.15
4.41
-1.95
-7.92
-13.87
-20.45
-28.36
-38.12
-49.75
-62.49
-74.78
-84.48
-89.37
-87.90
-79.59
-65.33
-47.09
-27.39
-8.60
7.51
19.95
28.40
32.97
33.98
32.03
28.03
23.22
19.00
16.54
16.43
18.48
21.83
25.39
28.29
30.13
30.97
31.01
30.31
28.69
25.83
21.47
15.68
8.89
1.81
-4.85
-10.60
-15.32
-19.36
-23.43
-28.46
-35.25
-44.08
-54.29
-64.21
-71.48
-73.64
-69.07
-57.47
-40.16
-19.56
1.43
20.32
35.51
46.36
52.95
55.67
55.06
51.75
46.68
41.02
36.09
32.99
32.26
33.64
36.29
39.10
41.13
41.92
41.51
40.23
38.39
36.11
33.18
29.26
24.11
17.69
10.33
2.57
-5.04
-12.15
-18.73
-25.01
-31.37
-38.21
-45.81
-54.17
-62.82
-70.72
-76.27
-77.62
-73.23
-62.46
-45.97
-25.65
-4.09
16.18
33.24
46.11
54.55
58.76
59.13
56.22
50.79
43.96
37.06
31.38
27.80
26.51
27.04
28.43
29.64
29.92
28.98
26.98
24.33
21.38
18.23
14.73
10.53
5.43
-0.53
-6.91
-13.03
-18.24
-22.19
-25.03
-27.40
-30.18
-34.22
-40.06
-47.64
-56.32
-64.80
-71.46
-74.53
-72.58
-64.93
-51.86
-34.65
-15.28
4.02
21.27
35.06
44.65
49.81
50.79
48.22
43.09
36.78
30.79
26.44
24.49
24.89
26.89
29.43
31.59
32.89
33.36
33.19
32.46
30.96
28.24
23.92
17.92
10.63
2.70
-5.12
-12.27
-18.56
-24.14
-29.44
-35.08
-41.67
-49.74
-59.40
-70.11
-80.55
-88.75
-92.56
-90.32
-81.42
-66.60
-47.72
-27.26
-7.65
9.27
22.42
31.36
36.11
37.03
34.70
30.08
24.49
19.45
16.34
15.97
18.36
22.70
27.68
32.03
34.91
36.17
36.18
35.49
34.47
33.09
30.99
27.76
23.31
17.95
12.33
7.14
2.78
-0.82
-4.17
-8.07
-13.28
-20.36
-29.36
-39.61
-49.74
-57.73
-61.38
-58.94
-49.76
-34.62
-15.62
4.42
22.81
37.62
48.00
54.01
56.11
54.92
50.96
44.87
37.55
30.26
24.32
20.77
19.95
21.36
23.90
26.26
27.42
26.96
25.07
22.37
19.48
16.80
14.32
11.71
8.53
4.51
-0.34
-5.67
-10.98
-15.82
-20.01
-23.69
-27.33
-31.53
-36.92
-43.93
-52.61
-62.45
-72.20
-79.99
-83.73
-81.62
-72.82
-57.82
-38.43
-17.31
2.77
19.61
32.03
39.87
43.69
44.31
42.57
39.14
34.71
30.06
26.09
23.65
23.27
24.86
27.73
30.79
32.98
33.60
32.55
30.21
27.16
23.95
20.84
17.79
14.55
10.83
6.46
1.48
-3.83
-9.06
-13.79
-17.79
-21.09
-23.96
-26.88
-30.34
-34.81
-40.63
-47.99
-56.63
-65.69
-73.57
-78.16
-77.39
-70.01
-56.15
-37.43
-16.46
3.99
21.74
35.61
45.32
51.04
53.13
51.94
47.97
42.10
35.60
29.98
26.50
25.79
27.66
31.14
34.94
37.87
39.25
39.00
37.56
35.56
33.50
31.52
29.41
26.73
23.11
18.44
12.94
7.13
1.54
-3.44
-7.73
-11.54
-15.31
-19.57
-24.78
-31.22
-38.87
-47.27
-55.37
-61.68
-64.47
-62.30
-54.51
-41.55
-24.91
-6.70
10.92
26.19
38.05
45.98
49.86
49.82
46.21
39.73
31.56
23.23
16.29
11.94
10.60
11.85
14.63
17.60
19.66
20.24
19.37
17.48
15.05
12.36
9.37
5.82
1.49
-3.55
-8.97
-14.23
-18.89
-22.77
-26.06
-29.22
-32.81
-37.45
-43.58
-51.46
-60.92
-71.18
-80.70
-87.39
-89.05
-84.16
-72.48
-55.19
-34.62
-13.48
5.84
21.79
33.66
41.36
45.11
45.30
42.47
37.49
31.51
25.87
21.76
19.96
20.57
23.01
26.24
29.13
30.75
30.74
29.27
26.89
24.20
21.48
18.63
15.27
10.94
5.48
-0.88
-7.54
-13.78
-19.04
-23.13
-26.32
-29.20
-32.58
-37.23
-43.68
-51.94
-61.34
-70.43
-77.25
-79.72
-76.28
-66.40
-50.88
-31.61
-11.06
8.35
24.81
37.28
45.40
49.28
49.30
46.08
40.52
33.84
27.45
22.64
20.23
20.36
22.46
25.48
28.30
30.09
30.52
29.71
28.10
26.13
24.01
21.59
18.53
14.40
9.00
2.53
-4.45
-11.15
-16.80
-21.06
-24.01
-26.26
-28.72
-32.36
-37.88
-45.42
-54.32
-63.06
-69.50
-71.34
-66.88
-55.60
-38.47
-17.67
3.94
23.69
39.63
50.85
57.32
59.50
58.11
53.88
47.70
40.59
33.71
28.24
25.00
24.24
25.46
27.69
29.79
30.89
30.65
29.32
27.43
25.43
23.44
21.12
17.93
13.43
7.60
0.87
-6.00
-12.30
-17.67
-22.21
-26.38
-30.78
-35.92
-42.18
-49.67
-58.21
-67.10
-75.04
-80.16
-80.49
-74.61
-62.31
-44.79
-24.39
-3.87
14.36
28.78
38.76
44.39
46.05
44.29
39.86
33.75
27.19
21.46
17.59
16.05
16.69
18.78
21.36
23.55
24.77
24.88
24.06
22.59
20.61
18.08
14.76
10.48
5.27
-0.48
-6.17
-11.19
-15.19
-18.22
-20.75
-23.51
-27.32
-32.81
-40.22
-49.12
-58.29
-65.78
-69.34
-67.01
-57.91
-42.59
-23.02
-1.97
17.75
34.05
45.86
53.06
56.09
55.63
52.46
47.44
41.58
35.93
31.52
29.00
28.48
29.55
31.38
33.06
33.88
33.60
32.37
30.60
28.66
26.64
24.28
21.13
16.86
11.44
5.24
-1.12
-7.01
-12.09
-16.38
-20.33
-24.62
-29.99
-37.00
-45.72
-55.57
-65.12
-72.36
-75.16
-71.88
-62.08
-46.68
-27.80
-8.08
10.02
24.82
35.51
42.03
44.63
43.67
39.56
32.90
24.69
16.22
8.84
3.55
0.74
0.07
0.81
2.14
3.50
4.69
5.82
6.98
8.13
8.96
8.97
7.69
4.84
0.48
-4.95
-10.77
-16.25
-20.88
-24.45
-27.22
-29.77
-32.86
-37.24
-43.36
-51.29
-60.43
-69.47
-76.47
-79.26
-76.00
-65.88
-49.40
-28.39
-5.51
16.57
35.73
50.83
61.51
67.95
70.52
69.68
66.14
60.87
55.10
50.04
46.56
44.87
44.55
44.79
44.68
43.64
41.50
38.46
34.93
31.21
27.35
23.10
18.07
11.94
4.74
-3.15
-10.97
-17.98
-23.70
-28.10
-31.67
-35.19
-39.49
-45.22
-52.66
-61.51
-70.82
-79.02
-84.16
-84.41
-78.60
-66.65
-49.70
-29.84
-9.51
9.09
24.44
35.79
42.99
46.23
45.92
42.66
37.35
31.21
25.57
21.60
19.90
20.35
22.24
24.51
26.27
27.05
26.86
26.00
24.77
23.20
21.07
17.99
13.74
8.36
2.33
-3.70
-9.09
-13.52
-17.09
-20.32
-23.97
-28.82
-35.43
-43.88
-53.49
-62.81
-69.81
-72.33
-68.80
-58.77
-43.19
-24.19
-4.40
13.78
28.70
39.61
46.46
49.54
49.26
46.09
40.73
34.21
27.85
22.94
20.41
20.44
22.47
25.36
27.89
29.19
28.94
27.40
25.10
22.51
19.76
16.57
12.49
7.15
0.57
-6.74
-13.95
-20.28
-25.27
-29.03
-32.19
-35.68
-40.43
-47.09
-55.84
-66.13
-76.63
-85.29
-89.73
-87.90
-78.81
-62.92
-42.18
-19.44
2.41
21.13
35.53
45.34
50.83
52.51
50.99
46.99
41.52
35.83
31.20
28.61
28.43
30.32
33.32
36.21
37.94
37.96
36.35
33.66
30.55
27.46
24.35
20.75
16.12
10.18
3.14
-4.29
-11.22
-17.00
-21.49
-25.13
-28.68
-33.00
-38.70
-46.03
-54.71
-63.79
-71.69
-76.40
-75.93
-69.04
-55.72
-37.37
-16.46
4.21
22.31
36.46
46.29
52.09
54.44
53.86
50.86
46.12
40.60
35.51
31.97
30.68
31.54
33.82
36.36
38.15
38.62
37.78
36.06
33.93
31.67
29.18
26.11
22.09
16.92
10.74
3.95
-2.88
-9.24
-14.78
-19.44
-23.49
-27.40
-31.86
-37.51
-44.73
-53.27
-62.16
-69.71
-73.85
-72.75
-65.45
-52.24
-34.64
-15.00
4.20
20.87
33.81
42.59
47.37
48.61
46.88
42.84
37.40
31.64
26.81
23.94
23.58
25.57
29.07
32.93
36.02
37.69
37.80
36.65
34.67
32.12
28.95
24.86
19.59
13.13
5.82
-1.69
-8.68
-14.67
-19.55
-23.64
-27.53
-31.92
-37.39
-44.23
-52.32
-60.92
-68.69
-73.89
-74.70
-69.90
-59.27
-43.78
-25.35
-6.33
11.14
25.53
36.03
42.47
45.01
44.06
40.25
34.55
28.19
22.49
18.63
17.23
18.23
20.88
24.06
26.63
27.80
27.35
25.56
22.97
20.10
17.15
13.98
10.19
5.43
-0.37
-6.90
-13.52
-19.58
-24.65
-28.81
-32.45
-36.25
-40.87
-46.85
-54.39
-63.26
-72.63
-81.03
-86.51
-87.13
-81.54
-69.54
-52.27
-31.93
-11.14
7.77
23.24
34.57
41.73
45.00
44.81
41.80
36.86
31.22
26.24
23.09
22.37
23.86
26.65
29.52
31.44
31.90
31.04
29.37
27.37
25.19
22.56
18.99
14.10
7.91
0.91
-6.16
-12.50
-17.63
-21.54
-24.64
-27.65
-31.38
-36.52
-43.49
-52.19
-61.90
-71.22
-78.19
-80.75
-77.34
-67.51
-52.15
-33.24
-13.32
5.30
21.01
33.07
41.33
45.95
47.20
45.52
41.63
36.68
32.01
28.85
27.93
29.22
31.98
35.06
37.44
38.46
38.12
36.82
35.13
33.42
31.69
29.64
26.81
22.88
17.83
12.00
5.97
0.37
-4.35
-8.08
-11.16
-14.22
-18.10
-23.55
-30.93
-39.99
-49.75
-58.51
-64.25
-65.11
-59.97
-48.85
-32.97
-14.37
4.63
22.06
36.62
47.72
55.17
58.98
59.26
56.36
51.16
45.08
39.85
37.04
37.46
40.97
46.48
52.46
57.42
60.53
61.68
61.47
60.81
60.51
60.97
61.94
62.62
61.81
58.37
51.54
41.26
28.22
13.59
-1.35
-15.68
-29.13
-42.09
-55.36
-69.64
-85.01
-100.64
-114.67
-124.64
-128.17
-123.77
-111.33
-92.35
-69.44
-45.59
-23.37
-4.57
9.95
19.91
25.39
26.69
24.45
19.74
14.08
9.11
6.18
5.88
7.95
11.39
15.00
17.76
19.22
19.49
18.94
17.95
16.60
14.66
11.76
7.65
2.40
-3.55
-9.56
-15.01
-19.57
-23.21
-26.34
-29.64
-33.95
-40.02
-48.30
-58.55
-69.71
-79.81
-86.41
-87.22
-80.94
-67.72
-49.16
-27.88
-6.69
12.16
27.33
38.36
45.34
48.55
48.38
45.33
40.29
34.45
29.19
25.60
24.21
24.82
26.62
28.60
29.95
30.25
29.54
28.14
26.32
24.15
21.45
17.94
13.40
7.88
1.64
-4.81
-10.96
-16.43
-20.99
-24.72
-27.93
-31.18
-35.23
-40.83
-48.32
-57.29
-66.32
-73.15
-75.29
-70.83
-59.20
-41.45
-20.02
2.06
22.04
38.13
49.65
56.81
60.26
60.71
58.78
55.14
50.62
46.23
43.00
41.77
42.84
45.92
50.21
54.69
58.48
61.06
62.28
62.31
61.40
59.69
57.29
54.14
50.20
45.51
40.22
34.53
28.70
22.98
17.54
12.42
7.51
2.49
-3.14
-9.98
-18.54
-28.91
-40.54
-52.09
-61.51
-66.55
-65.48
-57.73
-44.24
-27.26
-9.69
5.73
17.14
23.71
25.53
23.29
17.86
10.21
1.43
-7.29
-14.78
-20.09
-22.85
-23.29
-22.21
-20.61
-19.30
-18.64
-18.46
-18.25
-17.50
-15.99
-13.92
-11.82
-10.32
-9.86
-10.54
-12.08
-13.97
-15.77
-17.24
-18.51
-19.90
-21.91
-24.93
-29.23
-34.89
-41.83
-49.64
-57.37
-63.53
-66.17
-63.49
-54.44
-39.29
-19.68
1.82
22.46
40.10
53.58
62.75
68.10
70.41
70.48
69.12
67.10
65.07
63.41
62.04
60.40
57.68
53.06
46.05
36.68
25.50
13.41
1.36
-9.85
-19.73
-28.20
-35.47
-41.90
-47.78
-53.14
-57.79
-61.40
-63.75
-64.87
-65.11
-65.11
-65.68
-67.63
-71.55
