1703158060.00
64.000000
-0.00
-0.00
-0.00
-0.00
-0.00
-0.00
-0.00
-0.00
-0.00
-0.00
0.00
0.01
0.01
-0.00
-0.03
-0.05
-0.05
0.00
0.13
0.36
0.66
1.01
1.37
1.72
2.06
2.40
2.79
3.24
3.80
4.42
5.06
5.66
6.20
6.68
7.15
7.68
8.31
9.14
10.09
11.04
11.88
12.56
13.14
13.76
14.65
15.96
17.91
20.32
22.90
25.38
27.58
29.57
31.68
34.32
37.81
42.54
48.15
54.10
59.83
64.97
69.58
74.14
79.34
85.71
93.76
103.00
112.62
121.73
129.77
136.75
143.30
150.75
157.77
166.64
177.95
191.79
206.97
220.57
228.25
225.36
208.53
176.87
132.76
80.05
23.07
-34.95
-92.44
-149.16
-205.23
-260.36
-313.73
-363.85
-409.79
-450.85
-486.41
-515.61
-537.06
-549.01
-549.70
-538.05
-513.83
-478.23
-433.37
-381.88
-326.38
-269.12
-211.84
-155.79
-102.00
-51.33
-4.77
36.82
72.78
102.83
127.11
146.14
160.63
171.27
178.71
183.33
185.41
185.20
182.97
179.05
173.87
167.83
161.28
154.47
147.54
140.56
133.57
126.62
119.76
113.08
106.64
100.50
94.68
89.21
84.09
79.32
74.93
70.92
67.31
64.10
61.30
58.91
56.88
55.21
53.81
52.59
51.45
50.22
48.74
46.83
44.33
41.13
37.15
32.39
26.88
20.76
14.22
7.49
0.84
-5.46
-11.17
-16.09
-20.08
-23.07
-25.02
-26.01
-26.12
-25.49
-24.26
-22.57
-20.57
-18.35
-16.01
-13.59
-11.15
-8.70
-6.26
-3.83
-1.37
1.12
3.68
6.34
9.14
12.04
15.04
18.13
21.30
24.58
27.96
31.49
35.20
39.14
43.23
47.42
51.69
56.03
60.46
64.98
69.64
74.50
79.66
84.98
90.39
95.85
101.35
106.88
112.44
118.04
123.72
129.51
135.14
140.37
144.99
148.77
151.41
152.54
151.70
148.19
143.29
137.46
131.02
124.19
117.11
109.93
102.76
95.74
88.99
82.68
76.68
70.93
65.40
60.10
55.05
50.26
45.79
41.68
38.02
34.68
31.57
28.61
25.81
23.14
20.59
18.20
16.01
14.04
12.22
10.52
8.88
7.32
5.82
4.40
3.07
1.87
0.81
-0.11
-0.94
-1.67
-2.29
-2.82
-3.23
-3.52
-3.71
-3.81
-3.87
-3.95
-4.08
-4.28
-4.56
-4.89
-5.27
-5.71
-6.22
-6.81
-7.50
-8.29
-9.11
-9.94
-10.70
-11.37
-11.94
-12.50
-13.12
-13.92
-14.94
-16.16
-17.53
-18.94
-20.30
-21.64
-23.07
-24.75
-26.87
-29.48
-32.52
-35.76
-38.98
-42.01
-44.89
-47.90
-51.45
-55.91
-61.48
-68.02
-75.15
-82.40
-89.41
-96.21
-103.18
-110.94
-120.08
-130.92
-143.27
-156.68
-170.49
-184.28
-197.91
-211.67
-226.12
-242.05
-260.46
-282.32
-308.14
-337.29
-367.46
-394.90
-415.28
-425.04
-422.77
-409.60
-388.78
-364.29
-339.59
-316.73
-296.52
-278.99
-264.10
-251.98
-242.72
-236.07
-231.27
-227.27
-223.06
-218.07
-212.12
-205.33
-197.50
-187.92
-175.28
-157.97
-134.73
-105.17
-69.98
-30.83
10.06
50.44
88.41
122.52
151.77
175.41
192.88
203.92
208.64
207.76
202.53
194.54
185.37
176.24
167.88
160.42
153.78
147.73
142.15
136.98
132.12
127.44
122.76
117.93
112.88
107.67
102.29
96.74
90.99
85.18
79.57
74.44
69.93
65.83
61.73
57.25
52.34
47.38
42.99
39.66
37.43
35.84
34.15
31.72
28.21
23.76
18.79
13.79
9.14
4.99
1.39
-1.59
-3.80
-4.90
-4.55
-2.59
0.80
5.16
9.84
14.32
18.34
21.99
25.46
28.91
32.21
34.99
36.74
37.09
35.91
33.55
30.67
28.02
26.13
25.05
24.37
23.49
21.92
19.62
16.95
14.38
12.18
10.30
8.41
6.19
3.53
0.57
-2.47
-5.46
-8.45
-11.55
-14.68
-17.48
-19.39
-19.86
-18.63
-15.87
-12.08
-7.91
-3.88
-0.28
2.80
5.39
7.52
9.19
10.43
11.34
12.04
12.65
13.23
13.73
14.06
14.12
13.79
12.98
11.66
9.97
8.20
6.64
5.36
4.15
2.55
0.11
-3.26
-7.24
-11.23
-14.62
-17.19
-19.12
-20.76
-22.22
-23.25
-23.29
-21.80
-18.56
-13.82
-8.16
-2.24
3.36
8.29
12.34
15.40
17.45
18.56
18.90
18.75
18.46
18.32
18.54
19.07
19.68
20.01
19.74
18.71
17.03
15.03
13.08
11.40
10.02
8.73
7.24
5.24
2.47
-1.11
-5.44
-10.28
-15.17
-19.56
-22.91
-24.78
-24.96
-23.53
-20.77
-17.16
-13.25
-9.48
-6.05
-2.94
0.03
3.03
6.04
8.84
11.10
12.57
13.17
13.07
12.56
11.95
11.47
11.34
11.64
12.34
13.25
13.94
13.92
12.87
10.77
7.95
4.91
2.07
-0.44
-2.87
-5.58
-8.89
-12.96
-17.54
-22.21
-26.36
-29.42
-30.91
-30.58
-28.37
-24.53
-19.51
-13.85
-8.07
-2.61
2.20
6.13
9.09
11.11
12.49
13.74
15.31
17.41
19.88
22.24
23.93
24.59
24.26
23.24
21.89
20.36
18.60
16.44
13.85
11.02
8.27
5.82
3.65
1.48
-1.11
-4.52
-8.94
-14.29
-20.24
-26.17
-31.37
-35.13
-36.98
-36.79
-34.76
-31.26
-26.66
-21.18
-15.02
-8.42
-1.72
4.59
10.13
14.70
18.29
21.00
23.01
24.42
25.39
26.14
26.86
27.69
28.60
29.41
29.96
30.19
30.11
29.79
29.14
27.98
26.10
23.47
20.26
16.84
13.59
10.73
8.22
5.82
3.14
-0.15
-4.21
-8.99
-14.18
-19.39
-24.21
-28.28
-31.30
-33.01
-33.18
-31.68
-28.62
-24.36
-19.47
-14.50
-9.79
-5.38
-1.05
3.41
8.08
12.77
17.17
20.93
23.82
25.82
27.01
27.63
27.96
28.26
28.77
29.48
30.18
30.47
30.00
28.57
26.28
23.44
20.47
17.64
15.06
12.64
10.23
7.72
5.14
2.60
0.17
-2.29
-5.11
-8.68
-13.13
-18.19
-23.16
-27.15
-29.46
-29.83
-28.52
-26.06
-22.99
-19.52
-15.59
-11.07
-5.96
-0.54
4.73
9.39
13.19
16.13
18.35
20.05
21.32
22.26
22.89
23.34
23.83
24.54
25.58
26.84
28.00
28.63
28.41
27.24
25.34
23.14
21.05
19.27
17.67
15.97
13.98
11.72
9.32
6.97
4.58
1.85
-1.63
-6.03
-11.15
-16.44
-21.26
-25.14
-27.91
-29.66
-30.56
-30.66
-29.90
-28.15
-25.32
-21.46
-16.65
-11.03
-4.89
1.30
6.94
11.41
14.37
15.94
16.64
17.20
18.13
19.51
21.06
22.26
22.74
22.47
21.71
20.84
20.14
19.70
19.40
19.08
18.62
17.89
16.81
15.25
13.07
10.24
6.92
3.44
0.26
-2.34
-4.29
-5.85
-7.49
-9.68
-12.71
-16.53
-20.81
-24.94
-28.17
-29.80
-29.42
-26.98
-22.91
-18.01
-13.14
-8.96
-5.74
-3.28
-1.16
1.06
3.64
6.64
9.95
13.25
16.17
18.36
19.67
20.20
20.38
20.67
21.39
22.54
23.77
24.68
24.94
24.52
23.54
22.17
20.43
18.27
15.67
12.73
9.68
6.72
3.91
1.07
-2.01
-5.48
-9.32
-13.32
-17.25
-20.81
-23.84
-26.13
-27.52
-27.84
-26.99
-25.06
-22.29
-19.03
-15.58
-12.14
-8.79
-5.56
-2.51
0.32
2.86
5.15
7.27
9.37
11.56
13.92
16.38
18.77
20.80
22.18
22.68
22.28
21.16
19.67
18.27
17.33
16.98
17.09
17.30
17.27
16.70
15.51
13.79
11.71
9.45
7.11
4.70
2.11
-0.86
-4.41
-8.76
-13.92
-19.68
-25.55
-30.86
-34.84
-37.00
-37.15
-35.46
-32.32
-28.16
-23.33
-18.12
-12.82
-7.75
-3.29
0.31
3.02
4.99
6.54
7.84
8.93
9.65
9.88
9.71
9.46
9.48
9.98
10.89
11.86
12.55
12.77
12.58
12.29
12.11
12.06
11.87
11.21
9.86
7.86
5.48
3.04
0.69
-1.67
-4.40
-7.77
-11.81
-16.22
-20.42
-23.74
-25.68
-25.98
-24.67
-21.94
-18.08
-13.47
-8.61
-3.96
0.05
3.21
5.58
7.41
9.03
10.65
12.28
13.71
14.69
15.07
14.90
14.43
14.00
13.84
14.00
14.31
14.50
14.37
13.78
12.73
11.31
9.62
7.68
5.52
3.13
0.52
-2.19
-4.91
-7.61
-10.28
-13.08
-16.10
-19.31
-22.43
-24.97
-26.33
-26.11
-24.27
-21.16
-17.36
-13.46
-9.76
-6.37
-3.25
-0.39
2.15
4.30
6.00
7.31
8.28
8.97
9.42
9.67
9.84
10.03
10.29
10.47
10.30
9.54
8.18
6.43
4.61
2.93
1.35
-0.39
-2.54
-5.18
-8.11
-10.98
-13.48
-15.52
-17.27
-19.03
-20.97
-23.01
-24.77
-25.73
-25.48
-23.93
-21.40
-18.44
-15.59
-13.13
-10.93
-8.64
-5.88
-2.56
1.15
4.87
8.26
11.06
13.21
14.68
15.44
15.56
15.15
14.48
13.79
13.34
13.16
13.07
12.78
11.95
10.42
8.24
5.72
3.21
0.96
-1.12
-3.41
-6.40
-10.38
-15.15
-20.11
-24.40
-27.43
-29.02
-29.40
-28.92
-27.77
-25.93
-23.30
-19.88
-15.90
-11.69
-7.53
-3.51
0.44
4.33
8.01
11.22
13.68
15.31
16.27
16.82
17.16
17.34
17.35
17.13
16.70
16.13
15.45
14.65
13.56
12.08
10.11
7.78
5.27
2.87
0.83
-0.69
-1.68
-2.38
-3.26
-4.88
-7.67
-11.77
-16.85
-22.22
-27.06
-30.58
-32.25
-31.83
-29.37
-25.21
-19.90
-14.10
-8.45
-3.43
0.79
4.31
7.29
9.90
12.14
14.02
15.60
17.07
18.65
20.48
22.43
24.16
25.20
25.25
24.31
22.71
21.01
19.68
18.90
18.43
17.80
16.53
14.39
11.47
8.15
4.83
1.75
-1.10
-3.83
-6.61
-9.51
-12.54
-15.75
-19.16
-22.76
-26.27
-29.22
-30.99
-31.16
-29.55
-26.43
-22.27
-17.57
-12.64
-7.62
-2.52
2.64
7.69
12.37
16.41
19.60
21.91
23.42
24.35
24.89
25.19
25.29
25.19
24.88
24.44
23.96
23.54
23.21
22.81
22.18
21.10
19.42
17.14
14.37
11.29
8.06
4.81
1.58
-1.58
-4.64
-7.59
-10.47
-13.44
-16.71
-20.38
-24.36
-28.27
-31.49
-33.40
-33.52
-31.74
-28.32
-23.74
-18.57
-13.26
-8.03
-2.89
2.23
7.32
12.27
16.78
20.49
23.17
24.76
25.42
25.42
25.03
24.41
23.68
22.96
22.46
22.37
22.77
23.50
24.17
24.32
23.56
21.84
19.35
16.49
13.68
11.25
9.34
7.91
6.80
5.69
4.22
1.93
-1.52
-6.23
-11.97
-18.12
-23.81
-28.17
-30.65
-31.08
-29.74
-27.16
-23.84
-20.10
-16.07
-11.77
-7.28
-2.84
1.26
4.76
7.53
9.64
11.27
12.65
14.02
15.45
16.93
18.33
19.48
20.21
20.51
20.56
20.64
21.00
21.68
22.40
22.73
22.31
21.06
19.24
17.22
15.28
13.39
11.25
8.47
4.90
0.70
-3.71
-7.80
-11.30
-14.20
-16.74
-19.12
-21.28
-22.84
-23.21
-21.90
-18.82
-14.32
-9.19
-4.25
-0.18
2.70
4.46
5.41
5.96
6.46
7.15
8.16
9.48
10.93
12.27
13.19
13.50
13.17
12.33
11.18
9.86
8.29
6.28
3.70
0.63
-2.62
-5.61
-8.06
-9.99
-11.69
-13.61
-16.08
-19.24
-23.04
-27.29
-31.70
-35.94
-39.54
-42.04
-43.06
-42.48
-40.45
-37.30
-33.38
-28.89
-23.87
-18.28
-12.20
-5.88
0.30
5.85
10.50
14.17
17.01
19.26
21.14
22.75
24.10
25.14
25.94
26.64
27.44
28.41
29.43
30.24
30.50
29.99
28.61
26.45
23.61
20.22
16.33
11.99
7.23
2.07
-3.40
-9.03
-14.64
-19.99
-24.78
-28.72
-31.45
-32.68
-32.27
-30.31
-27.15
-23.31
-19.27
-15.35
-11.63
-8.04
-4.50
-1.08
2.05
4.68
6.70
8.16
9.17
9.83
10.20
10.28
10.11
9.75
9.25
8.67
8.00
7.28
6.46
5.52
4.34
2.75
0.58
-2.30
-5.80
-9.66
-13.49
-16.85
-19.34
-20.71
-20.87
-19.85
-17.85
-15.09
-11.81
-8.23
-4.57
-1.00
2.32
5.32
8.02
10.37
12.29
13.56
14.00
13.64
12.73
11.73
11.01
10.68
10.51
10.17
9.36
8.09
6.64
5.33
4.32
3.44
2.29
0.43
-2.39
-6.19
-10.72
-15.65
-20.69
-25.62
-30.22
-34.22
-37.23
-38.83
-38.73
-36.81
-33.25
-28.42
-22.73
-16.53
-10.08
-3.71
2.21
7.24
11.03
13.48
14.83
15.53
16.12
16.95
18.10
19.37
20.35
20.64
19.99
18.42
16.16
13.55
10.97
8.63
6.58
4.73
2.87
0.80
-1.71
-4.88
-8.90
-13.87
-19.67
-25.83
-31.57
-35.96
-38.29
-38.25
-36.01
-32.14
-27.33
-22.07
-16.58
-10.90
-5.05
0.81
6.33
11.21
15.27
18.60
21.50
24.28
27.02
29.49
31.25
31.96
31.54
30.26
28.54
26.70
24.77
22.47
19.55
15.99
12.18
8.73
6.21
4.75
3.96
3.07
1.35
-1.61
-5.79
-10.95
-16.92
-23.72
-31.51
-40.21
-49.26
-57.56
-63.91
-67.44
-68.08
-66.50
-63.86
-61.25
-59.29
-58.11
-57.56
-57.40
-57.40
-57.23
-56.44
-54.37
-50.46
-44.50
-36.77
-27.92
-18.81
-10.09
-2.04
5.45
12.60
19.58
26.32
32.49
37.71
41.66
44.19
45.31
45.02
43.26
39.89
34.80
27.99
19.85
11.05
2.36
-5.56
-12.42
-18.31
-23.47
-27.98
-31.64
-33.94
-34.41
-32.89
-29.64
-25.23
-20.21
-14.94
-9.39
-3.45
2.95
9.63
16.23
22.47
28.14
33.28
37.89
41.86
44.92
46.79
47.40
46.96
45.99
45.08
44.60
44.53
44.51
43.99
42.66
40.54
38.10
36.04
34.91
34.89
35.65
36.62
37.16
36.98
36.17
35.11
34.37
34.30
35.03
36.36
37.80
38.83
39.02
38.14
36.28
33.75
30.90
28.16
25.81
24.01
22.81
22.12
21.81
21.72
21.71
21.68
21.54
21.23
20.57
19.47
17.94
16.17
14.56
13.47
12.98
12.81
12.43
11.27
9.10
6.09
2.72
-0.48
-3.14
-5.09
-6.25
-6.57
-5.94
-4.34
-1.97
0.83
3.63
6.14
8.33
10.33
12.25
14.04
15.47
16.28
16.30
15.60
14.41
13.00
11.60
10.24
8.90
7.61
6.43
5.44
4.71
4.25
3.94
3.70
3.44
3.09
2.58
1.74
0.45
-1.28
-3.25
-5.08
-6.40
-7.01
-6.98
-6.55
-6.00
-5.50
-5.07
-4.64
-4.15
-3.58
-2.87
-2.01
-0.91
0.44
1.97
3.47
4.62
5.18
5.02
4.25
3.15
2.18
1.72
2.10
3.33
5.16
7.14
8.77
9.67
9.73
9.10
8.04
6.87
5.76
4.69
3.49
1.92
-0.22
-2.88
-5.73
-8.26
-9.92
-10.43
-9.87
-8.67
-7.39
-6.42
-5.81
-5.35
-4.71
-3.66
-2.28
-0.84
0.33
1.03
1.29
1.31
1.31
1.44
1.67
1.86
1.89
1.64
1.17
0.67
0.35
0.31
0.44
0.54
0.37
-0.18
-1.09
-2.19
-3.28
-4.25
-5.07
-5.79
-6.50
-7.22
-7.90
-8.44
-8.64
-8.34
-7.47
-6.07
-4.28
-2.34
-0.50
1.04
2.08
2.51
2.33
1.63
0.74
0.02
-0.27
-0.15
0.13
0.24
-0.04
-0.61
-1.20
-1.59
-1.77
-1.93
-2.32
-3.01
-3.79
-4.39
-4.63
-4.57
-4.47
-4.63
-5.20
-6.09
-7.09
-7.90
-8.28
-8.18
-7.71
-7.13
-6.73
-6.68
-6.90
-7.11
-6.95
-6.21
-4.97
-3.59
-2.57
-2.18
-2.39
-2.88
-3.27
-3.34
-3.12
-2.80
-2.57
-2.50
-2.46
-2.31
-2.03
-1.79
-1.81
-2.23
-2.96
-3.72
-4.27
-4.59
-4.83
-5.32
-6.25
-7.60
-9.05
-10.19
-10.74
-10.63
-10.02
-9.08
-7.90
-6.47
-4.74
-2.83
-0.92
0.78
2.13
3.10
3.64
3.70
3.24
2.27
1.03
-0.07
-0.55
-0.13
1.05
2.56
3.82
4.49
4.50
4.01
3.25
2.26
1.03
-0.50
-2.27
-4.05
-5.57
-6.64
-7.25
-7.56
-7.81
-8.21
-8.82
-9.53
-10.11
-10.33
-10.01
-9.00
-7.29
-5.02
-2.38
0.30
2.63
4.26
4.87
4.41
3.12
1.51
0.23
-0.24
0.20
1.27
2.45
3.20
3.30
2.74
1.76
0.60
-0.59
-1.84
-3.15
-4.50
-5.75
-6.76
-7.47
-7.98
-8.52
-9.26
-10.28
-11.37
-12.19
-12.39
-11.73
-10.23
-8.12
-5.75
-3.48
-1.50
0.16
1.54
2.65
3.37
3.50
2.90
1.73
0.41
-0.45
-0.37
0.70
2.25
3.50
3.75
2.79
1.02
-0.87
-2.27
-2.94
-3.10
-3.16
-3.36
-3.71
-4.03
-4.19
-4.24
-4.32
-4.65
-5.25
-6.05
-6.90
-7.74
-8.56
-9.36
-10.03
-10.37
-10.22
-9.54
-8.52
-7.34
-6.14
-4.83
-3.23
-1.19
1.22
3.69
5.76
7.05
7.38
6.92
5.96
4.85
3.82
2.94
2.21
1.55
0.90
0.08
-1.01
-2.47
-4.20
-5.98
-7.48
-8.56
-9.29
-9.96
-10.90
-12.31
-14.11
-15.93
-17.29
-17.77
-17.15
-15.52
-13.13
-10.33
-7.37
-4.39
-1.41
1.55
4.41
6.92
8.78
9.71
9.62
8.76
7.54
6.51
6.00
6.10
6.61
7.19
7.58
7.63
7.35
6.83
6.13
5.22
4.10
2.82
1.45
0.12
-1.14
-2.36
-3.66
-5.16
-6.89
-8.73
-10.47
-11.87
-12.72
-12.87
-12.23
-10.82
-8.68
-6.07
-3.32
-0.79
1.23
2.62
3.43
3.81
3.98
4.03
3.98
3.80
3.44
3.01
2.70
2.80
3.47
4.65
5.99
7.00
7.26
6.61
5.23
3.51
1.92
0.73
-0.03
-0.55
-1.18
-2.18
-3.71
-5.78
-8.22
-10.76
-13.09
-14.74
-15.34
-14.60
-12.48
-9.20
-5.19
-1.01
2.83
6.02
8.57
10.73
12.77
14.88
16.98
18.79
20.03
20.52
20.35
19.82
19.30
19.18
19.66
20.78
22.31
23.93
25.25
25.96
25.90
25.08
23.67
21.96
20.28
19.05
18.68
19.45
21.25
23.52
25.35
25.73
24.02
20.31
15.38
10.47
6.70
4.59
3.87
3.69
3.08
1.43
-1.22
-4.21
-6.63
-7.76
-7.40
-5.87
-3.83
-1.95
-0.63
-0.02
-0.08
-0.81
-2.23
-4.40
-7.39
-11.17
-15.68
-20.81
-26.50
-32.66
-39.10
-45.46
-51.27
-55.90
-58.90
-60.11
-59.79
-58.64
-57.57
-57.35
-58.36
-60.39
-62.80
-64.82
-65.80
-65.47
-63.96
-61.59
-58.65
-55.19
-50.99
-45.61
-38.84
-30.84
-22.27
-14.03
-6.96
-1.52
2.39
5.18
7.42
9.50
11.56
13.48
14.97
15.72
15.43
14.01
11.73
9.22
7.34
6.83
7.88
9.97
12.04
13.03
12.43
10.49
8.05
6.08
5.15
5.16
5.58
5.73
5.21
4.11
2.90
2.16
2.26
3.18
4.56
5.97
7.06
7.84
8.63
9.86
11.81
14.49
17.52
20.27
22.17
22.85
22.40
21.23
19.92
18.91
18.34
18.05
17.71
17.07
15.96
14.45
12.64
10.69
8.76
6.99
5.49
4.29
3.33
2.40
1.36
0.20
-0.90
-1.58
-1.57
-0.90
0.10
0.86
0.80
-0.35
-2.48
-5.16
-7.79
-9.87
-11.16
-11.75
-11.91
-11.86
-11.59
-10.86
-9.39
-7.08
-4.19
-1.26
1.09
2.50
2.93
2.64
2.10
1.73
1.87
2.67
4.15
6.15
8.31
10.25
11.58
12.11
11.84
10.93
9.62
8.14
6.68
5.41
4.45
3.91
3.76
3.85
3.89
3.62
2.88
1.72
0.33
-1.07
-2.30
-3.32
-4.14
-4.78
-5.26
-5.60
-5.83
-6.09
-6.51
-7.10
-7.71
-7.91
-7.23
-5.31
-2.20
1.62
5.35
8.17
9.55
9.46
8.26
6.55
4.90
3.69
3.07
3.07
3.59
4.48
5.46
6.22
6.49
6.18
5.38
4.37
3.38
2.49
1.61
0.51
-0.99
-2.90
-5.09
-7.30
-9.25
-10.71
-11.59
-11.94
-11.96
-11.84
-11.69
-11.43
-10.82
-9.59
-7.62
-4.98
-1.95
1.15
4.01
6.37
8.09
9.07
9.28
8.88
8.12
7.39
7.00
7.18
7.92
9.07
10.37
11.58
12.47
12.82
12.52
11.56
10.09
8.43
6.94
5.90
5.39
5.18
4.96
4.32
3.06
1.26
-0.78
-2.69
-4.23
-5.39
-6.38
-7.40
-8.54
-9.61
-10.25
-10.11
-9.06
-7.30
-5.32
-3.74
-2.97
-3.06
-3.69
-4.29
-4.32
-3.48
-1.87
0.19
2.25
4.01
5.29
6.05
6.30
6.01
5.17
3.86
2.30
0.82
-0.14
-0.31
0.42
1.91
3.79
5.66
7.12
8.02
8.52
8.95
9.63
10.70
12.03
13.23
13.81
13.29
11.26
7.46
2.13
-3.90
-9.19
-12.04
-11.13
-6.17
2.01
11.76
21.31
29.47
35.90
40.87
44.90
48.48
52.01
55.93
60.79
66.94
74.41
82.78
91.32
99.43
106.71
112.95
117.76
120.47
120.13
115.91
107.43
94.89
78.83
59.94
39.04
17.32
-3.38
-20.63
-32.14
-36.86
-35.92
-32.78
-32.47
-39.82
-57.86
-86.79
-124.06
-165.30
-205.53
-240.26
-265.95
-280.23
-281.91
-271.15
-249.45
-219.44
-184.23
-146.43
-107.44
-67.57
-26.81
13.84
51.77
83.09
104.01
112.61
109.76
98.84
84.22
69.67
57.13
46.80
38.03
30.37
24.09
19.88
18.14
18.43
19.52
19.84
18.33
14.76
9.80
4.60
0.19
-2.83
-4.47
-5.17
-5.53
-6.00
-6.72
-7.57
-8.14
-8.13
-7.27
-5.59
-3.42
-1.29
0.24
0.80
0.35
-0.70
-1.74
-2.15
-1.64
-0.40
1.03
2.00
2.13
1.49
0.60
0.06
0.28
1.25
2.59
3.75
4.28
4.05
3.13
1.81
0.34
-1.06
-2.29
-3.31
-4.10
-4.78
-5.47
-6.33
-7.42
-8.68
-9.86
-10.69
-10.99
-10.74
-10.00
-8.93
-7.54
-5.87
-3.96
-2.09
-0.59
0.25
0.43
0.27
0.24
0.75
1.88
3.36
4.73
5.59
5.82
5.60
5.29
5.17
5.22
5.18
4.67
3.50
1.75
-0.18
-1.83
-2.90
-3.42
-3.69
-4.16
-5.16
-6.73
-8.65
-10.50
-11.91
-12.62
-12.60
-11.96
-10.90
-9.64
-8.26
-6.62
-4.45
-1.55
2.08
6.08
9.84
12.69
14.24
14.49
13.77
12.54
11.21
10.02
9.01
8.11
7.25
6.40
5.59
4.86
4.26
3.79
3.39
2.95
2.32
1.42
0.29
-0.91
-1.99
-2.85
-3.54
-4.28
-5.39
-7.02
-9.05
-11.02
-12.33
-12.44
-11.18
-8.80
-5.96
-3.36
-1.52
-0.62
-0.46
-0.62
-0.60
-0.06
1.10
2.72
4.40
5.74
6.47
6.58
6.33
6.15
6.42
7.31
8.67
10.13
11.29
11.86
11.78
11.13
10.08
8.77
7.32
5.87
4.52
3.39
2.45
1.65
0.91
0.22
-0.43
-1.08
-1.85
-2.90
-4.32
-5.96
-7.46
-8.26
-7.93
-6.33
-3.75
-0.68
2.29
4.71
6.39
7.45
8.15
8.87
9.99
11.68
13.82
16.01
17.74
18.61
18.53
17.71
16.59
15.69
15.45
16.06
17.50
19.51
21.65
23.43
24.42
24.56
24.15
23.80
24.06
25.21
27.11
29.29
31.23
32.72
33.97
35.54
38.07
42.18
48.18
56.10
65.57
75.87
85.99
94.94
102.03
107.13
110.68
113.20
114.84
114.89
111.83
103.94
90.16
71.00
48.69
26.63
8.31
-3.80
-8.96
-8.07
-3.37
2.45
6.72
7.25
2.43
-8.66
-26.26
-49.92
-78.66
-111.08
-145.58
-180.55
-214.23
-244.55
-268.98
-284.89
-290.11
-283.52
-265.69
-238.52
-204.74
-166.77
-126.10
-83.33
-39.05
5.12
46.01
79.48
101.87
111.74
110.56
102.17
91.08
80.61
71.96
64.46
56.77
48.28
39.56
32.03
26.96
24.61
24.10
23.92
22.77
20.14
16.42
12.52
9.24
6.93
5.37
3.99
2.19
-0.32
-3.40
-6.55
-9.21
-11.03
-11.98
-12.33
-12.47
-12.70
-13.06
-13.46
-13.72
-13.74
-13.48
-12.90
-11.94
-10.49
-8.54
-6.30
-4.15
-2.46
-1.41
-0.83
-0.35
0.43
1.66
3.28
5.04
6.63
7.84
8.57
8.81
8.53
7.77
6.65
5.36
4.20
3.35
2.83
2.44
1.88
0.90
-0.48
-2.00
-3.28
-4.00
-4.08
-3.75
-3.35
-3.19
-3.36
-3.69
-3.90
-3.75
-3.14
-2.16
-0.91
0.53
2.13
3.83
5.53
7.01
8.02
8.43
8.29
7.78
7.27
7.03
7.22
7.76
8.41
8.87
8.96
8.64
8.12
7.67
7.48
7.56
7.74
7.77
7.50
6.97
6.38
5.96
5.81
5.82
5.67
4.95
3.41
1.07
-1.70
-4.28
-6.09
-6.75
-6.22
-4.83
-3.03
-1.24
0.23
1.33
2.08
2.48
2.55
2.28
1.81
1.36
1.17
1.38
1.99
2.89
3.99
5.22
6.52
7.77
8.77
9.31
9.22
8.53
7.43
6.20
5.07
4.21
3.62
3.23
2.92
2.49
1.71
0.39
-1.51
-3.78
-6.00
-7.61
-8.27
-7.88
-6.66
-5.06
-3.44
-2.10
-1.09
-0.37
0.22
0.79
1.41
2.09
2.82
3.56
4.24
4.80
5.22
5.55
5.87
6.38
7.16
8.20
9.29
10.10
10.35
9.82
8.55
6.73
4.72
2.85
1.37
0.40
-0.18
-0.65
-1.34
-2.48
-4.08
-5.88
-7.44
-8.34
-8.41
-7.75
-6.68
-5.49
-4.39
-3.39
-2.40
-1.37
-0.34
0.58
1.23
1.52
1.55
1.54
1.81
2.60
3.95
5.57
6.95
7.56
7.24
6.27
5.27
4.80
5.02
5.57
5.84
5.43
4.36
3.05
2.02
1.44
1.05
0.30
-1.21
-3.42
-5.77
-7.62
-8.52
-8.48
-7.93
-7.27
-6.70
-6.12
-5.22
-3.75
-1.69
0.72
3.14
5.25
7.01
8.54
10.10
11.86
13.89
16.04
18.11
19.88
21.16
21.86
21.91
21.31
20.17
18.77
17.54
16.96
17.37
18.83
21.09
23.71
26.23
28.38
29.94
30.74
30.39
28.40
24.35
18.30
10.84
3.07
-3.75
-8.66
-11.16
-11.28
-9.26
-5.38
0.25
7.50
16.16
25.80
35.81
45.54
54.32
61.41
66.00
67.25
64.54
57.77
47.58
35.18
22.09
9.62
-1.39
-10.64
-18.25
-24.43
-29.39
-33.31
-36.47
-39.24
-42.08
-45.23
-48.70
-52.23
-55.37
-57.54
-58.15
-56.72
-53.07
-47.60
-41.41
-36.08
-33.38
-34.58
-40.04
-49.16
-60.59
-72.72
-84.12
-93.67
-100.59
-104.46
-105.17
-102.99
-98.44
-92.11
-84.39
-75.29
-64.51
-51.78
-37.13
-21.16
-4.92
10.33
23.47
33.65
40.34
43.34
42.82
39.31
33.77
27.27
20.76
14.80
9.44
4.51
-0.09
-4.03
-6.56
-6.90
-4.73
-0.46
4.79
9.72
13.39
15.58
16.71
17.44
18.14
18.71
18.70
17.69
15.61
12.78
9.68
6.61
3.50
-0.03
-4.34
-9.41
-14.82
-19.88
-23.96
-26.77
-28.39
-29.08
-29.06
-28.18
-26.06
-22.27
-16.61
-9.30
-0.95
7.78
16.35
24.45
31.91
38.48
43.70
47.05
48.18
47.22
44.92
42.34
40.46
39.83
40.23
40.88
40.80
39.23
35.97
31.44
26.42
21.68
17.67
14.33
11.28
8.04
4.31
0.12
-4.17
-8.03
-11.04
-13.00
-13.96
-14.12
-13.62
-12.48
-10.62
-8.01
-4.84
-1.54
1.42
3.73
5.41
6.71
7.91
9.14
10.30
11.18
11.65
11.81
11.83
11.80
11.56
10.78
9.12
6.59
3.51
0.42
-2.32
-4.67
-6.97
-9.72
-13.30
-17.76
-22.79
-27.85
-32.37
-35.99
-38.52
-39.93
-40.37
-39.98
-38.94
-37.42
-35.58
-33.58
-31.52
-29.50
-27.56
-25.68
-23.79
-21.75
-19.40
-16.56
-13.14
-9.14
-4.76
-0.31
3.75
7.03
9.26
10.51
10.99
11.09
11.05
10.81
10.00
8.14
4.91
0.40
-4.86
-10.08
-14.65
-18.22
-20.78
-22.44
-23.14
-22.55
-20.27
-15.99
-9.76
-1.81
7.44
17.52
27.88
37.79
46.28
52.43
55.76
56.56
55.83
54.97
54.94
55.91
57.06
57.17
55.11
50.43
43.46
34.94
25.62
15.92
6.03
-3.96
-13.72
-22.68
-30.17
-35.61
-38.69
-39.19
-36.93
-31.82
-23.98
-14.03
-3.14
7.18
15.66
21.71
25.65
28.42
31.04
34.08
37.45
40.62
43.01
44.41
45.11
45.75
46.93
48.92
51.55
54.27
56.40
57.39
57.11
55.83
54.26
53.32
53.92
56.74
62.17
70.40
81.52
95.43
111.63
128.97
145.65
159.63
169.38
174.43
175.48
173.88
170.74
166.22
159.40
148.77
133.00
111.65
85.45
56.03
25.47
-4.13
-30.99
-53.83
-72.07
-85.84
-96.01
-103.84
-110.70
-117.59
-124.92
-132.38
-139.13
-144.27
-147.29
-148.28
-147.69
-145.78
-142.09
-135.39
-124.21
-107.65
-86.14
-61.41
-35.95
-12.16
8.26
24.44
35.92
42.34
43.25
38.45
28.35
14.15
-2.20
-18.38
-32.08
-41.26
-44.46
-41.00
-31.17
-16.26
1.83
21.29
41.10
61.30
82.70
105.98
130.89
155.73
177.65
193.55
201.08
199.32
188.67
170.40
146.15
117.80
87.55
58.00
31.93
11.66
-1.81
-9.16
-12.53
-14.73
-18.23
-24.48
-33.93
-46.52
-62.11
-80.67
-102.01
-125.36
-149.25
-171.58
-190.19
-203.30
-209.83
-209.49
-202.55
-189.60
-171.56
-149.63
-125.46
-100.97
-78.07
-58.23
-42.11
-29.59
-20.20
-13.67
-10.24
-10.66
-15.63
-25.30
-38.99
-55.27
-72.34
-88.37
-101.58
-110.25
-112.96
-108.81
-97.96
-81.62
-61.64
-39.82
-17.38
5.00
26.53
45.66
59.78
65.74
60.95
44.55
18.08
-14.86
-49.63
-81.98
-109.02
-129.27
-142.26
-147.88
-146.18
-137.68
-123.71
-106.55
-88.87
-72.76
-58.99
-46.85
-34.96
-22.27
-8.86
4.14
15.10
22.68
26.18
25.46
20.86
13.27
4.52
-2.50
-4.48
1.14
14.81
34.18
54.73
71.53
81.27
83.51
80.51
75.87
72.67
72.17
73.64
75.04
74.23
69.86
61.62
50.05
36.07
20.65
4.70
-10.85
-25.01
-36.77
-45.40
-50.61
-52.72
-52.52
-51.06
-49.19
-47.23
-45.02
-41.97
-37.51
-31.32
-23.56
-14.84
-6.18
1.41
7.15
10.91
13.28
15.26
17.88
21.78
26.85
32.44
37.64
41.75
44.43
45.64
45.45
43.97
41.31
37.74
33.83
30.35
27.98
27.00
27.15
27.72
27.86
26.93
24.77
21.69
18.31
15.20
12.83
11.39
10.93
11.43
12.89
15.31
18.68
22.87
27.51
32.00
35.52
37.30
36.88
34.41
30.65
26.67
23.47
21.53
20.77
20.62
20.51
20.16
19.70
19.55
20.07
21.33
23.09
24.83
26.02
26.23
25.31
23.43
21.21
19.63
19.86
22.94
29.44
39.16
50.98
63.05
73.04
78.65
78.17
70.93
57.77
40.97
23.87
9.98
1.85
0.32
4.37
11.78
20.11
27.60
33.42
37.45
39.72
39.95
37.65
32.36
24.12
13.68
2.28
-8.55
-17.45
-23.42
-25.92
-24.92
-20.86
-14.68
-7.73
-1.62
2.00
1.79
-2.85
-11.49
-22.57
-33.76
-42.66
-47.54
-47.86
-44.16
-37.70
-29.79
-21.24
-12.22
-2.48
8.36
20.52
33.74
47.10
58.87
66.67
68.15
61.85
48.02
28.85
7.76
-11.80
-27.57
-39.04
-47.00
-52.66
-56.73
-59.25
-60.06
-59.46
-58.50
-58.73
-61.33
-66.39
-72.92
-79.33
-84.37
-87.60
-89.61
-91.39
-93.61
-96.26
-98.58
-99.42
-97.71
-92.91
-85.02
-74.71
-62.97
-51.05
-40.28
-31.84
-26.57
-24.66
-25.58
-28.18
-31.06
-33.12
-33.89
-33.55
-32.75
-32.24
-32.46
-33.42
-34.86
-36.37
-37.55
-38.08
-37.70
-36.08
-32.90
-27.88
-20.92
-12.25
-2.42
7.78
17.49
26.00
33.03
38.72
43.48
47.67
51.27
53.95
55.16
54.56
52.23
48.64
44.50
40.35
36.47
32.76
29.02
25.11
21.02
16.88
12.83
8.92
5.12
1.47
-1.89
-4.64
-6.44
-7.03
-6.32
-4.53
-1.95
1.05
4.20
7.34
10.33
13.02
15.41
17.60
19.85
22.48
25.67
29.44
33.53
37.65
41.51
44.90
47.69
49.69
50.86
51.22
51.06
50.80
50.85
51.38
52.20
52.86
52.84
51.81
49.55
46.03
41.18
34.99
27.61
19.56
11.71
5.10
0.57
-1.62
-1.83
-0.89
0.28
1.04
1.16
0.70
-0.27
-1.69
-3.64
-6.08
-8.76
-11.23
-12.98
-13.73
-13.56
-12.90
-12.29
-12.20
-12.80
-13.93
-15.20
-16.13
-16.39
-15.87
-14.75
-13.35
-12.08
-11.31
-11.31
-12.37
-14.63
-17.97
-21.90
-25.59
-28.01
-28.42
-26.55
-22.79
-17.94
-12.85
-8.14
-4.08
-0.63
2.27
4.69
6.67
8.23
9.42
10.24
10.65
10.62
10.24
9.71
9.30
9.17
9.19
9.10
8.61
7.56
5.99
4.11
2.07
-0.00
-2.05
-4.01
-5.82
-7.44
-9.01
-10.78
-13.00
-15.79
-18.96
-21.98
-24.24
-25.19
-24.60
-22.50
-19.29
-15.49
-11.63
-8.12
-5.12
-2.61
-0.44
1.43
2.96
4.04
4.68
5.09
5.62
6.60
8.19
10.21
12.21
13.64
14.11
13.54
12.16
10.39
8.73
7.55
7.07
7.32
8.10
9.03
9.53
9.04
7.14
3.84
-0.43
-4.82
-8.40
-10.46
-10.74
-9.49
-7.25
-4.55
-1.75
1.07
3.93
6.81
9.60
12.07
13.97
15.16
15.61
15.40
14.68
13.66
12.57
11.60
10.89
10.51
10.35
10.15
9.56
8.24
5.97
2.72
-1.21
-5.40
-9.35
-12.76
-15.57
-18.01
-20.37
-22.88
-25.58
-28.31
-30.80
-32.79
-34.05
-34.32
-33.44
-31.37
-28.31
-24.69
-21.08
-18.00
-15.72
-14.23
-13.22
-12.39
-11.47
-10.29
-8.83
-7.09
-5.05
-2.72
-0.11
2.74
5.76
8.82
11.77
14.41
16.59
18.22
19.23
19.65
19.45
18.54
16.90
14.61
11.94
9.28
7.00
5.28
4.13
3.44
3.14
3.35
4.31
6.25
9.16
12.85
16.87
20.81
24.36
27.43
30.06
32.27
34.11
35.62
36.92
38.24
39.82
41.71
43.67
45.13
45.41
43.95
40.70
36.02
30.62
25.18
20.14
15.58
11.35
7.25
3.15
-0.86
-4.65
-8.06
-10.99
-13.42
-15.38
-17.03
-18.59
-20.34
-22.49
-24.96
-27.39
-29.23
-29.98
-29.37
-27.50
-24.63
-21.14
-17.31
-13.31
-9.21
-5.11
-1.12
2.57
5.80
8.44
10.44
11.78
12.57
13.00
13.26
13.49
13.62
13.38
12.46
10.79
8.57
6.41
4.82
4.00
3.70
3.32
2.26
0.28
-2.46
-5.48
-8.36
-10.89
-13.13
-15.29
-17.57
-19.95
-22.29
-24.34
-25.81
-26.44
-25.94
-24.07
-20.68
-15.99
-10.43
-4.72
0.51
4.87
8.36
11.26
13.92
16.47
18.77
20.60
21.76
22.31
22.51
22.69
23.12
23.85
24.89
26.17
27.63
29.13
30.38
30.99
30.55
28.88
26.11
22.64
19.00
15.61
12.59
9.84
7.01
3.79
0.05
-4.07
-8.14
-11.66
-14.28
-15.86
-16.52
-16.54
-16.17
-15.58
-14.81
-13.88
-12.86
-11.89
-11.15
-10.80
-10.85
-11.14
-11.42
-11.48
-11.24
-10.81
-10.42
-10.23
-10.24
-10.27
-10.09
-9.61
-8.98
-8.56
-8.71
-9.62
-11.16
-12.97
-14.71
-16.12
-17.22
-18.08
-18.84
-19.55
-20.33
-21.36
-22.88
-25.11
-28.03
-31.45
-34.94
-38.06
-40.45
-41.88
-42.34
-41.91
-40.74
-38.94
-36.51
-33.17
-28.46
-21.84
-13.02
-2.16
9.95
22.16
33.33
42.66
50.02
55.71
60.28
64.07
67.16
69.30
70.18
69.68
67.93
65.30
62.22
59.04
55.88
52.69
49.31
45.59
41.51
37.14
32.58
27.79
22.60
16.66
9.70
1.68
-7.11
-15.96
-24.02
-30.55
-35.11
-37.72
-38.62
-38.27
-37.03
-35.18
-32.90
-30.34
-27.69
-25.18
-23.08
-21.48
-20.42
-19.67
-18.90
-17.79
-16.22
-14.37
-12.62
-11.46
-11.16
-11.72
-12.77
-13.83
-14.48
-14.63
-14.46
-14.35
-14.61
-15.36
-16.47
-17.58
-18.39
-18.77
-18.90
-19.21
-20.20
-22.24
-25.39
-29.36
-33.52
-37.09
-39.33
-39.69
-37.92
-34.17
-28.79
-22.21
-14.83
-6.91
1.30
9.51
17.39
24.65
31.04
36.48
40.92
44.26
46.25
46.51
44.80
41.13
35.93
29.91
23.77
18.03
12.86
8.27
4.14
0.42
-2.87
-5.79
-8.47
-11.08
-13.88
-17.03
-20.55
-24.38
-28.34
-32.14
-35.41
-37.66
-38.39
-37.34
-34.61
-30.64
-26.15
-21.80
-17.95
-14.65
-11.70
-8.89
-6.15
-3.60
-1.46
0.09
1.01
1.36
1.28
0.85
0.17
-0.59
-1.11
-0.96
0.26
2.71
6.18
10.05
13.54
15.98
17.07
16.92
15.93
14.57
13.10
11.57
9.98
8.36
6.81
5.48
4.42
3.51
2.63
1.69
0.89
0.59
1.21
2.94
5.55
8.51
11.13
12.84
13.44
13.07
12.12
11.00
9.95
8.97
8.00
6.95
5.84
4.79
3.89
3.11
2.32
1.37
0.16
-1.32
-3.01
-4.89
-7.01
-9.50
-12.43
-15.76
-19.22
-22.41
-24.93
-26.49
-27.02
-26.67
-25.74
-24.55
-23.37
-22.30
-21.33
-20.37
-19.32
-18.16
-17.01
-16.07
-15.49
-15.24
-15.10
-14.62
-13.42
-11.37
-8.71
-6.07
-4.15
-3.44
-3.95
-5.32
-7.03
-8.70
-10.25
-11.89
-13.84
-16.13
-18.53
-20.61
-22.00
-22.51
-22.21
-21.32
-20.09
-18.66
-17.10
-15.37
-13.38
-11.04
-8.18
-4.69
-0.55
4.02
8.60
12.72
15.94
18.14
19.56
20.63
21.71
22.84
23.76
24.08
23.57
22.34
20.77
19.28
17.97
16.59
14.65
11.85
8.35
4.77
2.00
0.65
0.81
2.01
3.55
4.89
5.89
6.76
7.78
9.13
10.63
11.90
12.52
12.35
11.51
10.34
9.21
8.30
7.60
6.96
6.16
5.11
3.85
2.55
1.35
0.23
-0.93
-2.33
-4.06
-6.05
-8.12
-10.12
-12.12
-14.44
-17.47
-21.42
-26.09
-30.94
-35.22
-38.31
-39.88
-39.83
-38.24
-35.17
-30.72
-24.99
-18.14
-10.41
-2.03
6.77
15.64
24.08
31.57
37.64
42.06
45.02
47.01
48.59
50.19
51.95
53.76
55.40
56.57
56.92
56.10
53.70
49.52
43.54
36.08
27.70
19.08
10.87
3.60
-2.33
-6.71
-9.59
-11.23
-12.12
-12.90
-14.13
-16.15
-18.90
-22.05
-25.09
-27.53
-29.02
-29.40
-28.62
-26.72
-23.70
-19.60
-14.55
-8.82
-2.87
2.74
7.50
11.10
13.55
15.23
16.62
18.13
19.82
21.51
22.79
23.37
23.14
22.28
21.10
19.90
18.86
18.06
17.51
17.22
17.16
17.20
17.11
16.64
15.63
14.07
12.15
10.05
7.83
5.32
2.26
-1.50
-5.86
-10.37
-14.38
-17.26
-18.76
-19.03
-18.55
-17.90
-17.43
-17.09
-16.50
-15.12
-12.53
-8.69
-3.92
1.20
6.00
9.96
12.87
14.76
15.97
16.91
17.93
19.12
20.25
20.89
20.63
19.42
17.57
15.64
14.14
13.29
12.82
12.27
11.28
9.81
8.19
6.82
5.92
5.38
4.90
4.16
2.99
1.45
-0.42
-2.66
-5.45
-8.92
-12.90
-16.91
-20.20
-22.07
-22.10
-20.26
-16.88
-12.44
-7.39
-2.00
3.53
9.03
14.24
18.86
22.62
25.45
27.49
29.11
30.65
32.25
33.64
34.32
33.76
31.76
28.66
25.28
22.53
21.15
21.30
22.61
24.31
25.61
25.92
25.06
23.36
21.52
20.53
21.45
25.19
32.09
41.44
51.18
58.05
58.25
48.64
28.08
-1.89
-37.24
-72.59
-102.77
-124.07
-134.74
-134.69
-124.94
-106.94
-82.56
-54.16
-24.59
2.98
25.81
42.27
52.18
56.66
57.52
56.38
54.23
51.17
46.84
40.91
33.50
25.30
17.33
10.51
5.28
1.53
-1.23
-3.56
-5.84
-8.18
-10.44
-12.43
-14.04
-15.39
-16.77
-18.56
-21.10
-24.40
-28.07
-31.43
-33.68
-34.29
-33.16
-30.61
-27.25
-23.62
-19.96
-16.26
-12.35
-8.07
-3.55
0.90
4.88
8.08
10.32
11.60
12.05
11.87
11.28
10.52
9.81
9.27
8.92
8.71
8.56
8.34
7.99
7.54
7.02
6.51
6.01
5.43
4.55
3.10
0.89
-2.11
-5.68
-9.46
-12.97
-15.75
-17.46
-17.85
-16.81
-14.40
-10.88
-6.75
-2.63
0.89
3.43
4.91
5.57
5.81
6.05
6.60
7.58
8.95
10.53
12.00
13.00
13.23
12.50
10.89
8.72
6.44
4.49
3.06
2.09
1.24
0.12
-1.54
-3.82
-6.63
-9.73
-12.90
-15.92
-18.58
-20.62
-21.80
-21.92
-20.92
-18.89
-16.10
-12.76
-9.07
-5.17
-1.22
2.52
5.70
7.95
9.16
9.41
8.98
8.21
7.23
6.15
5.02
4.04
3.58
3.93
5.13
6.78
8.11
8.39
7.23
4.79
1.66
-1.42
-4.01
-6.07
-7.84
-9.61
-11.43
-13.04
-14.02
-14.01
-12.93
-11.02
-8.72
-6.57
-4.89
-3.86
-3.28
-2.82
-2.11
-0.90
0.67
2.24
3.29
3.45
2.72
1.51
0.37
-0.26
-0.32
-0.09
0.00
-0.36
-1.23
-2.35
-3.44
-4.27
-4.92
-5.62
-6.63
-8.10
-9.97
-11.94
-13.73
-15.09
-15.96
-16.46
-16.75
-16.90
-16.71
-15.79
-13.70
-10.25
-5.67
-0.53
4.40
8.52
11.57
13.66
15.00
15.74
15.88
15.32
14.04
12.22
10.24
8.51
7.28
6.61
6.30
6.04
5.56
4.72
3.50
2.05
0.53
-0.93
-2.34
-3.83
-5.57
-7.66
-10.00
-12.42
-14.61
-16.46
-18.03
-19.46
-20.85
-22.10
-22.84
-22.59
-21.05
-18.21
-14.45
-10.39
-6.62
-3.51
-1.15
0.62
1.99
3.15
4.20
5.16
6.02
6.77
7.34
7.69
7.76
7.51
6.93
6.11
5.17
4.24
3.44
2.78
2.16
1.33
-0.00
-2.05
-4.82
-8.10
-11.45
-14.29
-16.15
-16.63
-15.65
-13.39
-10.29
-6.90
-3.70
-0.93
1.42
3.56
5.63
7.60
9.28
10.50
11.18
11.43
11.50
11.62
11.83
12.00
11.89
11.36
10.40
9.13
7.77
6.56
5.70
5.29
5.29
5.40
5.18
4.17
2.11
-0.88
-4.32
-7.51
-9.79
-10.67
-9.91
-7.57
-3.90
0.61
5.36
9.75
13.32
15.91
17.69
18.95
19.85
20.28
19.90
18.45
16.01
13.09
10.39
8.37
7.11
6.23
5.31
4.15
2.98
2.16
2.01
2.39
2.85
2.77
1.68
-0.44
-3.26
-6.26
-9.01
-11.22
-12.77
-13.51
-13.25
-11.80
-9.06
-5.18
-0.54
4.38
9.09
13.28
16.79
19.55
21.54
22.76
23.25
23.19
22.80
22.34
21.96
21.71
21.55
21.40
21.18
20.77
19.96
18.47
16.07
12.76
8.74
4.45
0.30
-3.53
-7.17
-10.86
-14.87
-19.18
-23.47
-27.25
-30.07
-31.68
-32.09
-31.51
-30.21
-28.46
-26.46
-24.31
-22.07
-19.79
-17.49
-15.24
-13.06
-10.95
-8.95
-7.05
-5.34
-3.96
-3.21
-3.40
-4.69
-6.97
-9.69
-12.24
-14.09
-15.09
-15.52
-15.80
-16.29
-17.06
-17.97
-18.86
-19.72
-20.75
-22.20
-24.13
-26.38
-28.65
-30.65
-32.33
-33.68
-34.55
-34.54
-33.04
-29.52
-23.88
-16.68
-8.86
-1.44
4.93
10.13
14.53
18.74
23.24
28.26
33.74
39.37
44.79
49.59
53.37
55.74
56.36
55.05
51.87
47.13
41.33
35.02
28.72
22.81
17.51
12.84
8.73
5.02
1.55
-1.79
-5.11
-8.48
-11.96
-15.58
-19.27
-22.81
-25.74
-27.44
-27.31
-25.02
-20.74
-15.12
-9.02
-3.21
1.91
6.25
9.93
13.02
15.41
16.93
17.55
17.44
16.95
16.47
16.09
15.69
15.00
13.80
12.09
10.00
7.73
5.36
2.91
0.42
-1.93
-3.83
-5.07
-5.64
-5.95
-6.66
-8.50
-11.84
-16.56
-22.06
-27.48
-32.07
-35.35
-37.12
-37.40
-36.16
-33.39
-29.18
-23.81
-17.91
-12.30
-7.63
-4.21
-1.89
-0.30
0.99
2.09
2.89
3.25
3.19
2.98
2.96
3.28
3.91
4.58
5.05
5.25
5.28
5.18
4.83
4.01
2.51
0.42
-1.90
-3.97
-5.50
-6.55
-7.50
-8.72
-10.40
-12.48
-14.70
-16.83
-18.69
-20.07
-20.65
-20.05
-17.94
-14.27
-9.31
-3.59
2.26
7.79
12.63
16.55
19.37
20.94
21.23
20.40
18.80
16.86
14.98
13.45
12.45
11.99
11.97
12.20
12.41
12.33
11.75
10.58
8.91
6.84
4.54
2.23
0.08
-1.72
-3.07
-3.94
-4.50
-5.01
-5.69
-6.64
-7.76
-8.76
-9.33
-9.26
-8.46
-7.07
-5.34
-3.50
-1.69
0.14
2.13
4.36
6.76
9.02
10.69
11.43
11.20
10.28
9.24
8.60
8.65
9.30
10.19
10.83
10.83
10.04
8.48
6.37
3.98
1.56
-0.73
-2.85
-4.88
-6.99
-9.36
-12.14
-15.34
-18.89
-22.56
-26.06
-29.00
-30.97
-31.63
-30.72
-28.23
-24.41
-19.73
-14.73
-9.95
-5.67
-1.89
1.55
4.73
7.60
9.95
11.59
12.48
12.85
13.03
13.22
13.36
13.19
12.38
10.85
8.79
6.53
4.39
2.48
0.75
-0.89
-2.54
-4.28
-6.20
-8.45
-11.23
-14.69
-18.85
-23.49
-28.16
-32.18
-34.83
-35.50
-33.88
-30.12
-24.82
-18.84
-13.03
-7.95
-3.72
-0.13
3.16
6.39
9.56
12.45
14.79
16.36
17.10
17.08
16.52
15.67
14.79
14.06
13.61
13.45
13.48
13.52
13.30
12.55
11.03
8.65
5.46
1.69
-2.40
-6.51
-10.52
-14.47
-18.53
-22.79
-27.01
-30.54
-32.49
-32.10
-29.19
-24.21
-18.15
-12.00
-6.38
-1.40
3.12
7.24
10.80
13.44
14.91
15.30
15.08
14.80
14.82
15.16
15.56
15.75
15.63
15.28
14.88
14.51
14.13
13.65
12.95
12.05
10.97
9.79
8.52
7.09
5.34
3.06
0.03
-3.92
-8.76
-14.25
-19.88
-24.92
-28.60
-30.25
-29.49
-26.33
-21.12
-14.51
-7.30
-0.22
6.20
11.66
16.09
19.49
21.94
23.52
24.39
24.76
24.83
24.80
24.72
24.53
24.09
23.32
22.23
20.92
19.54
18.19
16.91
15.63
14.27
12.72
10.89
8.72
6.19
3.34
0.25
-3.03
-6.47
-10.12
-14.03
-18.16
-22.24
-25.78
-28.07
-28.41
-26.43
-22.29
-16.60
-10.31
-4.31
0.83
4.92
8.11
10.59
12.56
14.09
15.24
16.06
16.62
16.99
17.23
17.32
17.23
16.91
16.30
15.45
14.53
13.86
13.65
13.92
14.34
14.35
13.39
11.25
8.16
4.71
1.55
-0.96
-2.94
-4.86
-7.32
-10.63
-14.62
-18.74
-22.05
-23.65
-22.91
-19.74
-14.61
-8.46
-2.22
3.32
7.83
11.24
13.65
15.19
15.95
16.05
15.78
15.56
15.73
16.47
17.56
18.45
18.47
17.19
14.51
10.86
6.94
3.45
0.88
-0.72
-1.63
-2.35
-3.35
-5.00
-7.47
-10.71
-14.64
-19.05
-23.52
-27.51
-30.34
-31.38
-30.25
-26.98
-22.02
-16.09
-9.88
-3.89
1.58
6.44
10.59
13.86
16.10
17.27
17.47
17.12
16.70
16.61
17.07
17.93
18.85
19.39
19.26
18.40
17.00
15.33
13.61
12.03
10.57
9.15
7.64
5.96
4.01
1.75
-0.83
-3.79
-7.16
-11.04
-15.47
-20.39
-25.43
-29.94
-33.06
-34.02
-32.45
-28.51
-22.94
-16.67
-10.51
-4.90
0.13
4.82
9.34
13.58
17.24
19.84
21.16
21.30
20.64
19.69
18.79
18.06
17.43
16.82
16.29
16.02
16.16
16.64
17.10
16.96
15.80
13.50
10.39
7.13
4.38
2.48
1.33
0.46
-0.81
-3.04
-6.53
-11.09
-16.19
-21.03
-24.87
-27.22
-27.92
-27.11
-25.02
-21.94
-18.16
-13.89
-9.49
-5.34
-1.72
1.24
3.66
5.86
8.07
10.34
12.47
14.12
15.10
15.39
15.21
14.83
14.49
14.33
14.35
14.45
14.47
14.20
13.37
11.92
9.94
7.72
5.60
3.83
2.33
0.70
-1.56
-4.75
-8.86
-13.49
-18.09
-22.07
-24.94
-26.37
-26.11
-24.09
-20.45
-15.63
-10.29
-5.14
-0.68
2.99
6.02
8.80
11.60
14.40
16.84
18.40
18.71
17.70
15.76
13.49
11.42
9.81
8.59
7.49
6.37
5.22
4.23
3.46
2.82
2.03
0.77
-1.10
-3.47
-6.07
-8.77
-11.62
-14.82
-18.52
-22.59
-26.58
-29.77
-31.46
-31.14
-28.64
-24.22
-18.45
-12.09
-5.87
-0.29
4.37
8.16
11.20
13.53
15.11
15.82
15.66
14.85
13.74
12.78
12.22
12.14
12.35
12.53
12.32
11.46
9.88
7.67
5.01
2.15
-0.72
-3.39
-5.65
-7.40
-8.69
-9.81
-11.19
-13.26
-16.27
-20.12
-24.42
-28.50
-31.66
-33.30
-33.03
-30.76
-26.70
-21.35
-15.37
-9.45
-4.11
0.40
4.10
7.10
9.50
11.31
12.51
13.09
13.22
13.15
13.14
13.38
13.86
14.47
15.03
15.37
15.41
15.06
14.25
12.85
10.85
8.36
5.62
2.91
0.43
-1.84
-4.07
-6.50
-9.25
-12.35
-15.80
-19.58
-23.69
-27.97
-31.99
-35.05
-36.35
-35.35
-31.98
-26.73
-20.47
-14.08
-8.22
-3.18
1.04
4.49
7.24
9.23
10.48
11.17
11.64
12.24
13.10
13.93
14.20
13.41
11.47
8.80
6.18
4.30
3.37
3.08
2.78
1.84
0.02
-2.52
-5.33
-7.99
-10.27
-12.25
-14.24
-16.48
-19.20
-22.46
-26.24
-30.42
-34.81
-39.12
-42.89
-45.47
-46.26
-44.87
-41.24
-35.84
-29.41
-22.73
-16.35
-10.44
-4.96
0.18
4.87
8.87
11.96
14.13
15.68
17.02
18.41
19.84
21.05
21.83
22.19
22.42
22.84
23.59
24.48
25.19
25.46
25.36
25.11
25.00
25.15
25.52
26.03
26.62
27.32
28.00
28.32
27.77
25.82
22.28
17.51
12.41
8.05
5.42
5.01
6.76
10.10
14.27
18.57
22.50
25.78
28.28
29.90
30.51
30.04
28.51
26.10
23.20
20.20
17.44
15.01
12.92
11.10
9.46
7.99
6.62
5.23
3.64
1.72
-0.56
-3.09
-5.67
-8.15
-10.47
-12.71
-15.02
-17.56
-20.41
-23.61
-27.18
-31.01
-34.83
-38.11
-40.14
-40.25
-38.06
-33.67
-27.68
-21.03
-14.62
-9.02
-4.34
-0.31
3.46
7.18
10.81
14.07
16.68
18.46
19.45
19.80
19.62
18.97
17.85
16.31
14.60
13.03
11.87
11.16
10.60
9.69
7.95
5.15
1.50
-2.49
-6.18
-9.19
-11.59
-13.82
-16.45
-19.87
-24.01
-28.35
-32.15
-34.77
-35.83
-35.25
-33.13
-29.63
-24.88
-19.10
-12.59
-5.82
0.62
6.26
10.78
14.17
16.61
18.44
19.85
20.95
21.66
21.87
21.53
20.69
19.54
18.24
16.91
15.59
14.27
12.99
11.80
10.74
9.71
8.45
6.67
4.20
1.13
-2.18
-5.27
-7.86
-9.98
-11.97
-14.26
-17.10
-20.43
-23.85
-26.78
-28.71
-29.27
-28.38
-26.16
-22.88
-18.86
-14.47
-10.05
-5.95
-2.46
0.17
1.84
2.63
2.69
2.26
1.53
0.60
-0.45
-1.61
-2.90
-4.33
-5.95
-7.82
-9.85
-11.82
-13.44
-14.39
-14.46
-13.69
-12.25
-10.42
-8.41
-6.38
-4.44
-2.80
-1.74
-1.56
-2.43
-4.26
-6.63
-8.85
-10.14
-9.91
-7.92
-4.37
0.15
4.94
9.39
13.12
16.05
18.36
20.23
21.85
23.25
24.38
25.11
25.33
24.94
23.90
22.34
20.52
18.82
17.55
16.79
16.38
15.98
15.27
14.08
12.49
10.72
9.03
7.60
6.39
5.17
3.62
1.35
-1.85
-5.96
-10.61
-15.12
-18.68
-20.57
-20.40
-18.17
-14.31
-9.52
-4.55
-0.10
3.36
5.67
6.98
7.66
8.10
8.51
8.91
9.17
9.22
9.16
9.12
9.20
9.26
8.99
8.04
6.24
3.74
0.80
-2.32
-5.56
-9.00
-12.73
-16.73
-20.85
-24.98
-29.05
-33.14
-37.22
-41.05
-44.12
-45.77
-45.49
-43.11
-38.84
-33.22
-26.82
-20.10
-13.37
-6.79
-0.51
5.25
10.24
14.17
16.87
18.33
18.76
18.54
18.05
17.47
16.82
15.91
14.62
12.96
11.15
9.43
7.94
6.60
5.19
3.43
1.20
-1.44
-4.39
-7.59
-11.20
-15.52
-20.75
-26.73
-32.87
-38.20
-41.68
-42.57
-40.70
-36.47
-30.65
-24.05
-17.34
-10.92
-5.03
0.13
4.30
7.27
9.05
9.87
10.16
10.36
10.62
10.73
10.20
8.55
5.66
1.86
-2.15
-5.60
-7.96
-9.18
-9.70
-10.30
-11.75
-14.59
-18.88
-24.28
-30.11
-35.52
-39.77
-42.34
-42.94
-41.55
-38.38
-33.75
-28.02
-21.55
-14.66
-7.69
-0.92
5.36
10.87
15.35
18.66
20.71
21.55
21.33
20.32
18.82
17.20
15.83
14.98
14.73
14.99
15.48
15.91
16.08
15.88
15.27
14.17
12.39
9.71
5.94
1.19
-4.11
-9.18
-13.15
-15.24
-15.01
-12.46
-7.92
-1.99
4.69
11.50
17.98
23.87
29.05
33.49
37.17
40.06
42.11
43.28
43.65
43.32
42.45
41.18
39.60
37.78
35.76
33.57
31.21
28.66
25.82
22.57
18.84
14.74
10.58
6.75
3.51
0.88
-1.50
-4.26
-7.93
-12.73
-18.26
-23.59
-27.58
-29.33
-28.35
-24.79
-19.15
-12.22
-4.73
2.62
9.31
14.97
19.45
22.74
24.99
26.43
27.24
27.60
27.58
27.26
26.68
25.87
24.87
23.70
22.45
21.25
20.26
19.59
19.20
18.90
18.40
17.43
15.84
13.71
11.21
8.49
5.54
2.15
-1.89
-6.51
-11.20
-15.04
-16.95
-16.21
-12.68
-6.82
0.51
8.54
16.77
24.96
32.97
40.45
46.85
51.63
54.54
55.76
55.87
55.50
55.12
54.77
54.26
53.29
51.67
49.37
46.44
42.89
38.68
33.82
28.40
22.68
16.99
11.66
6.91
2.84
-0.51
-3.21
-5.42
-7.43
-9.53
-11.89
-14.27
-16.07
-16.34
-14.07
-8.63
-0.04
10.98
23.16
35.17
46.01
55.44
64.04
73.07
84.09
98.36
116.42
137.85
161.13
183.83
202.85
214.82
216.85
207.28
186.45
156.72
121.79
85.61
51.20
20.09
-7.39
-31.33
-51.61
-67.51
-78.25
-83.52
-83.89
-80.70
-75.68
-70.42
-66.14
-63.70
-63.58
-65.88
-70.12
-75.17
-79.45
-81.37
-79.87
-74.70
-66.52
-56.50
-46.01
-36.16
-27.58
-20.36
-14.25
-8.92
-4.18
-0.10
3.18
5.61
7.44
9.26
11.77
15.43
20.24
25.64
30.80
34.92
37.59
38.86
39.15
39.07
39.21
39.99
41.58
43.68
45.48
45.86
43.63
38.16
29.59
18.92
7.61
-3.03
-12.18
-19.64
-25.53
-30.14
-33.70
-36.52
-39.01
-41.62
-44.62
-47.75
-50.36
-51.69
-51.26
-49.22
-46.32
-43.47
-41.41
-40.39
-40.20
-40.55
-41.19
-42.24
-44.02
-46.98
-51.51
-57.75
-65.63
-74.83
-84.88
-95.24
-105.36
-114.72
-122.73
-128.80
-132.30
-132.85
-130.42
-125.54
-119.13
-112.24
-105.76
-100.01
-94.87
-89.95
-84.89
-79.56
-74.10
-68.65
-63.23
-57.73
-52.00
-45.91
-39.55
-33.17
-27.06
-21.53
-16.82
-13.16
-10.66
-9.33
-9.02
-9.45
-10.28
-11.29
-12.30
-13.33
-14.47
-15.91
-17.77
-20.15
-22.97
-25.96
-28.54
-30.00
-29.67
-27.26
-23.12
-18.17
-13.79
-11.12
-10.78
-12.65
-16.00
-19.90
-23.59
-26.61
-28.64
-29.37
-28.40
-25.47
-20.74
-14.89
-8.82
-3.28
1.48
5.80
10.20
15.09
20.37
25.50
29.79
32.68
34.03
34.00
32.96
31.26
29.18
26.85
24.35
21.78
19.31
17.13
15.32
13.84
12.38
10.64
8.37
5.65
2.75
-0.00
-2.41
-4.57
-6.71
-9.17
-12.22
-16.06
-20.80
-26.43
-32.64
-38.85
-44.24
-47.99
-49.56
-48.85
-46.18
-42.05
-37.07
-31.78
-26.71
-22.26
-18.47
-14.98
-11.02
-5.78
1.16
9.51
18.38
26.72
33.79
39.61
44.68
49.91
56.05
63.42
71.78
80.50
88.54
94.74
98.02
97.63
93.44
86.05
76.61
66.45
56.62
47.58
39.30
31.52
24.10
17.26
11.37
6.72
3.33
0.92
-0.92
-2.37
-3.37
-3.76
-3.48
-2.91
-2.76
-3.68
-5.95
-9.26
-12.67
-15.21
-16.19
-15.41
-13.15
-9.89
-6.03
-1.76
2.82
7.63
12.30
16.17
18.56
18.91
16.99
13.06
7.67
1.42
-5.16
-11.75
-18.09
-23.85
-28.56
-31.73
-33.03
-32.50
-30.60
-28.00
-25.29
-22.78
-20.36
-17.73
-14.63
-11.04
-7.26
-3.74
-0.87
1.17
2.52
3.50
4.40
5.39
6.39
7.16
7.40
7.00
5.99
4.50
2.67
0.50
-2.04
-4.96
-8.03
-10.83
-12.86
-13.82
-13.69
-12.88
-11.97
-11.49
-11.71
-12.59
-13.87
-15.27
-16.57
-17.65
-18.37
-18.51
-17.85
-16.25
-13.79
-10.85
-7.89
-5.41
-3.65
-2.58
-1.95
-1.35
-0.49
0.77
2.40
4.26
6.16
7.98
9.68
11.23
12.60
13.64
14.09
13.70
12.38
10.33
8.05
6.17
5.18
5.17
5.89
6.98
8.15
9.45
11.02
13.05
15.44
17.86
19.89
21.19
21.63
21.26
20.15
18.42
16.19
13.73
11.36
9.49
8.42
8.20
8.64
9.45
10.31
10.91
10.94
10.08
8.17
5.26
1.69
-1.95
-5.08
-7.25
-8.43
-8.94
-9.47
-10.64
-12.81
-15.76
-18.84
-21.16
-21.94
-20.91
-18.32
-14.80
-11.04
-7.52
-4.38
-1.62
0.81
2.85
4.35
5.23
5.60
5.72
5.80
5.90
5.85
5.31
4.11
2.33
0.42
-0.90
-1.13
-0.27
1.16
2.17
1.82
-0.34
-4.13
-8.81
-13.45
-17.38
-20.28
-22.19
-23.31
-23.86
-23.93
-23.65
-23.09
-22.40
-21.65
-20.80
-19.70
-18.15
-16.00
-13.23
-10.00
-6.59
-3.35
-0.57
1.63
3.27
4.45
5.32
5.80
5.72
4.91
3.37
1.36
-0.65
-2.18
-2.89
-2.80
-2.15
-1.36
-0.88
-1.08
-2.11
-3.94
-6.31
-8.84
-11.17
-13.03
-14.29
-14.86
-14.62
-13.44
-11.25
-8.10
-4.28
-0.24
3.58
6.89
9.62
11.80
13.54
14.84
15.64
15.90
15.67
15.11
14.42
13.73
13.02
12.15
10.90
9.17
7.07
4.87
2.92
1.35
0.08
-1.25
-3.11
-5.76
-9.18
-13.06
-16.95
-20.44
-23.27
-25.19
-26.01
-25.46
-23.38
-19.82
-15.16
-10.01
-5.01
-0.61
3.06
6.10
8.66
10.87
12.68
14.04
15.01
15.75
16.46
17.27
18.12
18.80
18.98
18.40
16.98
14.80
12.13
9.26
6.40
3.64
0.90
-1.98
-5.16
-8.69
-12.54
-16.54
-20.46
-24.05
-26.98
-28.83
-29.20
-27.82
-24.69
-20.11
-14.60
-8.68
-2.79
2.82
8.04
12.75
16.68
19.45
20.73
20.50
19.12
17.26
15.67
14.81
14.80
15.30
15.77
15.74
15.02
13.73
12.22
10.80
9.56
8.32
6.78
4.69
1.96
-1.27
-4.79
-8.37
-11.91
-15.31
-18.44
-20.98
-22.46
-22.43
-20.63
-17.14
-12.40
-7.01
-1.56
3.54
8.07
11.99
15.36
18.20
20.50
22.20
23.24
23.59
23.31
22.46
21.19
19.64
18.06
16.74
15.93
15.67
15.78
15.89
15.60
14.71
13.34
11.81
10.44
9.40
8.47
7.21
5.22
2.28
-1.45
-5.59
-9.69
-13.46
-16.74
-19.44
-21.48
-22.64
-22.56
-20.89
-17.40
-12.21
-5.81
1.02
7.44
12.76
16.65
19.12
20.50
21.26
21.86
22.63
23.73
25.13
26.63
27.97
28.87
29.16
28.84
28.10
27.19
26.24
25.19
23.70
21.45
18.27
14.33
10.04
6.00
2.65
0.12
-1.81
-3.58
-5.69
-8.42
-11.79
-15.56
-19.34
-22.67
-25.13
-26.32
-25.98
-23.99
-20.45
-15.67
-10.13
-4.30
1.38
6.62
11.21
14.92
17.52
18.87
19.06
18.49
17.75
17.30
17.32
17.63
17.81
17.51
16.73
15.79
15.11
14.92
15.09
15.17
14.60
13.09
10.70
7.91
5.28
3.27
2.07
1.46
0.90
-0.18
-2.30
-5.61
-9.92
-14.68
-19.14
-22.45
-24.02
-23.56
-21.25
-17.64
-13.42
-9.27
-5.61
-2.55
0.04
2.43
4.85
7.34
9.75
11.73
12.98
13.43
13.32
13.09
13.24
14.09
15.57
17.35
18.89
19.65
19.34
17.93
15.74
13.25
10.95
9.10
7.66
6.28
4.60
2.33
-0.47
-3.56
-6.62
-9.53
-12.34
-15.04
-17.44
-19.04
-19.23
-17.66
-14.49
-10.37
-6.07
-2.11
1.44
4.90
8.59
12.58
16.61
20.25
23.19
25.34
26.88
27.98
28.70
28.95
28.59
27.61
26.15
24.45
22.72
21.12
19.65
18.24
16.81
15.27
13.57
11.70
9.73
7.71
5.66
3.50
1.10
-1.66
-4.76
-7.92
-10.67
-12.53
-13.21
-12.68
-11.22
-9.23
-7.05
-4.83
-2.56
-0.14
2.45
5.05
7.39
9.21
10.39
10.96
11.13
11.16
11.21
11.39
11.73
12.21
12.72
13.09
13.09
12.52
11.35
9.74
8.02
6.50
5.31
4.30
3.10
1.35
-1.17
-4.37
-7.89
-11.21
-13.77
-15.09
-14.88
-13.10
-10.04
-6.21
-2.35
0.85
2.95
3.87
3.83
3.28
2.69
2.35
2.35
2.56
2.81
2.92
2.87
2.73
2.63
2.57
2.48
2.20
1.60
0.74
-0.21
-1.03
-1.64
-2.16
-2.87
-4.09
-6.04
-8.78
-12.19
-16.05
-20.03
-23.68
-26.51
-28.05
-27.97
-26.23
-23.11
-19.05
-14.62
-10.27
-6.32
-2.89
0.03
2.47
4.47
5.93
6.72
6.72
6.01
4.95
4.07
3.84
4.34
5.21
5.88
5.94
5.40
4.71
4.38
4.60
4.96
4.63
2.88
-0.44
-4.76
-9.06
-12.43
-14.45
-15.32
-15.53
-15.45
-15.08
-14.16
-12.39
-9.80
-6.74
-3.71
-1.10
1.05
2.97
4.99
7.25
9.66
11.83
13.38
14.03
13.69
12.53
10.83
8.95
7.18
5.77
4.76
4.07
3.49
2.76
1.71
0.31
-1.31
-2.98
-4.62
-6.28
-8.15
-10.36
-12.92
-15.69
-18.44
-20.93
-22.91
-24.12
-24.28
-23.18
-20.82
-17.45
-13.46
-9.31
-5.28
-1.45
2.19
5.53
8.34
10.41
11.62
12.22
12.55
12.95
13.42
13.60
13.03
11.47
9.11
6.49
4.31
3.00
2.55
2.56
2.43
1.72
0.31
-1.54
-3.41
-4.94
-6.08
-7.04
-8.20
-9.91
-12.23
-14.87
-17.34
-19.05
-19.60
-18.90
-17.19
-14.93
-12.57
-10.34
-8.28
-6.18
-3.82
-1.11
1.84
4.78
7.36
9.37
10.66
11.22
11.08
10.31
9.07
7.57
6.13
5.09
4.70
5.02
5.87
6.94
7.92
8.59
8.78
8.36
7.20
5.32
2.87
0.26
-2.11
-4.01
-5.56
-7.20
-9.37
-12.25
-15.44
-18.13
-19.46
-18.93
-16.65
-13.20
-9.29
-5.48
-2.05
1.00
3.71
6.10
8.11
9.62
10.57
11.01
11.16
11.31
11.69
12.32
12.96
13.27
13.00
12.14
10.92
9.69
8.66
7.87
7.24
6.72
6.46
6.63
7.27
8.08
8.49
7.89
6.05
3.20
-0.11
-3.31
-6.15
-8.66
-10.94
-12.90
-14.17
-14.24
-12.86
-10.25
-7.00
-3.93
-1.61
-0.25
0.38
0.74
1.34
2.47
4.11
5.97
7.61
8.68
9.09
9.02
8.87
9.03
9.52
10.02
10.06
9.26
7.61
5.51
3.58
2.23
1.62
1.51
1.49
1.15
0.18
-1.55
-3.99
-6.94
-10.03
-12.75
-14.64
-15.42
-15.11
-14.04
-12.60
-10.99
-9.18
-7.03
-4.47
-1.66
1.06
3.29
4.82
5.70
6.14
6.42
6.68
6.90
6.93
6.62
5.91
4.89
3.74
2.70
1.92
1.49
1.40
1.55
1.83
2.09
2.18
1.85
0.86
-1.01
-3.85
-7.42
-11.29
-14.90
-17.72
-19.36
-19.68
-18.68
-16.59
-13.71
-10.48
-7.32
-4.62
-2.62
-1.38
-0.78
-0.61
-0.66
-0.85
-1.10
-1.40
-1.65
-1.78
-1.72
-1.60
-1.68
-2.21
-3.31
-4.67
-5.78
-6.10
-5.44
-4.06
-2.61
-1.80
-2.07
-3.44
-5.63
-8.25
-10.96
-13.51
-15.69
-17.30
-18.16
-18.12
-17.16
-15.32
-12.74
-9.63
-6.23
-2.86
0.23
2.80
4.70
5.92
6.47
6.44
5.95
5.14
4.26
3.55
3.15
3.06
3.09
2.99
2.59
1.86
0.86
-0.37
-1.85
-3.64
-5.82
-8.34
-11.10
-13.92
-16.66
-19.23
-21.57
-23.65
-25.31
-26.32
-26.40
-25.34
-23.01
-19.51
-15.09
-10.14
-5.16
-0.67
2.96
5.61
7.39
8.66
9.79
11.00
12.33
13.64
14.72
15.38
15.60
15.47
15.12
14.68
14.15
13.49
12.61
11.44
9.97
8.26
6.40
4.42
2.33
0.11
-2.30
-4.94
-7.74
-10.64
-13.55
-16.38
-18.93
-20.86
-21.76
-21.25
-19.19
-15.81
-11.60
-7.18
-3.05
0.54
3.60
6.21
8.44
10.19
11.38
11.97
12.10
12.06
12.14
12.41
12.69
12.63
11.93
10.55
8.74
6.95
5.59
4.78
4.35
4.00
3.47
2.67
1.77
0.93
0.20
-0.56
-1.69
-3.49
-6.03
-9.11
-12.27
-14.95
-16.68
-17.25
-16.73
-15.39
-13.55
-11.35
-8.76
-5.60
-1.73
2.70
7.16
10.91
13.12
13.33
11.56
8.33
4.51
1.06
-1.25
-1.95
-0.96
1.45
4.79
8.41
11.67
14.07
15.28
15.26
14.18
12.29
9.88
7.14
4.25
1.32
-1.59
-4.45
-7.29
-10.03
-12.40
-13.88
-13.82
-11.70
-7.53
-1.81
4.49
10.31
14.87
17.83
19.29
19.50
18.73
17.24
15.32
13.38
11.85
10.96
10.63
10.47
10.01
8.91
7.17
5.10
3.10
1.46
0.27
-0.67
-1.66
-3.10
-5.26
-8.28
-12.07
-16.29
-20.37
-23.51
-24.99
-24.25
-21.25
-16.47
-10.81
-5.33
-0.83
2.33
4.39
5.82
7.04
8.18
9.08
9.49
9.33
8.71
7.94
7.28
6.78
6.40
6.01
5.57
5.13
4.75
4.38
3.87
2.96
1.43
-0.92
-4.19
-8.35
-13.19
-18.27
-22.97
-26.62
-28.67
-28.80
-26.91
-23.11
-17.70
-11.15
-4.11
2.59
8.11
11.82
13.45
13.29
11.91
10.03
8.16
6.55
5.16
3.87
2.60
1.45
0.60
0.15
-0.01
-0.28
-1.24
-3.27
-6.46
-10.54
-15.04
-19.54
-23.80
-27.70
-31.02
-33.31
-33.97
-32.47
-28.76
-23.29
-16.94
-10.61
-4.78
0.50
5.47
10.30
14.90
18.89
21.91
23.82
24.80
25.32
25.77
26.36
27.08
27.75
28.16
28.19
27.73
26.75
25.32
23.65
22.10
21.05
20.65
20.69
20.61
19.79
17.80
14.75
11.03
7.31
4.01
1.24
-1.21
-3.73
-6.69
-10.31
-14.64
-19.64
-25.09
-30.60
-35.48
-38.93
-40.19
-38.85
-35.03
-29.30
-22.49
-15.38
-8.50
-2.12
3.65
8.68
12.82
15.98
18.25
19.96
21.59
23.42
25.42
27.29
28.63
29.22
29.13
28.66
28.04
27.34
26.36
24.83
22.65
19.92
16.92
13.98
11.29
8.85
6.56
4.35
2.22
0.23
-1.60
-3.33
-5.20
-7.55
-10.67
-14.68
-19.35
-24.15
-28.30
-31.01
-31.71
-30.21
-26.79
-22.04
-16.72
-11.57
-7.03
-3.25
-0.08
2.74
5.44
8.08
10.57
12.84
14.84
16.65
18.33
19.79
20.84
21.16
20.53
18.99
16.77
14.34
12.23
10.84
10.27
10.23
10.16
9.44
7.67
5.01
1.98
-0.65
-2.31
-2.91
-2.81
-2.70
-3.19
-4.62
-6.95
-9.99
-13.44
-17.04
-20.50
-23.43
-25.40
-25.93
-24.75
-21.86
-17.63
-12.71
-7.75
-3.22
0.75
4.36
7.89
11.45
14.87
17.72
19.58
20.28
19.96
18.97
17.67
16.26
14.73
13.06
11.39
9.94
8.95
8.53
8.49
8.49
8.18
7.47
6.55
5.74
5.28
5.11
4.80
3.85
1.93
-0.93
-4.31
-7.59
-10.30
-12.32
-13.88
-15.28
-16.57
-17.40
-17.12
-15.25
-11.74
-7.12
-2.27
2.05
5.51
8.27
10.75
13.19
15.52
17.45
18.68
19.15
19.12
18.93
18.86
18.87
18.76
18.32
17.50
16.40
15.22
14.09
12.99
11.79
10.39
8.70
6.75
4.65
2.59
0.68
-1.02
-2.59
-4.20
-6.03
-8.25
-10.94
-14.03
-17.32
-20.49
-23.18
-25.08
-25.98
-25.84
-24.72
-22.72
-19.93
-16.34
-12.04
-7.23
-2.23
2.56
6.77
10.21
12.81
14.59
15.61
15.94
15.75
15.28
14.83
14.70
14.99
15.60
16.27
16.70
16.70
16.24
15.43
14.43
13.37
12.32
11.24
10.07
8.80
7.45
6.11
4.83
3.55
2.08
0.16
-2.41
-5.63
-9.27
-12.92
-16.16
-18.65
-20.24
-20.85
-20.49
-19.15
-16.89
-13.87
-10.42
-6.91
-3.76
-1.30
0.40
1.48
2.28
3.12
4.19
5.42
6.59
7.42
7.78
7.73
7.49
7.35
7.46
7.81
8.18
8.31
8.04
7.36
6.39
5.22
3.93
2.49
0.83
-1.10
-3.29
-5.67
-8.18
-10.65
-12.98
-15.01
-16.60
-17.66
-18.12
-17.97
-17.16
-15.63
-13.35
-10.33
-6.73
-2.89
0.73
3.66
5.59
6.45
6.40
5.80
4.97
4.19
3.61
3.30
3.33
3.66
4.22
4.79
5.09
4.93
4.29
3.35
2.40
1.56
0.74
-0.28
-1.71
-3.51
-5.44
-7.21
-8.75
-10.22
-12.00
-14.31
-17.00
-19.55
-21.31
-21.80
-20.97
-19.12
-16.76
-14.36
-12.14
-10.18
-8.44
-6.95
-5.87
-5.43
-5.80
-7.04
-8.99
-11.39
-13.94
-16.36
-18.34
-19.57
-19.68
-18.35
-15.51
-11.46
-6.81
-2.37
1.10
3.22
4.02
3.87
3.25
2.56
2.04
1.68
1.44
1.28
1.21
1.31
1.67
2.30
3.20
4.35
5.66
7.06
8.41
9.57
10.39
10.86
11.04
11.05
11.00
10.86
10.45
9.51
7.90
5.66
3.17
0.87
-0.88
-1.99
-2.73
-3.52
-4.77
-6.62
-8.92
-11.39
-13.80
-16.16
-18.68
-21.55
-24.79
-28.21
-31.38
-33.85
-35.28
-35.49
-34.43
-32.10
-28.57
-23.98
-18.58
-12.79
-7.09
-1.98
2.22
5.37
7.61
9.24
10.69
12.25
14.03
15.97
17.84
19.38
20.49
21.11
21.28
21.08
20.57
19.85
18.98
18.11
17.33
16.66
15.99
15.10
13.67
11.36
7.99
3.62
-1.42
-6.48
-10.83
-13.83
-15.10
-14.66
-12.86
-10.22
-7.31
-4.63
-2.44
-0.78
0.52
1.72
2.99
4.28
5.38
5.95
5.74
4.80
3.41
2.00
0.91
0.25
-0.04
-0.18
-0.26
-0.18
0.26
1.28
2.99
5.39
8.29
11.46
14.61
17.38
19.42
20.32
19.69
17.24
12.97
7.16
0.39
-6.55
-12.94
-18.17
-21.83
-23.70
-23.65
-21.67
-17.92
-12.81
-7.02
-1.38
3.34
6.67
8.57
9.39
9.62
9.67
9.81
9.99
10.04
9.83
9.35
8.82
8.53
8.63
9.01
9.34
9.19
8.31
6.78
4.90
3.10
1.66
0.65
-0.02
-0.53
-1.00
-1.49
-2.04
-2.88
-4.24
-6.34
-9.23
-12.63
-16.01
-18.79
-20.50
-21.03
-20.53
-19.31
-17.61
-15.54
-13.05
-10.09
-6.78
-3.46
-0.53
1.62
2.87
3.30
3.18
2.70
1.97
0.99
-0.16
-1.32
-2.21
-2.62
-2.46
-1.82
-0.84
0.24
1.22
1.86
1.88
1.01
-0.80
-3.25
-5.80
-7.84
-9.09
-9.74
-10.27
-11.14
-12.49
-14.00
-15.12
-15.38
-14.43
-12.21
-8.87
-4.63
0.15
4.97
9.29
12.66
14.92
16.20
16.84
17.19
17.51
17.90
18.45
19.27
20.46
21.99
23.76
25.52
27.08
28.41
29.49
30.34
30.83
30.70
29.63
27.47
24.29
20.42
16.19
11.89
7.71
3.80
0.29
-2.60
-4.69
-5.90
-6.25
-5.85
-4.84
-3.39
-1.67
0.15
1.87
3.37
4.57
5.40
5.85
5.82
5.17
3.76
1.51
-1.45
-4.80
-8.06
-10.79
-12.71
-13.86
-14.50
-15.05
-15.73
-16.51
-17.07
-16.97
-15.92
-13.94
-11.40
-8.81
-6.66
-5.22
-4.52
-4.47
-4.89
-5.69
-6.72
-7.90
-9.08
-10.11
-10.77
-10.93
-10.51
-9.61
-8.42
-7.12
-5.84
-4.55
-3.13
-1.46
0.42
2.26
3.61
4.06
3.45
2.00
0.21
-1.27
-2.01
-1.91
-1.20
-0.38
0.12
0.01
-0.66
-1.73
-2.88
-3.85
-4.45
-4.59
-4.31
-3.82
-3.50
-3.81
-5.21
-7.94
-11.97
-16.84
-21.86
-26.22
-29.14
-30.15
-29.12
-26.41
-22.65
-18.68
-15.17
-12.47
-10.55
-9.07
-7.63
-5.96
-4.02
-2.03
-0.24
1.12
2.01
2.53
2.85
3.16
3.61
4.25
5.07
5.95
6.73
7.27
7.43
7.21
6.56
5.46
3.84
1.70
-0.78
-3.26
-5.36
-6.89
-7.96
-8.91
-10.11
-11.67
-13.36
-14.72
-15.32
-14.95
-13.74
-12.03
-10.13
-8.21
-6.28
-4.23
-2.03
0.31
2.72
5.16
7.57
9.88
11.98
13.69
14.85
15.32
15.12
14.41
13.51
12.78
12.41
12.33
12.28
11.92
11.04
9.64
7.90
6.10
4.35
2.66
0.93
-0.90
-2.67
-4.20
-5.38
-6.26
-7.19
-8.55
-10.56
-13.18
-16.03
-18.62
-20.45
-21.23
-20.87
-19.53
-17.51
-15.17
-12.85
-10.77
-8.95
-7.24
-5.37
-3.17
-0.71
1.72
3.74
5.16
6.00
6.50
6.94
7.42
7.90
8.29
8.56
8.88
9.48
10.39
11.38
11.98
11.70
10.34
8.11
5.59
3.39
1.83
0.85
0.09
-0.85
-2.10
-3.59
-5.07
-6.34
-7.46
-8.57
-9.79
-11.02
-11.93
-12.15
-11.45
-9.88
-7.79
-5.59
-3.59
-1.87
-0.30
1.27
2.92
4.59
6.18
7.55
8.63
9.42
9.96
10.32
10.52
10.61
10.57
10.36
9.96
9.36
8.66
7.94
7.22
6.45
5.50
4.26
2.73
1.04
-0.57
-1.93
-3.07
-4.27
-5.84
-7.95
-10.49
-13.00
-14.87
-15.56
-14.82
-12.78
-9.83
-6.50
-3.20
-0.12
2.79
5.67
8.61
11.49
14.09
16.13
17.45
17.96
17.71
16.80
15.38
13.67
11.90
10.30
8.99
7.88
6.80
5.54
4.00
2.19
0.19
-1.91
-4.13
-6.48
-8.91
-11.33
-13.61
-15.69
-17.56
-19.24
-20.67
-21.63
-21.81
-20.98
-19.07
-16.28
-12.98
-9.62
-6.42
-3.45
-0.62
2.16
4.83
7.19
8.97
10.02
10.38
10.29
10.10
10.08
10.37
10.89
11.47
11.81
11.68
10.97
9.71
8.13
6.52
5.08
3.86
2.78
1.66
0.36
-1.26
-3.33
-5.93
-9.03
-12.34
-15.39
-17.57
-18.45
-18.01
-16.59
-14.77
-12.96
-11.22
-9.30
-6.92
-4.06
-0.99
1.83
4.08
5.76
7.10
8.42
9.92
11.54
13.05
14.13
14.57
14.27
13.30
11.81
10.02
8.17
6.43
4.80
3.19
1.43
-0.60
-2.89
-5.33
-7.75
-9.95
-11.91
-13.71
-15.54
-17.54
-19.69
-21.74
-23.28
-23.89
-23.32
-21.64
-19.10
-16.09
-12.92
-9.73
-6.54
-3.35
-0.17
2.86
5.63
8.09
10.24
12.11
13.69
14.92
15.80
16.39
16.78
17.03
17.24
17.44
17.73
18.18
18.78
19.31
19.48
18.98
17.65
15.67
13.37
11.12
9.01
6.94
4.60
1.83
-1.33
-4.53
-7.34
-9.47
-10.77
-11.28
-11.08
-10.23
-8.72
-6.65
-4.22
-1.77
0.37
1.97
3.00
3.62
4.12
4.73
5.53
6.43
7.30
7.97
8.38
8.49
8.39
8.18
8.00
8.04
8.40
9.14
10.09
10.94
11.27
10.72
9.14
6.58
3.32
-0.34
-4.11
-7.81
-11.12
-13.71
-15.17
-15.28
-14.12
-12.10
-9.82
-7.75
-6.02
-4.38
-2.39
0.20
3.28
6.36
8.87
10.43
11.01
10.85
10.28
9.56
8.84
8.29
8.06
8.28
8.91
9.66
10.06
9.63
8.15
5.81
3.07
0.41
-1.85
-3.71
-5.45
-7.42
-9.87
-12.82
-16.07
-19.21
-21.81
-23.51
-24.19
-23.96
-23.03
-21.58
-19.66
-17.18
-14.08
-10.52
-6.87
-3.57
-0.91
1.19
3.08
5.19
7.68
10.37
12.81
14.64
15.74
16.43
17.16
18.24
19.54
20.61
20.95
20.28
18.84
17.12
15.61
14.44
13.31
11.75
9.35
6.12
2.38
-1.34
-4.71
-7.69
-10.44
-13.10
-15.61
-17.64
-18.75
-18.72
-17.60
-15.63
-13.12
-10.20
-6.88
-3.05
1.24
5.73
9.89
13.22
15.33
16.20
16.15
15.72
15.44
15.66
16.41
17.39
18.11
18.05
16.92
14.76
11.88
8.67
5.51
2.63
0.10
-2.15
-4.24
-6.41
-8.84
-11.65
-14.77
-17.86
-20.52
-22.41
-23.40
-23.61
-23.22
-22.30
-20.80
-18.60
-15.66
-12.13
-8.28
-4.39
-0.60
3.00
6.33
9.22
11.50
13.05
13.90
14.22
14.14
13.74
12.94
11.74
10.28
8.85
7.69
6.86
6.25
5.57
4.66
3.51
2.21
0.82
-0.76
-2.78
-5.49
-8.92
-12.82
-16.61
-19.70
-21.53
-21.82
-20.45
-17.58
-13.48
-8.59
-3.45
1.32
5.15
7.68
8.88
9.07
8.83
8.72
9.10
10.00
11.13
12.08
12.55
12.50
12.07
11.55
11.14
10.88
10.70
10.44
9.97
9.23
8.17
6.75
4.96
2.76
0.19
-2.68
-5.71
-8.76
-11.68
-14.37
-16.72
-18.61
-19.87
-20.34
-19.84
-18.26
-15.56
-11.83
-7.32
-2.47
2.25
6.39
9.67
12.07
13.76
14.97
15.91
16.65
17.12
17.17
16.75
15.92
14.91
13.99
13.32
12.91
12.65
12.35
11.85
11.06
9.94
8.56
7.00
5.35
3.66
1.87
-0.25
-2.98
-6.50
-10.80
-15.59
-20.31
-24.42
-27.48
-29.27
-29.81
-29.16
-27.46
-24.86
-21.56
-17.87
-14.09
-10.42
-6.92
-3.53
-0.22
2.90
5.60
7.68
9.01
9.63
9.78
9.76
9.88
10.28
10.94
11.60
11.92
11.62
10.60
9.08
7.40
5.89
4.59
3.27
1.61
-0.58
-3.11
-5.62
-7.76
-9.54
-11.31
-13.54
-16.48
-19.84
-22.93
-24.99
-25.55
-24.61
-22.72
-20.46
-18.35
-16.56
-14.96
-13.37
-11.64
-9.78
-7.86
-5.93
-3.98
-1.93
0.16
2.07
3.43
3.97
3.59
2.63
1.72
1.49
2.33
4.19
6.58
8.76
10.18
10.53
9.90
8.66
7.17
5.75
4.50
3.44
2.49
1.60
0.66
-0.42
-1.75
-3.35
-5.13
-6.87
-8.23
-8.94
-8.77
-7.67
-5.71
-3.09
-0.12
2.84
5.42
7.36
8.58
9.14
9.25
9.15
8.99
8.87
8.80
8.72
8.65
8.62
8.73
9.15
10.03
11.49
13.53
15.95
18.38
20.43
21.76
22.22
21.92
21.18
20.40
19.95
20.04
20.62
21.44
22.09
22.24
21.78
20.85
19.87
19.29
19.38
20.03
20.85
21.28
20.95
19.83
18.19
16.51
15.15
14.21
13.61
13.16
12.76
12.39
12.07
11.83
11.57
11.12
10.31
9.08
7.56
5.97
4.58
3.61
3.04
2.64
2.01
0.75
-1.30
-3.97
-6.84
-9.42
-11.45
-13.01
-14.28
-15.43
-16.33
-16.62
-15.95
-14.22
-11.59
-8.46
-5.20
-2.07
0.83
3.42
5.50
6.79
7.08
6.43
5.24
4.06
3.40
3.52
4.20
5.03
5.52
5.29
4.25
2.60
0.62
-1.42
-3.43
-5.55
-8.09
-11.33
-15.38
-20.03
-24.72
-28.68
-31.26
-32.12
-31.39
-29.54
-27.07
-24.36
-21.49
-18.42
-15.18
-11.94
-9.06
-6.83
-5.34
-4.46
-3.84
-3.11
-2.00
-0.43
1.54
3.75
5.97
8.00
9.72
11.09
12.13
12.79
12.96
12.52
11.39
9.63
7.51
5.32
3.25
1.32
-0.58
-2.47
-4.22
-5.51
-5.97
-5.37
-3.75
-1.46
0.99
3.19
4.97
6.40
7.70
8.97
10.13
10.88
10.91
10.16
8.86
7.46
6.41
5.86
5.63
5.29
4.42
2.85
0.74
-1.64
-4.00
-6.26
-8.40
-10.46
-12.38
-14.01
-15.18
-15.82
-15.98
-15.82
-15.46
-14.92
-14.17
-13.14
-11.79
-10.18
-8.38
-6.51
-4.58
-2.53
-0.35
1.91
4.07
5.93
7.30
8.21
8.80
9.35
10.03
10.82
11.60
12.16
12.34
12.11
11.55
10.71
9.70
8.54
7.28
5.87
4.23
2.27
-0.00
-2.46
-4.92
-7.17
-9.17
-10.97
-12.61
-14.04
-15.02
-15.26
-14.60
-13.07
-10.95
-8.58
-6.22
-3.95
-1.81
0.21
2.02
3.54
4.72
5.50
5.88
5.85
5.43
4.70
3.85
3.13
2.67
2.48
2.44
2.34
2.03
1.49
0.79
0.02
-0.76
-1.58
-2.43
-3.30
-4.08
-4.69
-5.16
-5.61
-6.30
-7.46
-9.12
-11.02
-12.73
-13.85
-14.18
-13.81
-13.02
-12.07
-11.04
-9.79
-8.11
-5.88
-3.28
-0.70
1.38
2.64
3.05
2.82
2.28
1.71
1.26
0.93
0.70
0.58
0.54
0.51
0.32
-0.22
-1.27
-2.79
-4.51
-6.05
-7.07
-7.35
-6.96
-6.16
-5.32
-4.72
-4.52
-4.65
-4.89
-5.01
-4.84
-4.35
-3.63
-2.77
-1.79
-0.60
0.99
3.06
5.58
8.26
10.80
12.86
14.31
15.21
15.81
16.43
17.23
18.26
19.39
20.37
21.06
21.43
21.58
21.62
21.62
21.42
20.80
19.61
17.89
15.88
13.92
12.22
10.74
9.28
7.53
5.33
2.72
-0.04
-2.59
-4.54
-5.63
-5.80
-5.18
-4.08
-2.91
-1.96
-1.27
-0.62
0.38
1.98
4.19
6.72
9.19
11.43
13.59
16.04
19.19
23.07
27.37
31.49
35.01
37.82
40.29
42.97
46.49
51.22
57.38
65.07
74.18
84.31
94.43
102.88
107.46
106.02
96.88
79.23
53.19
19.88
-18.66
-59.49
-98.92
-133.06
-158.49
-173.04
-176.07
-168.39
-151.72
-128.23
-100.26
-70.27
-40.93
-14.82
6.02
20.55
28.93
32.19
31.73
28.75
24.15
18.56
12.60
6.96
2.28
-1.09
-3.20
-4.46
-5.47
-6.67
-8.26
-10.12
-11.96
-13.42
-14.29
-14.56
-14.43
-14.25
-14.38
-15.05
-16.27
-17.80
-19.33
-20.59
-21.41
-21.78
-21.75
-21.33
-20.45
-19.06
-17.16
-14.83
-12.23
-9.61
-7.18
-5.14
-3.65
-2.74
-2.34
-2.21
-2.14
-1.92
-1.47
-0.81
0.01
0.96
2.03
3.20
4.32
5.13
5.36
4.81
3.49
1.69
-0.19
-1.71
-2.66
-3.03
-3.05
-3.07
-3.37
-4.13
-5.29
-6.65
-7.93
-8.94
-9.55
-9.75
-9.56
-9.02
-8.24
-7.26
-6.27
-5.34
-4.55
-3.83
-2.95
-1.65
0.22
2.57
5.06
7.11
8.28
8.42
7.73
6.65
5.65
5.07
4.95
5.15
5.47
5.75
5.85
5.66
5.01
3.77
1.98
-0.10
-2.07
-3.59
-4.44
-4.69
-4.54
-4.22
-3.87
-3.49
-3.08
-2.60
-2.11
-1.60
-1.03
-0.36
0.42
1.18
1.82
2.31
2.82
3.59
4.74
6.17
7.50
8.30
8.37
7.86
7.17
6.74
6.66
6.61
6.06
4.63
2.48
0.22
-1.33
-1.69
-1.02
-0.02
0.36
-0.50
-2.65
-5.51
-8.30
-10.34
-11.34
-11.39
-10.72
-9.51
-7.84
-5.78
-3.48
-1.20
0.74
2.15
2.98
3.37
3.48
3.49
3.50
3.54
3.51
3.37
3.03
2.48
1.86
1.25
0.81
0.69
0.91
1.44
2.19
3.05
3.89
4.57
4.90
4.62
3.57
1.74
-0.62
-3.04
-5.08
-6.44
-7.08
-7.14
-6.83
-6.22
-5.28
-3.91
-2.23
-0.58
0.64
1.24
1.36
1.47
2.07
3.43
5.44
7.60
9.36
10.28
10.18
9.19
7.59
5.79
4.15
2.93
2.19
1.80
1.43
0.77
-0.36
-1.93
-3.71
-5.44
-6.94
-8.20
-9.25
-10.15
-10.87
-11.34
-11.53
-11.41
-10.97
-10.15
-8.86
-7.04
-4.76
-2.21
0.27
2.35
3.86
4.80
5.32
5.63
5.80
5.85
5.72
5.42
5.00
4.58
4.22
3.87
3.36
2.51
1.26
-0.31
-1.93
-3.40
-4.65
-5.87
-7.32
-9.16
-11.35
-13.55
-15.38
-16.51
-16.90
-16.63
-15.90
-14.88
-13.64
-12.26
-10.83
-9.43
-8.10
-6.76
-5.32
-3.67
-1.87
-0.15
1.31
2.37
3.04
3.47
3.78
3.99
4.08
3.98
3.73
3.47
3.33
3.36
3.39
3.15
2.38
0.97
-0.93
-2.99
-4.91
-6.55
-7.92
-9.13
-10.21
-10.97
-11.10
-10.32
-8.55
-6.08
-3.40
-0.94
1.08
2.71
4.22
5.83
7.60
9.35
10.76
11.56
11.73
11.50
11.27
11.38
11.86
12.51
12.93
12.81
12.11
11.02
9.77
8.52
7.20
5.70
3.89
1.90
-0.05
-1.75
-3.11
-4.28
-5.47
-6.86
-8.49
-10.22
-11.82
-13.02
-13.60
-13.35
-12.17
-10.15
-7.49
-4.61
-1.96
0.14
1.61
2.65
3.57
4.74
6.31
8.23
10.30
12.25
13.91
15.17
15.98
16.25
15.96
15.17
14.08
12.92
11.88
11.06
10.31
9.50
8.48
7.25
5.78
4.03
1.84
-0.97
-4.43
-8.39
-12.41
-15.96
-18.62
-20.23
-20.86
-20.68
-19.86
-18.41
-16.35
-13.77
-10.90
-8.08
-5.55
-3.36
-1.24
1.04
3.62
6.33
8.75
10.40
11.04
10.78
10.07
9.48
9.42
10.01
11.03
12.03
12.55
12.26
11.02
8.96
6.51
4.20
2.59
1.99
2.30
3.04
3.45
2.85
0.89
-2.27
-6.06
-9.65
-12.36
-13.81
-14.04
-13.37
-12.34
-11.47
-11.11
-11.35
-11.91
-12.28
-11.84
-10.16
-7.22
-3.45
0.46
3.86
6.29
7.75
8.47
8.79
8.94
9.06
9.15
9.26
9.43
9.75
10.23
10.80
11.38
11.91
12.34
12.65
12.67
12.22
11.20
9.62
7.67
5.59
3.58
1.69
-0.22
-2.27
-4.52
-6.90
-9.23
-11.27
-12.81
-13.61
-13.56
-12.68
-11.14
-9.26
-7.41
-5.74
-4.19
-2.45
-0.21
2.56
5.56
8.27
10.18
11.05
11.02
10.50
9.98
9.81
10.09
10.69
11.38
11.95
12.22
12.12
11.67
10.99
10.32
9.91
9.90
10.21
10.53
10.48
9.95
9.13
8.52
8.67
9.88
11.95
14.28
16.20
17.29
17.69
17.98
18.97
21.36
25.40
30.85
37.13
43.51
49.47
54.90
59.99
65.22
71.11
77.98
85.73
93.65
100.24
103.34
100.45
89.33
68.71
38.79
1.46
-39.87
-80.92
-117.32
-145.55
-163.46
-170.54
-167.63
-156.41
-138.86
-117.01
-92.93
-68.92
-47.48
-30.83
-20.27
-15.59
-15.11
-16.34
-16.97
-15.72
-12.55
-8.34
-4.18
-0.81
1.60
3.35
4.89
6.44
7.94
9.12
9.66
9.40
8.44
7.13
5.89
5.02
4.54
4.25
3.88
3.21
2.22
1.08
-0.01
-0.95
-1.70
-2.42
-3.26
-4.29
-5.45
-6.52
-7.25
-7.51
-7.41
-7.30
-7.61
-8.61
-10.20
-11.92
-13.10
-13.21
-12.17
-10.29
-8.04
-5.85
-3.97
-2.43
-1.25
-0.41
0.19
0.76
1.60
2.98
4.90
7.04
8.93
10.06
10.23
9.51
8.13
6.38
4.53
2.73
1.19
0.06
-0.61
-0.91
-1.14
-1.69
-2.80
-4.51
-6.54
-8.44
-9.72
-10.16
-9.75
-8.79
-7.66
-6.65
-5.80
-5.00
-4.05
-2.87
-1.52
-0.20
0.99
2.02
3.07
4.27
5.57
6.73
7.28
6.88
5.51
3.49
1.34
-0.42
-1.58
-2.21
-2.61
-3.12
-3.95
-5.13
-6.56
-8.18
-9.96
-11.97
-14.20
-16.54
-18.68
-20.25
-20.87
-20.30
-18.53
-15.85
-12.72
-9.63
-6.88
-4.51
-2.38
-0.35
1.57
3.21
4.33
4.81
4.81
4.67
4.66
4.93
5.32
5.55
5.39
4.88
4.23
3.76
3.58
3.56
3.31
2.40
0.55
-2.17
-5.43
-8.72
-11.57
-13.69
-14.93
-15.29
-14.82
-13.60
-11.73
-9.41
-6.85
-4.20
-1.48
1.36
4.34
7.35
10.17
12.57
14.36
15.53
16.12
16.25
15.97
15.39
14.65
13.93
13.39
12.98
12.46
11.46
9.74
7.36
4.69
2.26
0.41
-0.87
-1.91
-3.14
-4.89
-7.19
-9.87
-12.60
-15.10
-17.17
-18.67
-19.44
-19.24
-17.93
-15.54
-12.38
-8.96
-5.71
-2.78
-0.06
2.76
5.88
9.26
12.55
15.34
17.31
18.41
18.88
19.04
19.17
19.30
19.30
19.03
18.38
17.41
16.23
15.06
13.99
13.10
12.26
11.21
9.65
7.30
4.09
0.24
-3.76
-7.33
-10.01
-11.69
-12.54
-12.93
-13.19
-13.38
-13.36
-12.86
-11.74
-10.05
-7.98
-5.77
-3.50
-1.17
1.30
3.83
6.17
7.98
9.05
9.51
9.74
10.34
11.63
13.50
15.36
16.49
16.39
15.08
13.11
11.08
9.39
7.94
6.34
4.28
1.69
-1.18
-4.05
-6.72
-9.22
-11.66
-13.97
-15.88
-17.03
-17.17
-16.32
-14.74
-12.76
-10.59
-8.29
-5.81
-3.15
-0.42
2.20
4.57
6.58
8.24
9.60
10.77
11.90
13.12
14.61
16.35
18.20
19.82
20.86
21.03
20.37
19.20
17.93
16.96
16.35
15.88
15.19
14.03
12.39
10.46
8.46
6.43
4.19
1.51
-1.72
-5.28
-8.67
-11.31
-12.79
-13.06
-12.40
-11.20
-9.73
-8.01
-5.86
-3.01
0.53
4.54
8.50
12.01
14.81
16.96
18.70
20.19
21.35
21.93
21.67
20.60
19.09
17.65
16.62
15.93
15.16
13.88
11.92
9.54
7.15
5.05
3.20
1.27
-1.04
-3.76
-6.63
-9.27
-11.41
-12.94
-13.99
-14.67
-15.12
-15.45
-15.80
-16.22
-16.60
-16.66
-16.00
-14.43
-12.02
-9.12
-6.08
-3.15
-0.32
2.44
5.09
7.36
8.94
9.68
9.75
9.51
9.33
9.44
9.77
10.11
10.20
9.85
8.95
7.53
5.74
3.89
2.28
1.16
0.49
-0.00
-0.71
-1.86
-3.45
-5.26
-7.05
-8.70
-10.17
-11.45
-12.34
-12.49
-11.56
-9.49
-6.54
-3.28
-0.25
2.20
4.05
5.41
6.45
7.25
7.87
8.42
9.14
10.17
11.49
12.80
13.58
13.46
12.38
10.68
8.92
7.56
6.74
6.23
5.64
4.63
3.11
1.18
-0.92
-3.03
-5.03
-6.92
-8.69
-10.36
-11.91
-13.31
-14.49
-15.28
-15.46
-14.72
-12.87
-9.91
-6.17
-2.21
1.33
4.00
5.70
6.66
7.31
8.00
8.79
9.49
9.85
9.82
9.73
10.07
11.31
13.50
16.24
18.84
20.65
21.33
21.09
20.47
20.16
20.64
22.10
24.32
26.86
29.13
30.63
31.09
30.80
30.71
32.35
37.35
46.64
59.60
73.80
85.33
89.98
84.48
67.61
40.41
5.72
-32.70
-70.94
-105.46
-133.23
-151.75
-159.41
-155.69
-141.54
-119.24
-92.14
-63.90
-37.95
-16.77
-1.58
7.66
11.90
12.45
10.51
6.78
1.64
-4.58
-11.29
-17.45
-21.92
-23.94
-23.43
-21.09
-17.96
-14.95
-12.49
-10.45
-8.48
-6.30
-3.86
-1.32
1.07
3.20
4.99
6.40
7.31
7.61
7.27
6.50
5.68
5.10
4.90
4.91
4.79
4.23
3.16
1.73
0.23
-1.11
-2.18
-3.06
-3.80
-4.47
-5.07
-5.66
-6.40
-7.49
-9.09
-11.10
-13.19
-14.83
-15.54
-15.00
-13.21
-10.45
-7.14
-3.74
-0.67
1.83
3.65
4.83
5.59
6.21
6.90
7.79
8.72
9.44
9.69
9.36
8.54
7.49
6.47
5.67
5.14
4.76
4.40
3.93
3.26
2.25
0.78
-1.30
-4.08
-7.42
-10.99
-14.28
-16.87
-18.57
-19.46
-19.80
-19.79
-19.49
-18.71
-17.30
-15.22
-12.73
-10.23
-8.07
-6.31
-4.75
-3.05
-1.05
1.09
2.93
3.99
4.06
3.35
2.38
1.81
1.96
2.77
3.77
4.43
4.40
3.77
2.93
2.19
1.64
0.97
-0.28
-2.33
-5.01
-7.77
-10.03
-11.46
-12.08
-12.14
-11.79
-10.94
-9.34
-6.82
-3.55
-0.06
3.09
5.59
7.53
9.32
11.35
13.68
15.93
17.48
17.80
16.75
14.67
12.21
10.08
8.75
8.29
8.45
8.71
8.65
7.98
6.76
5.23
3.75
2.50
1.51
0.63
-0.35
-1.55
-2.97
-4.55
-6.25
-8.12
-10.23
-12.54
-14.80
-16.62
-17.54
-17.25
-15.78
-13.44
-10.57
-7.49
-4.31
-0.94
2.63
6.21
9.38
11.67
12.84
12.97
12.46
11.86
11.52
11.55
11.74
11.79
11.51
10.89
10.06
9.21
8.42
7.71
7.05
6.42
5.86
5.38
4.97
4.52
3.82
2.69
0.94
-1.42
-4.21
-7.03
-9.40
-10.89
-11.28
-10.61
-9.09
-7.03
-4.58
-1.77
1.43
4.95
8.50
11.60
13.81
14.89
14.91
14.20
13.20
12.33
11.83
11.82
12.25
12.94
13.60
13.96
13.73
12.81
11.21
8.98
6.23
3.15
-0.03
-3.02
-5.56
-7.64
-9.48
-11.47
-13.82
-16.44
-18.81
-20.19
-20.00
-18.18
-15.16
-11.65
-8.25
-5.24
-2.53
0.09
2.82
5.63
8.28
10.50
12.07
12.94
13.20
13.08
12.84
12.72
12.84
13.17
13.47
13.46
12.91
11.79
10.25
8.51
6.73
4.92
3.01
0.95
-1.20
-3.27
-5.13
-6.79
-8.45
-10.36
-12.56
-14.86
-16.82
-17.94
-17.95
-16.86
-14.96
-12.65
-10.27
-8.04
-6.06
-4.36
-2.85
-1.42
0.14
1.96
3.99
6.00
7.60
8.47
8.50
7.89
7.01
6.25
5.80
5.58
5.36
4.92
4.14
3.04
1.75
0.47
-0.60
-1.33
-1.75
-2.06
-2.59
-3.69
-5.60
-8.22
-11.19
-14.03
-16.33
-17.85
-18.58
-18.57
-17.78
-16.05
-13.24
-9.40
-4.91
-0.32
3.78
7.00
9.19
10.44
11.06
11.36
11.60
11.95
12.41
12.92
13.29
13.31
12.82
11.89
10.75
9.81
9.38
9.57
10.14
10.63
10.65
9.98
8.71
7.14
5.59
4.18
2.73
1.04
-1.08
-3.51
-5.90
-7.88
-9.28
-10.16
-10.84
-11.59
-12.50
-13.35
-13.72
-13.16
-11.51
-8.92
-5.80
-2.65
0.25
2.89
5.49
8.24
11.13
13.77
15.65
16.39
16.02
15.02
14.04
13.63
13.88
14.49
14.86
14.57
13.46
11.76
9.91
8.30
7.17
6.44
5.82
4.85
3.15
0.40
-3.46
-8.19
-13.30
-18.10
-21.88
-24.09
-24.55
-23.50
-21.51
-19.30
-17.49
-16.33
-15.67
-15.07
-13.98
-12.06
-9.19
-5.53
-1.48
2.56
6.12
8.82
10.39
10.81
10.29
9.27
8.38
8.18
9.01
10.84
13.29
15.70
17.43
18.04
17.47
16.00
14.06
12.02
9.87
7.30
3.86
-0.65
-6.02
-11.58
-16.51
-20.15
-22.19
-22.81
-22.37
-21.19
-19.49
-17.33
-14.82
-12.16
-9.62
-7.36
-5.41
-3.60
-1.74
0.24
2.21
3.93
5.21
5.99
6.42
6.75
7.17
7.77
8.42
8.95
9.24
9.39
9.60
10.21
11.47
13.37
15.64
17.74
19.07
19.23
18.21
16.55
15.16
15.01
16.75
20.45
25.50
31.00
36.10
40.29
43.73
47.16
51.72
58.60
68.60
81.56
96.01
109.09
117.11
116.41
104.51
80.94
47.41
7.43
-34.57
-74.11
-107.39
-131.84
-146.37
-151.31
-148.26
-139.40
-126.87
-112.24
-96.33
-79.69
-62.96
-47.16
-33.48
-22.73
-14.95
-9.47
-5.34
-1.88
0.96
2.77
3.14
2.04
-0.10
-2.56
-4.64
-5.97
-6.53
-6.50
-6.10
-5.47
-4.71
-3.90
-3.05
-2.11
-1.05
0.08
1.14
1.94
2.45
2.81
3.29
4.02
4.87
5.44
5.35
4.41
2.79
0.88
-0.91
-2.38
-3.55
-4.50
-5.31
-5.94
-6.32
-6.47
-6.47
-6.36
-5.96
-4.88
-2.82
0.22
3.81
7.18
9.72
11.16
11.74
11.94
12.13
12.40
12.58
12.57
12.37
12.27
12.45
12.81
12.83
11.85
9.45
5.79
1.57
-2.38
-5.47
-7.74
-9.70
-12.00
-14.94
-18.24
-21.20
-23.05
-23.39
-22.26
-20.14
-17.57
-14.96
-12.48
-10.09
-7.71
-5.26
-2.73
-0.23
2.10
4.10
5.62
6.63
7.24
7.64
8.00
8.28
8.25
7.68
6.50
4.92
3.34
2.14
1.41
0.90
0.26
-0.80
-2.24
-3.89
-5.51
-7.01
-8.49
-10.03
-11.63
-12.99
-13.73
-13.50
-12.28
-10.32
-7.99
-5.57
-3.12
-0.52
2.34
5.31
7.96
9.81
10.51
10.20
9.37
8.71
8.75
9.61
10.97
12.41
13.48
13.98
13.90
13.35
12.45
11.29
9.95
8.46
6.86
5.14
3.23
1.08
-1.33
-3.90
-6.45
-8.70
-10.40
-11.29
-11.26
-10.26
-8.39
-5.94
-3.29
-0.82
1.25
2.94
4.43
5.93
7.54
9.21
10.65
11.51
11.60
10.88
9.58
8.16
6.97
6.23
5.97
6.02
6.20
6.37
6.43
6.26
5.73
4.66
3.00
0.85
-1.53
-3.82
-5.92
-7.95
-10.18
-12.75
-15.53
-18.04
-19.69
-20.07
-19.08
-17.00
-14.32
-11.53
-8.96
-6.75
-4.79
-2.90
-0.93
1.21
3.40
5.39
6.91
7.77
8.06
8.06
8.18
8.70
9.64
10.71
11.48
11.49
10.55
8.78
6.61
4.59
3.22
2.73
3.06
3.87
4.65
4.85
3.97
1.79
-1.54
-5.57
-9.57
-12.90
-15.09
-16.05
-15.91
-14.96
-13.43
-11.43
-9.05
-6.35
-3.55
-0.87
1.48
3.44
5.01
6.29
7.43
8.49
9.53
10.48
11.26
11.75
11.86
11.66
11.25
10.78
10.34
9.86
9.16
7.97
6.18
3.77
0.91
-2.12
-5.03
-7.68
-10.05
-12.29
-14.56
-16.82
-18.83
-20.12
-20.19
-18.72
-15.75
-11.60
-6.81
-1.93
2.61
6.44
9.37
11.27
12.13
12.16
11.81
11.69
12.32
13.92
16.33
18.98
21.17
22.30
22.12
20.74
18.50
15.78
12.83
9.80
6.73
3.70
0.79
-1.94
-4.52
-7.01
-9.49
-11.96
-14.29
-16.31
-17.80
-18.66
-18.92
-18.80
-18.53
-18.31
-18.09
-17.58
-16.32
-13.95
-10.41
-6.05
-1.47
2.75
6.30
9.15
11.54
13.65
15.60
17.33
18.81
20.08
21.23
22.42
23.70
25.10
26.60
28.23
30.01
31.90
33.71
35.18
36.06
36.33
36.25
36.27
36.92
38.45
40.68
42.99
44.57
44.79
43.56
41.39
39.35
38.81
41.26
47.86
59.14
74.29
90.93
105.12
112.28
108.42
91.52
62.36
24.15
-18.31
-60.23
-97.71
-128.05
-149.62
-161.49
-163.22
-155.17
-138.75
-116.47
-91.55
-67.21
-45.91
-28.95
-16.46
-7.76
-1.98
1.61
3.41
3.56
2.19
-0.48
-4.10
-8.19
-12.19
-15.57
-17.98
-19.23
-19.51
-19.23
-18.86
-18.74
-18.95
-19.20
-19.07
-18.14
-16.22
-13.39
-10.00
-6.50
-3.29
-0.62
1.50
3.18
4.56
5.68
6.43
6.71
6.48
5.84
5.12
4.62
4.52
4.83
5.31
5.69
5.70
5.18
4.08
2.47
0.43
-1.88
-4.27
-6.57
-8.65
-10.41
-11.81
-12.81
-13.33
-13.29
-12.64
-11.40
-9.67
-7.63
-5.43
-3.18
-0.92
1.36
3.63
5.77
7.58
8.82
9.38
9.35
9.00
8.72
8.75
9.18
9.80
10.25
10.21
9.50
8.23
6.63
4.93
3.30
1.79
0.36
-1.09
-2.66
-4.53
-6.79
-9.45
-12.25
-14.68
-16.16
-16.24
-14.87
-12.49
-9.79
-7.46
-5.77
-4.57
-3.44
-1.99
-0.10
2.03
4.09
5.77
6.98
7.85
8.57
9.29
10.01
10.68
11.24
11.70
12.07
12.34
12.41
12.06
11.17
9.73
7.90
5.98
4.29
2.97
2.00
1.16
0.18
-1.10
-2.61
-4.08
-5.12
-5.34
-4.49
-2.57
0.23
3.60
7.23
10.89
14.48
17.93
21.11
23.80
25.83
27.18
28.10
29.12
30.83
33.71
37.78
42.58
47.29
50.95
52.89
53.04
52.00
51.00
51.60
55.32
63.15
74.96
89.13
102.62
111.43
111.61
100.38
76.87
42.44
0.35
-44.99
-88.88
-127.10
-156.43
-175.01
-182.39
-179.40
-167.77
-149.75
-127.70
-103.90
-80.39
-58.93
-40.88
-27.01
-17.41
-11.51
-8.30
-6.63
-5.52
-4.35
-2.96
-1.54
-0.45
0.04
-0.09
-0.56
-0.97
-1.02
-0.60
0.09
0.76
1.19
1.30
1.08
0.54
-0.34
-1.62
-3.29
-5.20
-7.01
-8.31
-8.74
-8.13
-6.60
-4.48
-2.27
-0.34
1.15
2.23
3.12
3.93
4.68
5.22
5.43
5.33
5.13
5.11
5.48
6.15
6.81
7.01
6.47
5.21
3.52
1.85
0.55
-0.21
-0.48
-0.55
-0.71
-1.31
-2.53
-4.43
-6.81
-9.27
-11.30
-12.47
-12.58
-11.75
-10.29
-8.50
-6.54
-4.45
-2.22
0.04
2.09
3.65
4.56
4.84
4.71
4.39
4.12
4.03
4.17
4.47
4.74
4.70
4.08
2.79
1.06
-0.60
-1.71
-2.11
-2.06
-2.16
-2.98
-4.79
-7.48
-10.58
-13.52
-15.80
-17.06
-17.20
-16.27
-14.50
-12.20
-9.66
-7.07
-4.43
-1.64
1.37
4.57
7.71
10.52
12.79
14.48
15.65
16.45
16.94
17.13
16.99
16.54
15.84
15.01
14.09
13.00
11.63
9.86
7.69
5.26
2.76
0.34
-2.03
-4.49
-7.18
-10.05
-12.84
-15.03
-16.12
-15.81
-14.11
-11.36
-8.06
-4.68
-1.49
1.39
4.01
6.38
8.44
10.07
11.23
12.01
12.67
13.52
14.72
16.22
17.72
18.96
19.77
20.19
20.38
20.34
19.97
18.98
17.14
14.44
11.12
7.54
4.00
0.61
-2.84
-6.55
-10.66
-14.98
-19.01
-22.13
-23.80
-23.84
-22.46
-20.20
-17.61
-15.04
-12.52
-9.80
-6.67
-3.10
0.64
4.15
7.09
9.40
11.31
13.08
14.82
16.31
17.18
17.16
16.34
15.17
14.25
13.98
14.35
14.96
15.26
14.93
13.93
12.45
10.72
8.81
6.64
4.09
1.19
-1.86
-4.80
-7.47
-9.84
-12.05
-14.22
-16.41
-18.58
-20.62
-22.45
-23.94
-24.91
-25.13
-24.41
-22.67
-20.07
-16.94
-13.62
-10.30
-6.99
-3.59
-0.08
3.40
6.57
9.23
11.34
13.03
14.56
16.02
17.39
18.53
19.34
19.84
20.17
20.39
20.52
20.38
19.79
18.69
17.16
15.42
13.69
12.09
10.55
9.00
7.33
5.51
3.52
1.37
-0.94
-3.42
-6.00
-8.56
-10.87
-12.74
-14.09
-15.05
-15.82
-16.59
-17.28
-17.55
-16.97
-15.28
-12.58
-9.23
-5.72
-2.27
1.19
4.82
8.63
12.34
15.37
17.29
18.04
17.97
17.65
17.46
17.43
17.40
17.18
16.82
16.59
16.74
17.34
18.20
18.98
19.33
19.13
18.40
17.22
15.63
13.60
11.06
7.99
4.49
0.72
-3.07
-6.68
-10.08
-13.26
-16.26
-19.05
-21.50
-23.41
-24.56
-24.85
-24.34
-23.15
-21.38
-19.07
-16.14
-12.61
-8.55
-4.24
0.05
4.09
7.76
11.01
13.85
16.18
17.87
18.80
18.97
18.55
17.85
17.13
16.62
16.43
16.55
16.93
17.34
17.49
17.04
15.76
13.68
11.11
8.58
6.52
5.09
4.06
2.94
1.15
-1.67
-5.59
-10.36
-15.55
-20.68
-25.30
-28.96
-31.29
-32.05
-31.19
-28.91
-25.68
-22.04
-18.48
-15.20
-12.13
-9.05
-5.76
-2.23
1.38
4.77
7.70
10.04
11.81
13.14
14.13
14.87
15.46
15.97
16.52
17.21
18.08
19.05
19.91
20.37
20.17
19.14
17.35
14.92
12.09
9.03
5.91
2.92
0.29
-1.74
-3.10
-4.05
-5.09
-6.74
-9.27
-12.41
-15.49
-17.74
-18.69
-18.31
-17.03
-15.36
-13.62
-11.83
-9.79
-7.33
-4.52
-1.59
1.13
3.39
5.03
6.18
7.02
7.79
8.71
9.86
11.15
12.32
13.06
13.15
12.61
11.60
10.48
9.43
8.53
7.66
6.71
5.64
4.48
3.30
2.07
0.68
-1.07
-3.27
-5.93
-8.93
-12.05
-15.08
-17.84
-20.16
-21.85
-22.71
-22.60
-21.41
-19.21
-16.20
-12.67
-8.99
-5.52
-2.50
-0.01
2.01
3.80
5.51
7.20
8.81
10.15
11.09
11.64
11.92
12.10
12.26
12.30
12.08
11.44
10.37
9.04
7.70
6.52
5.58
4.75
3.78
2.44
0.55
-1.98
-5.06
-8.47
-11.90
-14.95
-17.31
-18.79
-19.37
-19.18
-18.38
-17.09
-15.41
-13.38
-11.12
-8.80
-6.66
-4.88
-3.55
-2.61
-1.94
-1.38
-0.84
-0.25
0.39
1.01
1.60
2.05
2.30
2.28
1.94
1.25
0.22
-1.12
-2.62
-4.10
-5.42
-6.45
-7.27
-8.12
-9.27
-10.85
-12.74
-14.57
-15.87
-16.26
-15.61
-14.00
-11.70
-9.02
-6.33
-3.97
-2.21
-1.18
-0.83
-0.84
-0.79
-0.39
0.47
1.65
2.87
3.87
4.53
4.75
4.52
3.76
2.48
0.86
-0.72
-1.93
-2.49
-2.49
-2.31
-2.44
-3.36
-5.28
-8.11
-11.45
-14.75
-17.37
-18.83
-18.91
-17.72
-15.68
-13.28
-10.90
-8.68
-6.52
-4.19
-1.52
1.50
4.64
7.55
9.82
11.23
11.85
11.99
12.08
12.38
12.81
13.03
12.65
11.53
9.99
8.59
7.82
7.82
8.23
8.42
7.82
6.24
3.90
1.21
-1.49
-4.05
-6.59
-9.24
-12.04
-14.85
-17.37
-19.26
-20.29
-20.37
-19.46
-17.54
-14.58
-10.66
-6.02
-1.22
3.12
6.42
8.45
9.43
9.87
10.32
11.09
12.12
13.04
13.45
13.12
12.11
10.69
9.24
8.09
7.44
7.24
7.33
7.47
7.44
7.19
6.75
6.21
5.62
4.96
4.07
2.82
1.07
-1.19
-3.79
-6.45
-8.73
-10.17
-10.38
-9.19
-6.69
-3.23
0.66
4.42
7.69
10.26
12.13
13.40
14.15
14.37
13.99
12.91
11.18
9.07
7.02
5.51
4.85
5.00
5.60
6.18
6.38
6.11
5.53
4.83
4.13
3.35
2.35
1.04
-0.46
-1.92
-3.14
-4.13
-5.09
-6.37
-8.24
-10.70
-13.52
-16.29
-18.63
-20.26
-21.14
-21.30
-20.90
-20.07
-18.93
-17.59
-16.09
-14.34
-12.11
-9.14
-5.29
-0.81
3.71
7.46
9.82
10.63
10.32
9.74
9.77
10.91
13.07
15.66
17.87
19.06
18.92
17.55
15.34
12.80
10.39
8.44
7.10
6.33
5.94
5.62
5.12
4.25
2.94
1.22
-0.89
-3.37
-6.17
-9.14
-11.98
-14.28
-15.66
-15.97
-15.32
-14.04
-12.40
-10.61
-8.67
-6.54
-4.25
-1.93
0.19
1.98
3.45
4.70
5.88
6.95
7.80
8.26
8.32
8.17
8.15
8.48
9.19
10.03
10.65
10.76
10.26
9.24
7.94
6.57
5.22
3.85
2.37
0.68
-1.12
-2.88
-4.30
-5.17
-5.45
-5.32
-5.11
-5.16
-5.63
-6.39
-7.12
-7.38
-6.85
-5.46
-3.35
-0.87
1.53
3.48
4.77
5.41
5.63
5.70
5.88
6.28
6.78
7.16
7.18
6.74
5.87
4.76
3.57
2.35
1.04
-0.57
-2.59
-4.94
-7.34
-9.50
-11.26
-12.78
-14.38
-16.27
-18.38
-20.19
-21.08
-20.61
-18.82
-16.26
-13.65
-11.46
-9.71
-8.00
-5.83
-2.96
0.41
3.78
6.68
8.81
10.23
11.18
11.85
12.36
12.68
12.69
12.34
11.62
10.58
9.27
7.75
6.04
4.21
2.25
0.09
-2.37
-5.21
-8.30
-11.35
-13.94
-15.70
-16.40
-16.05
-14.82
-13.03
-11.02
-9.10
-7.43
-5.98
-4.53
-2.76
-0.49
2.17
4.86
7.04
8.32
8.71
8.57
8.50
8.97
10.05
11.37
12.40
12.74
12.36
11.54
10.71
10.06
9.45
8.53
6.97
4.69
1.94
-1.01
-3.91
-6.77
-9.73
-12.83
-15.85
-18.36
-19.92
-20.38
-19.95
-19.01
-17.92
-16.71
-15.13
-12.88
-9.85
-6.26
-2.54
0.88
3.86
6.52
9.10
11.68
14.05
15.81
16.67
16.66
16.20
15.85
15.92
16.36
16.77
16.64
15.76
14.19
12.33
10.57
9.11
7.94
6.85
5.70
4.37
2.90
1.27
-0.55
-2.62
-5.02
-7.72
-10.66
-13.62
-16.30
-18.34
-19.34
-19.01
-17.31
-14.54
-11.26
-8.12
-5.57
-3.75
-2.35
-0.90
1.07
3.74
6.86
9.98
12.55
14.27
15.15
15.43
15.48
15.55
15.73
15.97
16.12
16.09
15.90
15.58
15.16
14.52
13.43
11.68
9.24
6.41
3.68
1.54
0.18
-0.62
-1.39
-2.67
-4.75
-7.42
-10.10
-12.04
-12.71
-11.91
-9.83
-6.88
-3.53
-0.03
3.58
7.47
11.88
16.83
22.04
27.01
31.22
34.40
36.74
38.76
41.16
44.36
48.40
52.82
56.82
59.64
60.77
60.22
58.53
56.69
55.98
57.60
62.20
69.38
77.25
82.60
81.60
70.89
48.94
16.70
-22.44
-63.55
-101.61
-132.75
-154.81
-167.23
-170.51
-165.58
-153.61
-136.10
-114.94
-92.37
-70.58
-51.34
-35.61
-23.45
-14.31
-7.37
-1.91
2.43
5.71
7.77
8.47
7.85
6.24
4.17
2.21
0.75
-0.12
-0.57
-0.90
-1.40
-2.18
-3.28
-4.66
-6.32
-8.21
-10.25
-12.24
-13.92
-15.07
-15.62
-15.61
-15.13
-14.19
-12.64
-10.41
-7.54
-4.31
-1.21
1.36
3.18
4.34
5.09
5.79
6.62
7.61
8.67
9.67
10.55
11.33
12.07
12.74
13.26
13.45
13.23
12.57
11.57
10.37
9.10
7.77
6.32
4.62
2.55
0.06
-2.80
-5.91
-9.03
-11.85
-14.01
-15.20
-15.28
-14.40
-12.87
-11.02
-8.97
-6.66
-3.89
-0.61
2.95
6.31
8.96
10.64
11.41
11.65
11.74
11.88
12.06
12.09
11.91
11.55
11.22
11.00
10.82
10.45
9.66
8.37
6.81
5.31
4.10
3.14
2.06
0.37
-2.23
-5.73
-9.80
-13.98
-17.84
-21.17
-23.78
-25.49
-26.08
-25.32
-23.15
-19.77
-15.61
-11.11
-6.66
-2.39
1.63
5.29
8.44
10.88
12.54
13.56
14.19
14.71
15.22
15.61
15.66
15.24
14.39
13.37
12.48
11.91
11.60
11.36
10.95
10.22
9.15
7.71
5.80
3.23
-0.13
-4.34
-9.17
-14.09
-18.49
-21.84
-23.84
-24.51
-24.10
-22.86
-21.01
-18.66
-15.88
-12.75
-9.38
-5.92
-2.49
0.85
4.17
7.49
10.68
13.48
15.60
16.82
17.27
17.32
17.42
17.85
18.57
19.30
19.64
19.31
18.34
16.95
15.47
14.13
12.94
11.75
10.27
8.18
5.23
1.38
-3.23
-8.22
-13.11
-17.48
-21.04
-23.64
-25.20
-25.68
-25.01
-23.13
-20.17
-16.39
-12.19
-7.88
-3.66
0.45
4.55
8.72
12.90
16.88
20.31
22.84
24.26
24.54
23.86
22.52
20.86
19.15
17.55
16.11
14.77
13.46
12.08
10.58
8.95
7.17
5.21
3.06
0.70
-1.82
-4.43
-7.13
-9.91
-12.80
-15.78
-18.70
-21.18
-22.73
-22.81
-21.16
-17.90
-13.47
-8.53
-3.62
0.93
4.97
8.39
11.08
12.87
13.70
13.71
13.22
12.67
12.37
12.47
12.77
12.99
12.81
12.11
11.01
9.78
8.72
8.05
7.75
7.67
7.58
7.23
6.44
5.13
3.20
0.58
-2.78
-6.79
-11.08
-15.05
-18.07
-19.57
-19.30
-17.39
-14.22
-10.38
-6.46
-2.84
0.34
3.23
6.15
9.41
13.14
17.21
21.23
24.65
27.01
28.04
27.91
27.13
26.43
26.46
27.63
29.85
32.63
35.19
36.83
37.21
36.60
35.85
36.19
38.80
44.26
52.15
60.79
67.48
69.02
62.50
46.24
20.38
-13.04
-50.45
-87.52
-120.00
-144.44
-158.58
-161.55
-153.71
-136.50
-112.20
-83.71
-54.22
-26.87
-4.23
12.05
21.55
25.11
24.33
21.13
17.14
13.28
9.76
6.29
2.47
-1.94
-6.81
-11.74
-16.26
-19.95
-22.67
-24.55
-25.83
-26.70
-27.08
-26.61
-24.80
-21.42
-16.61
-10.99
-5.34
-0.21
4.29
8.38
12.40
16.37
19.97
22.71
24.22
24.50
23.91
22.92
21.86
20.78
19.56
18.10
16.45
14.77
13.24
11.82
10.27
8.26
5.48
1.88
-2.33
-6.70
-10.70
-13.82
-15.71
-16.18
-15.24
-13.05
-9.98
-6.44
-2.82
0.59
3.73
6.70
9.66
12.72
15.78
18.49
20.41
21.15
20.57
18.87
16.56
14.27
12.47
11.27
10.43
9.57
8.39
6.88
5.29
3.88
2.75
1.67
0.30
-1.64
-4.06
-6.51
-8.47
-9.63
-10.10
-10.31
-10.72
-11.44
-12.17
-12.27
-11.15
-8.52
-4.58
0.05
4.55
8.23
10.61
11.64
11.56
10.77
9.68
8.61
7.73
7.16
6.94
7.08
7.51
8.04
8.34
8.11
7.21
5.66
3.71
1.68
-0.20
-1.88
-3.52
-5.38
-7.62
-10.26
-13.10
-15.81
-18.00
-19.45
-19.96
-19.50
-18.07
-15.71
-12.43
-8.36
-3.75
1.08
5.73
9.91
13.37
15.99
17.76
18.70
18.83
18.21
16.92
15.20
13.39
11.92
11.09
10.87
10.97
10.87
10.19
8.79
6.92
4.97
3.24
1.71
0.00
-2.39
-5.84
-10.32
-15.40
-20.34
-24.30
-26.64
-27.06
-25.63
-22.81
-19.21
-15.37
-11.60
-7.91
-4.15
-0.18
4.06
8.42
12.68
16.58
19.86
22.33
23.88
24.58
24.60
24.21
23.70
23.26
22.91
22.50
21.81
20.66
19.04
17.01
14.75
12.45
10.23
8.23
6.42
4.68
2.68
0.09
-3.34
-7.55
-12.16
-16.60
-20.34
-23.02
-24.60
-25.14
-24.70
-23.22
-20.63
-17.01
-12.69
-8.18
-4.00
-0.45
2.48
5.03
7.46
9.89
12.25
14.37
16.10
17.35
18.09
18.35
18.11
17.42
16.41
15.30
14.29
13.44
12.59
11.50
10.01
8.15
6.20
4.51
3.23
2.20
1.02
-0.78
-3.43
-6.83
-10.58
-14.15
-17.06
-18.99
-19.76
-19.41
-18.07
-16.01
-13.43
-10.51
-7.28
-3.64
0.50
5.08
9.77
14.05
17.35
19.30
19.85
19.28
18.03
16.49
14.90
13.38
11.99
10.81
9.97
9.55
9.41
9.24
8.54
6.90
4.21
0.78
-2.79
-5.83
-7.96
-9.19
-9.93
-10.68
-11.85
-13.51
-15.56
-17.84
-20.18
-22.47
-24.46
-25.73
-25.78
-24.19
-20.94
-16.47
-11.53
-6.88
-3.03
-0.04
2.36
4.54
6.82
9.27
11.74
13.94
15.65
16.79
17.44
17.83
18.11
18.34
18.40
18.13
17.45
16.47
15.35
14.30
13.32
12.25
10.84
9.00
6.78
4.40
2.01
-0.41
-3.05
-6.10
-9.58
-13.30
-16.83
-19.75
-21.77
-22.77
-22.76
-21.80
-19.87
-16.96
-13.12
-8.56
-3.68
0.98
4.91
7.82
9.68
10.73
11.35
11.90
12.60
13.43
14.24
14.83
15.02
14.78
14.18
13.43
12.76
12.32
12.02
11.62
10.81
9.34
7.26
4.81
2.30
-0.11
-2.48
-5.11
-8.25
-11.90
-15.78
-19.42
-22.41
-24.53
-25.75
-26.14
-25.71
-24.44
-22.41
-19.78
-16.78
-13.66
-10.49
-7.21
-3.72
-0.08
3.41
6.26
8.02
8.48
7.78
6.36
4.74
3.34
2.41
1.97
1.84
1.64
0.88
-0.84
-3.51
-6.68
-9.48
-11.06
-10.99
-9.54
-7.57
-6.07
-5.69
-6.36
-7.46
-8.17
-7.96
-6.86
-5.38
-4.13
-3.53
-3.53
-3.75
-3.63
-2.71
-0.88
1.66
4.42
6.84
8.48
9.14
8.85
7.82
6.46
5.16
4.17
3.66
3.55
3.62
3.63
3.43
2.99
2.43
1.90
1.45
1.00
0.35
-0.66
-2.15
-4.01
-6.08
-8.13
-10.05
-11.83
-13.53
-15.12
-16.35
-16.82
-16.07
-13.92
-10.64
-6.89
-3.46
-0.83
1.00
2.48
4.18
6.46
9.25
12.11
14.55
16.26
17.26
17.84
18.38
19.17
20.33
21.70
22.91
23.50
23.12
21.77
19.83
17.99
16.93
17.00
17.98
19.17
19.67
18.76
16.25
12.61
8.94
6.74
7.57
12.50
21.60
33.63
45.97
55.16
57.77
51.38
35.29
10.71
-19.52
-51.66
-81.86
-106.76
-123.94
-132.02
-130.69
-120.56
-103.08
-80.30
-54.70
-28.90
-5.41
13.73
27.22
34.66
36.61
34.27
29.14
22.63
15.74
9.06
2.87
-2.74
-7.70
-11.90
-15.24
-17.60
-19.02
-19.65
-19.74
-19.57
-19.20
-18.44
-16.94
-14.35
-10.63
-6.17
-1.66
2.17
4.84
6.35
7.09
7.63
8.42
9.61
11.13
12.73
14.16
15.16
15.59
15.36
14.48
13.06
11.33
9.47
7.64
5.93
4.40
3.06
1.89
0.73
-0.63
-2.42
-4.74
-7.47
-10.28
-12.71
-14.40
-15.22
-15.22
-14.63
-13.66
-12.39
-10.83
-8.87
-6.47
-3.66
-0.52
2.82
6.20
9.37
12.02
13.81
14.50
14.08
12.75
10.92
9.08
7.56
6.45
5.62
4.76
3.63
2.19
0.61
-0.81
-1.88
-2.61
-3.28
-4.33
-6.20
-9.02
-12.62
-16.40
-19.65
-21.70
-22.18
-21.10
-18.71
-15.43
-11.66
-7.75
-3.90
-0.25
3.12
6.20
8.94
11.21
12.82
13.63
13.63
13.03
12.16
11.31
10.64
10.07
9.47
8.70
7.80
6.85
6.01
5.29
4.62
3.95
3.28
2.69
2.12
1.37
0.00
-2.41
-6.06
-10.70
-15.68
-20.13
-23.26
-24.65
-24.31
-22.65
-20.15
-17.09
-13.52
-9.23
-4.20
1.32
6.66
11.05
13.85
14.89
14.51
13.46
12.53
12.27
12.80
13.78
14.70
15.06
14.66
13.64
12.34
11.11
10.10
9.22
8.13
6.42
3.85
0.38
-3.72
-8.04
-12.09
-15.48
-18.00
-19.61
-20.43
-20.63
-20.29
-19.39
-17.86
-15.63
-12.71
-9.18
-5.21
-1.05
2.99
6.50
9.16
10.76
11.46
11.63
11.76
12.15
12.81
13.44
13.65
13.15
11.92
10.21
8.36
6.64
5.17
3.89
2.70
1.39
-0.24
-2.38
-5.14
-8.51
-12.25
-16.01
-19.33
-21.78
-23.03
-22.89
-21.33
-18.57
-14.94
-10.89
-6.81
-3.03
0.21
2.80
4.67
5.90
6.64
7.13
7.66
8.33
9.05
9.54
9.56
9.01
8.04
6.90
5.77
4.68
3.50
2.07
0.37
-1.52
-3.54
-5.70
-8.18
-11.14
-14.54
-18.04
-21.10
-23.12
-23.76
-22.99
-21.04
-18.29
-15.03
-11.52
-7.85
-4.09
-0.30
3.37
6.70
9.47
11.50
12.75
13.31
13.39
13.17
12.77
12.25
11.63
11.00
10.44
10.02
9.63
8.96
7.69
5.55
2.57
-0.98
-4.72
-8.36
-11.81
-15.09
-18.16
-20.80
-22.64
-23.28
-22.46
-20.30
-17.13
-13.34
-9.23
-4.92
-0.42
4.18
8.56
12.30
15.01
16.59
17.20
17.26
17.26
17.48
18.02
18.68
19.20
19.32
18.91
18.01
16.74
15.26
13.63
11.76
9.47
6.56
2.98
-1.10
-5.38
-9.56
-13.42
-16.93
-20.07
-22.82
-24.93
-26.05
-25.83
-24.09
-20.87
-16.47
-11.39
-6.09
-0.95
3.84
8.26
12.31
15.97
19.03
21.28
22.56
22.98
22.79
22.37
21.93
21.46
20.75
19.56
17.88
15.94
14.13
12.69
11.65
10.70
9.46
7.68
5.36
2.76
0.16
-2.33
-4.82
-7.46
-10.37
-13.52
-16.73
-19.69
-22.14
-23.78
-24.36
-23.69
-21.70
-18.54
-14.59
-10.33
-6.18
-2.28
1.39
4.92
8.32
11.43
14.03
16.01
17.46
18.61
19.65
20.56
21.15
21.28
20.97
20.50
20.22
20.26
20.37
19.97
18.57
16.02
12.64
9.09
5.94
3.43
1.35
-0.68
-3.16
-6.32
-10.12
-14.32
-18.48
-22.06
-24.58
-25.70
-25.30
-23.58
-20.90
-17.75
-14.50
-11.36
-8.22
-4.84
-1.02
3.26
7.66
11.63
14.60
16.22
16.60
16.20
15.62
15.35
15.51
15.86
16.00
15.61
14.60
13.16
11.58
10.08
8.73
7.42
6.03
4.49
2.79
0.92
-1.15
-3.48
-6.10
-8.95
-11.71
-14.00
-15.49
-16.03
-15.78
-15.00
-13.87
-12.31
-10.00
-6.68
-2.31
2.77
7.87
12.28
15.51
17.40
18.16
18.12
17.69
17.19
16.89
17.02
17.64
18.67
19.77
20.53
20.58
19.77
18.23
16.34
14.52
13.04
12.02
11.26
10.44
9.22
7.37
4.86
1.85
-1.38
-4.64
-7.78
-10.69
-13.20
-14.96
-15.58
-14.75
-12.51
-9.31
-5.82
-2.66
-0.06
2.17
4.56
7.56
11.29
15.43
19.41
22.61
24.77
25.95
26.61
27.33
28.55
30.35
32.38
34.07
34.82
34.39
33.10
31.83
31.93
34.72
40.99
50.42
61.34
70.79
75.09
70.83
55.81
29.95
-4.54
-43.63
-82.26
-115.56
-139.75
-152.62
-153.70
-143.99
-125.60
-101.28
-74.07
-46.93
-22.46
-2.71
11.11
18.79
21.13
19.73
16.52
13.16
10.66
9.21
8.36
7.49
6.21
4.52
2.75
1.38
0.72
0.77
1.32
1.97
2.34
2.24
1.62
0.71
-0.26
-1.13
-2.00
-3.18
-4.99
-7.48
-10.43
-13.31
-15.58
-16.84
-17.00
-16.20
-14.68
-12.61
-10.08
-7.15
-3.96
-0.78
2.02
4.16
5.50
6.16
6.44
6.73
7.37
8.51
10.03
11.62
12.84
13.38
13.10
12.11
10.67
9.06
7.50
6.08
4.83
3.74
2.77
1.89
0.98
-0.09
-1.40
-3.01
-4.80
-6.58
-8.16
-9.47
-10.50
-11.35
-12.02
-12.42
-12.39
-11.75
-10.40
-8.35
-5.83
-3.19
-0.85
0.90
2.02
2.70
3.26
3.98
4.90
5.89
6.68
7.07
7.05
6.75
6.45
6.33
6.43
6.63
6.74
6.59
6.12
5.42
4.72
4.18
3.88
3.65
3.10
1.79
-0.55
-3.85
-7.73
-11.58
-14.84
-17.14
-18.23
-18.03
-16.52
-13.85
-10.37
-6.63
-3.27
-0.70
0.99
2.10
3.07
4.22
5.57
6.84
7.64
7.76
7.22
6.31
5.44
4.92
4.95
5.55
6.54
7.66
8.54
8.81
8.16
6.53
4.13
1.35
-1.26
-3.36
-4.89
-6.11
-7.43
-9.22
-11.60
-14.34
-17.00
-19.07
-20.14
-19.97
-18.56
-16.05
-12.78
-9.18
-5.76
-2.99
-1.10
-0.04
0.48
0.89
1.60
2.84
4.63
6.74
8.90
10.71
11.88
12.21
11.72
10.64
9.35
8.27
7.64
7.47
7.55
7.46
6.83
5.48
3.50
1.12
-1.35
-3.73
-6.05
-8.40
-10.88
-13.44
-15.84
-17.74
-18.83
-18.86
-17.79
-15.76
-13.00
-9.85
-6.62
-3.57
-0.82
1.58
3.69
5.46
6.79
7.58
7.86
7.86
7.95
8.39
9.22
10.19
10.85
10.81
9.99
8.60
7.00
5.48
4.08
2.70
1.21
-0.41
-1.97
-3.30
-4.34
-5.23
-6.22
-7.55
-9.30
-11.34
-13.41
-15.28
-16.77
-17.90
-18.67
-19.02
-18.84
-17.91
-16.08
-13.39
-10.05
-6.41
-2.86
0.33
2.98
5.01
6.38
7.12
7.35
7.28
7.17
7.24
7.54
7.93
8.25
8.30
8.07
7.63
7.06
6.40
5.56
4.47
3.09
1.54
-0.02
-1.46
-2.74
-4.00
-5.45
-7.24
-9.38
-11.74
-14.02
-15.91
-17.16
-17.58
-17.14
-15.85
-13.82
-11.20
-8.23
-5.23
-2.51
-0.32
1.28
2.40
3.31
4.19
5.16
6.13
6.96
7.53
7.77
7.71
7.41
6.97
6.40
5.74
4.95
3.99
2.80
1.32
-0.46
-2.51
-4.69
-6.89
-9.04
-11.12
-13.11
-15.00
-16.63
-17.78
-18.21
-17.82
-16.66
-14.94
-12.93
-10.83
-8.65
-6.32
-3.69
-0.74
2.40
5.43
7.95
9.62
10.25
9.91
8.86
7.52
6.24
5.21
4.41
3.69
2.85
1.81
0.62
-0.50
-1.44
-2.20
-3.01
-4.20
-6.09
-8.78
-12.10
-15.63
-18.90
-21.47
-23.05
-23.49
-22.78
-21.03
-18.37
-14.99
-11.18
-7.22
-3.46
-0.16
2.51
4.54
6.03
7.21
8.26
9.32
10.37
11.35
12.15
12.64
12.76
12.48
11.79
10.77
9.54
8.22
6.92
5.67
4.42
3.11
1.64
-0.00
-1.88
-4.00
-6.44
-9.23
-12.40
-15.78
-19.10
-21.96
-23.97
-24.86
-24.58
-23.28
-21.23
-18.71
-15.90
-12.86
-9.55
-6.01
-2.35
1.19
4.37
7.07
9.30
11.21
12.98
14.68
16.25
17.54
18.42
18.79
18.65
18.02
16.95
15.49
13.70
11.67
9.56
7.50
5.58
3.86
2.35
0.99
-0.34
-1.84
-3.80
-6.45
-9.85
-13.73
-17.59
-20.75
-22.69
-23.10
-22.08
-19.91
-16.92
-13.34
-9.35
-5.12
-0.97
2.67
5.50
7.45
8.86
10.28
12.13
14.44
16.83
18.68
19.56
19.41
18.64
17.86
17.49
17.54
17.63
17.21
15.90
13.65
10.74
7.61
4.61
1.82
-0.91
-3.74
-6.84
-10.14
-13.45
-16.57
-19.34
-21.69
-23.57
-24.87
-25.49
-25.39
-24.74
-23.70
-22.42
-20.83
-18.67
-15.70
-11.91
-7.74
-3.84
-0.90
0.77
1.30
1.08
0.54
0.01
-0.49
-1.11
-2.05
-3.43
-5.24
-7.39
-9.65
-11.80
-13.65
-15.08
-16.02
-16.45
-16.31
-15.56
-14.25
-12.60
-11.07
-10.22
-10.63
-12.52
-15.64
-19.37
-22.78
-25.00
-25.37
-23.60
-19.81
-14.36
-7.82
-0.89
5.73
11.48
15.97
19.10
21.04
22.15
22.83
23.35
23.82
24.20
24.47
24.66
24.88
25.21
25.54
25.57
24.91
23.31
20.86
18.01
15.35
13.29
11.79
10.38
8.40
5.45
1.61
-2.61
-6.55
-9.76
-12.18
-14.08
-15.71
-17.04
-17.72
-17.26
-15.37
-12.06
-7.74
-3.02
1.53
5.54
8.87
11.59
13.86
15.78
17.35
18.47
19.11
19.31
19.33
19.47
19.93
20.70
21.50
22.00
21.92
21.20
20.01
18.52
16.84
14.98
12.91
10.71
8.53
6.50
4.57
2.54
0.04
-3.17
-6.98
-10.89
-14.28
-16.51
-17.27
-16.55
-14.55
-11.57
-7.91
-3.88
0.23
4.12
7.55
10.40
12.70
14.57
16.13
17.43
18.43
18.95
18.86
18.06
16.60
14.72
12.72
10.97
9.69
8.93
8.43
7.88
7.00
5.69
3.96
1.85
-0.62
-3.44
-6.53
-9.66
-12.50
-14.71
-16.07
-16.54
-16.15
-14.87
-12.65
-9.43
-5.34
-0.81
3.54
7.06
9.37
10.45
10.65
10.44
10.20
10.08
10.02
9.92
9.78
9.71
9.82
10.13
10.48
10.59
10.25
9.37
8.12
6.73
5.39
4.14
2.83
1.25
-0.66
-2.81
-5.00
-7.09
-9.18
-11.48
-14.19
-17.27
-20.36
-22.78
-23.86
-23.20
-20.84
-17.29
-13.30
-9.56
-6.44
-3.94
-1.82
0.26
2.49
4.89
7.27
9.42
11.19
12.60
13.73
14.60
15.17
15.32
15.04
14.48
13.96
13.79
14.05
14.47
14.54
13.72
11.73
8.72
5.12
1.52
-1.68
-4.37
-6.72
-9.02
-11.48
-14.11
-16.69
-18.84
-20.16
-20.38
-19.35
-17.06
-13.67
-9.43
-4.72
0.04
4.41
8.06
10.84
12.78
14.07
14.85
15.20
15.12
14.63
13.85
13.04
12.51
12.47
12.89
13.54
14.12
14.33
14.06
13.30
12.04
10.16
7.55
4.14
0.12
-4.09
-8.00
-11.25
-13.72
-15.57
-17.01
-18.12
-18.80
-18.81
-17.93
-16.07
-13.33
-9.86
-5.91
-1.79
2.24
5.88
8.96
11.44
13.37
14.88
16.01
16.71
16.93
16.69
16.11
15.41
14.78
14.36
14.20
14.19
14.15
13.80
12.86
11.05
8.28
4.59
0.21
-4.52
-9.19
-13.45
-16.97
-19.46
-20.70
-20.54
-19.06
-16.52
-13.35
-9.95
-6.66
-3.64
-0.95
1.39
3.46
5.26
6.81
8.05
8.96
9.54
9.91
10.17
10.42
10.62
10.64
10.27
9.44
8.17
6.63
5.00
3.33
1.54
-0.51
-2.98
-5.81
-8.74
-11.40
-13.41
-14.50
-14.58
-13.73
-12.15
-10.17
-8.07
-6.02
-4.07
-2.08
0.10
2.57
5.24
7.91
10.24
11.96
12.98
13.34
13.28
13.21
13.45
14.21
15.35
16.45
16.95
16.27
14.23
11.05
7.35
3.89
1.22
-0.58
-1.83
-3.10
-4.81
-7.06
-9.55
-11.83
-13.57
-14.62
-14.98
-14.62
-13.38
-11.09
-7.79
-3.84
0.09
3.33
5.53
6.84
7.69
8.67
10.05
11.75
13.41
14.55
14.88
14.34
13.13
11.64
10.27
9.38
9.11
9.39
9.96
10.52
10.78
10.57
9.77
8.34
6.31
3.76
0.89
-1.98
-4.57
-6.72
-8.48
-10.06
-11.66
-13.37
-15.11
-16.59
-17.55
-17.77
-17.19
-15.82
-13.85
-11.40
-8.65
-5.73
-2.77
0.13
2.87
5.40
7.64
9.53
10.95
11.84
12.18
12.09
11.80
11.56
11.58
11.88
12.31
12.62
12.61
12.19
11.41
10.36
9.03
7.39
5.39
3.17
1.05
-0.61
-1.62
-2.09
-2.45
-3.23
-4.81
-7.20
-10.12
-13.11
-15.77
-17.84
-19.19
-19.76
-19.59
-18.72
-17.26
-15.40
-13.31
-11.03
-8.50
-5.64
-2.40
1.09
4.50
7.46
9.65
10.97
11.57
11.81
12.05
12.56
13.32
14.10
14.62
14.65
14.12
13.11
11.76
10.18
8.49
6.85
5.44
4.40
3.76
3.32
2.77
1.84
0.38
-1.49
-3.61
-5.91
-8.39
-11.15
-14.16
-17.17
-19.77
-21.53
-22.24
-21.96
-21.01
-19.67
-18.12
-16.32
-14.18
-11.63
-8.77
-5.82
-3.07
-0.72
1.15
2.60
3.78
4.81
5.86
6.94
7.95
8.79
9.35
9.62
9.71
9.76
9.85
9.94
9.86
9.50
8.79
7.79
6.61
5.31
3.90
2.33
0.58
-1.30
-3.16
-4.82
-6.18
-7.26
-8.26
-9.37
-10.74
-12.40
-14.22
-15.95
-17.16
-17.49
-16.60
-14.47
-11.35
-7.79
-4.39
-1.66
0.14
1.18
1.83
2.49
3.35
4.30
5.02
5.25
4.97
4.46
4.12
4.22
4.78
5.53
6.13
6.27
5.84
4.90
3.59
2.07
0.53
-0.88
-2.00
-2.80
-3.34
-3.85
-4.58
-5.80
-7.57
-9.76
-12.10
-14.23
-15.81
-16.59
-16.45
-15.42
-13.67
-11.46
-9.03
-6.57
-4.15
-1.79
0.50
2.69
4.62
6.11
7.02
7.29
6.97
6.27
5.43
4.70
4.23
3.98
3.75
3.29
2.36
0.96
-0.78
-2.58
-4.26
-5.80
-7.47
-9.63
-12.55
-16.24
-20.39
-24.49
-28.05
-30.76
-32.56
-33.61
-34.09
-34.12
-33.74
-32.91
-31.65
-29.95
-27.78
-25.00
-21.46
-17.12
-12.19
-7.21
-2.83
0.40
2.39
3.55
4.62
6.19
8.42
10.89
12.91
13.86
13.55
12.19
10.27
8.14
5.95
3.61
0.96
-2.11
-5.52
-9.09
-12.60
-15.86
-18.72
-21.07
-22.82
-23.94
-24.45
-24.37
-23.68
-22.31
-20.19
-17.26
-13.54
-9.03
-3.81
2.03
8.34
14.85
21.18
26.96
31.94
35.96
38.98
40.96
41.93
41.98
41.33
40.29
39.20
38.21
37.23
35.99
34.24
31.91
29.25
26.61
24.24
22.04
19.46
15.78
10.43
3.31
-5.11
-13.91
-22.06
-28.77
-33.69
-36.92
-38.77
-39.55
-39.36
-38.13
-35.81
-32.50
-28.55
-24.54
-21.05
-18.46
-16.88
-16.17
-16.03
-16.12
-16.24
-16.28
-16.25
-16.16
-15.96
-15.51
-14.60
-13.04
-10.73
-7.75
-4.26
-0.46
3.44
7.37
11.30
15.15
18.67
21.45
23.07
23.31
22.36
20.73
19.13
18.14
18.05
18.75
19.86
20.88
21.32
20.88
19.48
17.29
14.63
11.93
9.64
8.03
7.22
7.16
7.66
8.47
9.37
10.12
10.54
10.62
10.41
10.07
9.80
9.73
9.82
9.98
10.03
9.80
9.18
8.02
6.27
4.00
1.36
-1.37
-3.93
-6.16
-8.04
-9.66
-11.14
-12.62
-14.25
-16.14
-18.39
-21.02
-23.89
-26.63
-28.78
-29.91
-29.79
-28.47
-26.29
-23.65
-20.81
-17.79
-14.39
-10.42
-5.93
-1.28
2.96
6.26
8.44
9.71
10.56
11.44
12.47
13.53
14.26
14.42
13.96
13.13
12.23
11.51
11.05
10.80
10.61
10.28
9.61
8.50
6.98
5.24
3.56
2.14
0.99
-0.13
-1.58
-3.69
-6.61
-10.22
-14.16
-17.92
-20.94
-22.71
-22.86
-21.25
-18.06
-13.79
-9.12
-4.70
-0.94
2.09
4.55
6.67
8.59
10.33
11.79
12.92
13.79
14.54
15.29
16.01
16.57
16.79
16.65
16.31
15.98
15.79
15.69
15.43
14.77
13.59
11.87
9.70
7.16
4.31
1.22
-1.99
-5.20
-8.32
-11.25
-13.97
-16.35
-18.15
-19.08
-18.87
-17.43
-14.92
-11.68
-8.15
-4.70
-1.64
0.91
2.94
4.55
5.95
7.26
8.56
9.79
10.87
11.82
12.60
13.22
13.60
13.69
13.44
12.94
12.36
11.83
11.34
10.79
10.04
9.06
7.88
6.49
4.81
2.59
-0.40
-4.24
-8.75
-13.52
-18.05
-21.89
-24.78
-26.59
-27.19
-26.55
-24.64
-21.55
-17.54
-12.98
-8.34
-4.07
-0.45
2.39
4.51
6.19
7.69
9.25
10.95
12.71
14.34
15.67
16.56
16.99
17.05
16.79
16.28
15.54
14.59
13.47
12.32
11.23
10.24
9.27
8.11
6.48
4.16
0.97
-3.11
-7.90
-13.07
-18.10
-22.33
-25.18
-26.24
-25.43
-23.00
-19.41
-15.22
-10.92
-6.92
-3.45
-0.61
1.71
3.70
5.59
7.52
9.43
11.12
12.34
12.95
12.99
12.66
12.19
11.75
11.44
11.26
11.14
11.02
10.74
10.10
8.92
7.13
4.82
2.27
-0.20
-2.43
-4.47
-6.60
-9.11
-12.10
-15.36
-18.38
-20.53
-21.34
-20.65
-18.62
-15.61
-12.02
-8.19
-4.39
-0.84
2.24
4.81
6.89
8.59
10.06
11.32
12.31
12.95
13.22
13.18
12.99
12.77
12.61
12.47
12.37
12.29
12.19
11.92
11.20
9.77
7.49
4.52
1.24
-1.97
-4.90
-7.62
-10.38
-13.41
-16.73
-20.17
-23.42
-26.23
-28.49
-30.11
-30.93
-30.70
-29.15
-26.17
-22.04
-17.24
-12.33
-7.63
-3.20
1.15
5.62
10.20
14.64
18.49
21.43
23.35
24.36
24.73
24.72
24.58
24.47
24.48
24.68
25.03
25.36
25.47
25.08
24.05
22.40
20.24
17.71
14.91
11.87
8.58
5.10
1.52
-2.07
-5.61
-9.12
-12.55
-15.73
-18.47
-20.48
-21.60
-21.75
-21.00
-19.41
-16.98
-13.74
-9.89
-5.78
-1.89
1.41
4.00
6.06
7.87
9.62
11.30
12.64
13.44
13.65
13.50
13.24
13.08
13.04
13.03
12.92
12.64
12.15
11.34
10.07
8.20
5.76
2.98
0.30
-1.88
-3.33
-4.24
-5.11
-6.54
-8.99
-12.55
-16.88
-21.29
-25.01
-27.40
-28.11
-27.15
-24.83
-21.54
-17.66
-13.39
-8.84
-4.08
0.69
5.16
8.95
11.82
13.79
15.19
16.51
18.13
20.11
22.14
23.74
24.49
24.27
23.35
22.09
20.83
19.76
18.88
18.06
17.11
15.82
14.00
11.57
8.59
5.38
2.32
-0.24
-2.23
-3.93
-5.74
-8.09
-11.11
-14.67
-18.40
-21.84
-24.56
-26.30
-26.89
-26.30
-24.58
-21.88
-18.36
-14.21
-9.63
-4.87
-0.22
4.01
7.48
10.02
11.65
12.51
12.94
13.28
13.78
14.55
15.55
16.55
17.32
17.66
17.52
16.97
16.22
15.45
14.71
13.93
12.90
11.44
9.48
7.09
4.50
1.91
-0.59
-3.09
-5.81
-8.98
-12.74
-16.98
-21.43
-25.60
-29.04
-31.31
-32.19
-31.61
-29.74
-26.81
-23.10
-18.85
-14.18
-9.19
-4.01
1.07
5.64
9.31
11.85
13.35
14.14
14.68
15.29
16.15
17.23
18.36
19.36
20.06
20.24
19.74
18.48
16.56
14.21
11.71
9.24
6.77
4.21
1.43
-1.59
-4.75
-8.01
-11.42
-14.99
-18.61
-21.93
-24.39
-25.60
-25.49
-24.35
-22.68
-20.83
-18.77
-16.26
-12.99
-8.90
-4.29
0.42
4.82
8.70
11.97
14.54
16.17
16.65
15.93
14.31
12.49
11.19
10.81
11.28
11.99
12.19
11.34
9.47
6.99
4.57
2.69
1.44
0.49
-0.67
-2.57
-5.49
-9.44
-14.17
-19.27
-24.26
-28.65
-31.96
-33.79
-33.87
-32.16
-28.82
-24.30
-19.16
-13.88
-8.82
-4.08
0.32
4.30
7.69
10.26
11.88
12.66
12.96
13.19
13.60
14.14
14.48
14.31
13.49
12.07
10.26
8.26
6.17
4.02
1.85
-0.25
-2.16
-3.75
-5.00
-6.05
-7.12
-8.52
-10.45
-12.92
-15.65
-18.05
-19.42
-19.31
-17.70
-15.10
-12.27
-9.79
-7.82
-6.05
-4.01
-1.41
1.62
4.63
7.12
8.82
9.79
10.31
10.71
11.17
11.72
12.16
12.26
11.76
10.48
8.45
5.93
3.36
1.18
-0.39
-1.47
-2.44
-3.78
-5.89
-8.94
-12.95
-17.71
-22.90
-28.07
-32.62
-35.88
-37.18
-36.14
-32.76
-27.57
-21.42
-15.22
-9.59
-4.74
-0.58
3.11
6.31
8.75
10.06
10.01
8.77
7.00
5.46
4.65
4.57
4.76
4.59
3.68
2.10
0.23
-1.48
-2.78
-3.81
-4.91
-6.44
-8.60
-11.38
-14.59
-18.07
-21.60
-24.98
-27.84
-29.73
-30.14
-28.72
-25.49
-20.76
-15.05
-8.89
-2.73
3.14
8.47
12.97
16.42
18.66
19.81
20.19
20.21
20.18
20.15
20.01
19.59
18.83
17.87
16.93
16.18
15.62
15.14
14.62
13.97
13.11
11.90
10.12
7.58
4.25
0.37
-3.59
-7.22
-10.32
-13.07
-15.75
-18.50
-21.00
-22.52
-22.21
-19.49
-14.39
-7.45
0.53
8.78
16.71
23.83
29.69
33.86
36.05
36.26
34.86
32.53
29.90
27.42
25.27
23.42
21.83
20.56
19.72
19.36
19.35
19.36
19.01
17.99
16.26
13.95
11.32
8.58
5.80
2.96
0.05
-2.87
-5.71
-8.51
-11.43
-14.79
-18.88
-23.77
-29.17
-34.39
-38.56
-40.89
-40.90
-38.56
-34.37
-29.09
-23.50
-18.15
-13.21
-8.44
-3.49
1.90
7.72
13.52
18.72
22.68
25.06
25.93
25.74
25.13
24.62
24.44
24.54
24.56
24.24
23.40
22.14
20.70
19.32
18.15
17.15
16.25
15.28
14.12
12.71
11.07
9.27
7.38
5.38
3.16
0.54
-2.61
-6.33
-10.48
-14.88
-19.38
-23.94
-28.52
-32.96
-36.90
-39.80
-41.06
-40.37
-37.74
-33.55
-28.33
-22.60
-16.69
-10.78
-5.04
0.36
5.24
9.49
13.13
16.27
19.00
21.33
23.14
24.26
24.60
24.24
23.50
22.73
22.22
22.01
21.94
21.82
21.52
21.03
20.42
19.71
18.83
17.61
15.92
13.76
11.35
9.01
7.00
5.38
3.99
2.55
0.80
-1.40
-4.04
-7.00
-10.14
-13.23
-15.99
-18.00
-18.88
-18.37
-16.44
-13.31
-9.39
-5.14
-1.05
2.55
5.45
7.59
9.12
10.35
11.67
13.33
15.27
17.10
18.34
18.60
17.87
16.47
14.93
13.69
12.98
12.68
12.50
12.07
11.07
9.30
6.74
3.57
0.10
-3.19
-5.83
-7.61
-8.57
-9.12
-9.77
-10.96
-12.83
-15.23
-17.74
-19.90
-21.28
-21.68
-21.15
-19.87
-18.11
-16.07
-13.82
-11.36
-8.69
-5.87
-3.00
-0.25
2.23
4.33
6.02
7.31
8.29
8.98
9.40
9.52
9.32
8.94
8.56
8.45
8.77
9.47
10.27
10.77
10.68
9.91
8.69
7.28
5.98
4.80
3.72
2.65
1.56
0.38
-1.03
-2.96
-5.67
-9.14
-12.91
-16.14
-17.94
-17.79
-15.80
-12.70
-9.48
-6.91
-5.19
-4.03
-2.95
-1.66
-0.30
0.80
1.37
1.47
1.52
1.92
2.77
3.79
4.53
4.64
4.22
3.62
3.18
2.92
2.51
1.46
-0.41
-2.82
-5.06
-6.46
-6.78
-6.38
-5.99
-6.37
-7.90
-10.35
-13.08
-15.35
-16.64
-16.91
-16.37
-15.30
-13.80
-11.76
-9.02
-5.65
-1.99
1.45
4.18
6.05
7.20
7.97
8.64
9.29
9.87
10.31
10.62
10.93
11.30
11.60
11.47
10.61
8.89
6.49
3.88
1.60
-0.04
-1.06
-1.79
-2.66
-4.00
-5.89
-8.15
-10.42
-12.40
-13.92
-14.85
-15.17
-14.84
-13.82
-12.17
-9.99
-7.50
-4.87
-2.24
0.33
2.84
5.18
7.17
8.61
9.43
9.74
9.79
9.91
10.22
10.66
10.99
10.99
10.59
9.84
8.82
7.55
6.07
4.40
2.70
1.09
-0.47
-2.25
-4.59
-7.73
-11.46
-15.21
-18.25
-20.06
-20.59
-20.11
-18.98
-17.37
-15.19
-12.33
-8.80
-4.93
-1.18
2.06
4.59
6.49
7.87
8.82
9.37
9.54
9.47
9.49
9.96
11.12
13.00
15.27
17.49
19.19
20.08
20.06
19.20
17.65
15.47
12.72
9.42
5.68
1.69
-2.30
-6.09
-9.54
-12.62
-15.37
-17.64
-19.19
-19.63
-18.68
-16.31
-12.96
-9.31
-6.09
-3.75
-2.31
-1.50
-0.93
-0.27
0.65
1.87
3.39
5.06
6.63
7.74
8.06
7.55
6.48
5.32
4.45
3.97
3.62
3.02
1.84
-0.03
-2.45
-5.25
-8.31
-11.50
-14.61
-17.28
-19.11
-19.75
-19.16
-17.63
-15.57
-13.37
-11.17
-8.91
-6.47
-3.77
-0.94
1.75
4.06
5.83
7.12
8.08
8.86
9.48
9.83
9.73
9.08
7.95
6.54
5.17
4.07
3.40
3.12
3.08
2.97
2.43
1.17
-0.96
-3.90
-7.42
-11.09
-14.55
-17.40
-19.37
-20.29
-20.12
-18.99
-17.15
-14.84
-12.32
-9.67
-6.84
-3.76
-0.48
2.79
5.60
7.54
8.37
8.13
7.21
6.12
5.37
5.13
5.30
5.55
5.57
5.24
4.62
3.92
3.26
2.57
1.57
-0.09
-2.58
-5.77
-9.26
-12.47
-14.94
-16.53
-17.32
-17.60
-17.63
-17.46
-17.01
-16.06
-14.41
-11.99
-8.84
-5.10
-0.97
3.23
7.19
10.54
13.03
14.58
15.32
15.48
15.29
14.95
14.56
14.16
13.72
13.17
12.40
11.21
9.46
7.22
4.78
2.52
0.75
-0.52
-1.61
-3.03
-5.21
-8.19
-11.68
-15.17
-18.18
-20.49
-22.09
-23.07
-23.42
-22.95
-21.37
-18.56
-14.70
-10.26
-5.81
-1.84
1.47
4.17
6.37
8.13
9.39
10.10
10.37
10.47
10.80
11.60
12.85
14.24
15.28
15.61
15.12
14.01
12.60
11.17
9.90
8.74
7.60
6.34
4.85
3.06
0.92
-1.56
-4.35
-7.38
-10.61
-13.90
-17.13
-20.04
-22.30
-23.47
-23.22
-21.42
-18.33
-14.44
-10.39
-6.67
-3.50
-0.77
1.81
4.47
7.22
9.83
11.92
13.24
13.80
13.88
13.92
14.18
14.70
15.23
15.43
15.08
14.23
13.13
12.02
11.05
10.10
9.06
7.81
6.33
4.67
2.89
0.91
-1.34
-3.95
-6.85
-9.91
-12.92
-15.66
-17.89
-19.36
-19.80
-19.05
-17.17
-14.47
-11.42
-8.48
-5.85
-3.52
-1.35
0.78
2.86
4.77
6.33
7.49
8.37
9.17
10.13
11.24
12.35
13.08
13.09
12.23
10.61
8.63
6.80
5.45
4.62
4.06
3.36
2.19
0.49
-1.56
-3.66
-5.57
-7.21
-8.66
-10.06
-11.52
-13.04
-14.46
-15.51
-15.81
-15.13
-13.48
-11.21
-8.76
-6.59
-4.82
-3.29
-1.68
0.23
2.36
4.45
6.18
7.37
8.13
8.67
9.19
9.66
10.02
10.21
10.35
10.63
11.09
11.52
11.50
10.65
8.90
6.58
4.23
2.34
1.04
0.05
-1.09
-2.75
-5.03
-7.76
-10.52
-12.97
-14.85
-16.06
-16.56
-16.36
-15.50
-13.99
-11.84
-9.03
-5.66
-1.93
1.74
4.85
7.05
8.19
8.49
8.36
8.20
8.23
8.51
8.97
9.46
9.89
10.11
9.94
9.22
7.92
6.22
4.54
3.26
2.57
2.36
2.30
2.01
1.24
-0.09
-1.98
-4.40
-7.23
-10.30
-13.34
-16.06
-18.22
-19.74
-20.66
-20.94
-20.44
-18.92
-16.26
-12.61
-8.43
-4.36
-0.91
1.76
3.85
5.75
7.81
10.13
12.49
14.48
15.79
16.25
15.99
15.36
14.73
14.32
14.16
14.06
13.84
13.35
12.57
11.56
10.33
8.87
7.14
5.21
3.21
1.32
-0.36
-1.93
-3.63
-5.74
-8.33
-11.22
-14.06
-16.46
-18.15
-19.08
-19.25
-18.69
-17.39
-15.41
-12.90
-10.15
-7.48
-5.04
-2.82
-0.58
1.89
4.57
7.21
9.45
11.09
12.18
12.98
13.66
14.26
14.55
14.31
13.53
12.49
11.67
11.44
11.82
12.42
12.72
12.25
10.93
9.02
6.97
5.16
3.75
2.65
1.64
0.50
-0.94
-2.80
-5.07
-7.71
-10.58
-13.38
-15.77
-17.44
-18.22
-18.10
-17.20
-15.73
-13.93
-12.01
-10.11
-8.30
-6.49
-4.54
-2.38
-0.05
2.26
4.33
6.03
7.32
8.32
9.06
9.55
9.70
9.56
9.32
9.40
10.07
11.35
12.75
13.52
13.03
11.07
8.00
4.53
1.36
-1.10
-2.80
-3.94
-4.79
-5.62
-6.71
-8.27
-10.52
-13.48
-16.81
-19.89
-21.95
-22.42
-21.14
-18.43
-14.90
-11.13
-7.55
-4.32
-1.50
0.81
2.49
3.39
3.57
3.31
3.03
3.12
3.70
4.61
5.49
5.96
5.86
5.23
4.29
3.28
2.42
1.82
1.53
1.54
1.64
1.55
0.91
-0.50
-2.66
-5.36
-8.31
-11.34
-14.40
-17.45
-20.31
-22.61
-23.85
-23.68
-22.12
-19.50
-16.28
-12.86
-9.42
-5.99
-2.64
0.48
3.17
5.24
6.62
7.41
7.77
7.90
8.03
8.34
8.88
9.57
10.09
10.05
9.20
7.53
5.37
3.16
1.26
-0.25
-1.54
-2.94
-4.73
-7.06
-9.91
-13.08
-16.30
-19.16
-21.28
-22.40
-22.42
-21.42
-19.58
-17.11
-14.12
-10.71
-7.02
-3.16
0.67
4.32
7.69
10.72
13.26
15.16
16.23
16.41
15.86
14.89
13.91
13.15
12.66
12.20
11.52
10.39
8.77
6.76
4.54
2.26
-0.07
-2.52
-5.14
-7.99
-11.03
-14.18
-17.37
-20.51
-23.45
-25.92
-27.62
-28.28
-27.66
-25.76
-22.65
-18.52
-13.65
-8.34
-2.98
1.99
6.16
9.24
11.24
12.43
13.27
14.10
15.05
15.94
16.49
16.45
15.81
14.77
13.61
12.58
11.79
11.17
10.62
10.10
9.65
9.24
8.78
8.10
7.00
5.46
3.59
1.56
-0.51
-2.67
-5.13
-8.04
-11.39
-14.91
-18.16
-20.62
-21.89
-21.74
-20.12
-17.21
-13.39
-9.22
-5.33
-2.13
0.30
2.22
4.07
6.12
8.33
10.37
11.88
12.70
13.00
13.13
13.33
13.63
13.83
13.71
13.19
12.36
11.35
10.26
9.06
7.66
6.11
4.45
2.76
0.99
-1.05
-3.60
-6.64
-9.87
-12.75
-14.75
-15.72
-15.87
-15.58
-15.15
-14.50
-13.15
-10.64
-6.77
-1.85
3.35
7.93
11.14
12.66
12.61
11.33
9.29
6.92
4.59
2.58
1.09
0.20
-0.12
0.05
0.61
1.47
2.50
3.51
4.16
4.12
3.13
1.21
-1.43
-4.43
-7.43
-10.14
-12.43
-14.23
-15.53
-16.40
-16.90
-17.16
-17.20
-16.91
-16.03
-14.24
-11.36
-7.49
-3.00
1.60
5.87
9.51
12.40
14.49
15.80
16.36
16.31
15.87
15.25
14.60
13.92
13.11
12.05
10.73
9.21
7.68
6.26
5.01
3.89
2.80
1.54
-0.10
-2.24
-4.97
-8.19
-11.68
-15.16
-18.32
-20.92
-22.77
-23.71
-23.57
-22.28
-19.89
-16.67
-13.01
-9.25
-5.56
-1.92
1.87
5.88
9.97
13.73
16.67
18.53
19.41
19.74
20.08
20.77
21.76
22.65
22.99
22.53
21.32
19.69
17.90
16.07
14.06
11.66
8.78
5.58
2.39
-0.54
-3.13
-5.64
-8.35
-11.46
-14.86
-18.21
-21.07
-23.15
-24.30
-24.54
-23.87
-22.20
-19.42
-15.56
-10.89
-5.94
-1.25
2.78
6.09
8.81
11.21
13.41
15.40
17.06
18.30
19.11
19.53
19.65
19.60
19.51
19.53
19.77
20.24
20.77
21.03
20.72
19.71
18.10
16.18
14.26
12.54
10.96
9.31
7.27
4.61
1.25
-2.75
-7.18
-11.77
-16.20
-20.02
-22.80
-24.21
-24.08
-22.49
-19.79
-16.46
-12.95
-9.55
-6.28
-3.00
0.48
4.16
7.77
10.82
12.84
13.61
13.33
12.48
11.63
11.17
11.13
11.30
11.39
11.24
10.86
10.31
9.61
8.63
7.21
5.32
3.10
0.91
-1.00
-2.60
-4.19
-6.19
-8.92
-12.34
-16.05
-19.42
-21.74
-22.54
-21.68
-19.25
-15.55
-10.95
-5.82
-0.65
4.08
7.94
10.59
11.98
12.31
12.03
11.73
11.86
12.58
13.67
14.60
14.83
14.03
12.31
10.10
8.02
6.46
5.50
4.90
4.28
3.35
2.07
0.48
-1.44
-3.82
-6.82
-10.52
-14.70
-18.83
-22.24
-24.28
-24.66
-23.49
-21.16
-18.14
-14.76
-11.08
-7.09
-2.77
1.70
6.00
9.75
12.73
14.95
16.56
17.84
18.99
20.17
21.40
22.62
23.65
24.28
24.23
23.33
21.64
19.45
17.19
15.27
13.90
13.08
12.63
12.35
12.00
11.49
10.74
9.80
8.79
7.94
7.53
7.84
9.02
11.13
14.16
18.10
23.10
29.53
37.89
48.56
61.34
75.04
87.26
94.78
94.37
83.97
63.53
35.04
1.82
-32.51
-64.90
-93.07
-115.34
-130.17
-136.23
-132.85
-120.70
-101.96
-79.94
-58.11
-39.04
-23.92
-12.71
-4.75
0.62
3.73
4.67
3.53
0.58
-3.70
-8.74
-14.03
-19.09
-23.50
-26.88
-28.91
-29.49
-28.75
-27.00
-24.54
-21.53
-17.93
-13.66
-8.83
-3.79
0.94
4.91
7.95
10.19
11.90
13.29
14.40
15.09
15.29
15.01
14.47
13.92
13.47
13.08
12.54
11.68
10.49
9.12
7.77
6.52
5.28
3.87
2.13
0.03
-2.30
-4.70
-7.11
-9.52
-12.01
-14.41
-16.33
-17.16
-16.39
-13.87
-10.02
-5.64
-1.56
1.67
4.04
5.90
7.76
9.88
12.21
14.34
15.83
16.50
16.52
16.39
16.56
17.19
18.01
18.49
18.18
16.91
14.93
12.68
10.49
8.40
6.21
3.78
1.16
-1.34
-3.49
-5.31
-7.23
-9.75
-13.14
-17.16
-21.13
-24.22
-25.87
-25.89
-24.50
-22.07
-18.90
-15.19
-11.06
-6.57
-1.80
3.14
8.07
12.68
16.55
19.32
20.80
21.17
20.90
20.49
20.32
20.45
20.62
20.52
19.88
18.68
17.03
15.16
13.25
11.34
9.42
7.40
5.28
3.19
1.34
-0.13
-1.22
-2.26
-3.80
-6.32
-10.03
-14.66
-19.51
-23.66
-26.38
-27.26
-26.35
-23.95
-20.46
-16.29
-11.73
-7.12
-2.68
1.39
5.02
8.19
10.92
13.24
15.09
16.49
17.54
18.39
19.18
19.98
20.69
21.12
21.17
20.87
20.41
19.95
19.52
18.94
18.04
16.69
14.91
12.86
10.66
8.35
5.84
3.00
-0.27
-3.92
-7.84
-11.88
-15.87
-19.65
-23.00
-25.61
-27.18
-27.43
-26.23
-23.62
-19.86
-15.35
-10.67
-6.31
-2.60
0.46
3.15
5.82
8.69
11.66
14.33
16.24
17.06
16.86
16.06
15.17
14.62
14.49
14.57
14.52
14.05
13.07
11.69
10.13
8.56
7.03
5.44
3.60
1.37
-1.24
-4.06
-6.92
-9.61
-12.10
-14.40
-16.50
-18.22
-19.31
-19.49
-18.70
-17.00
-14.59
-11.71
-8.46
-4.99
-1.48
1.77
4.38
6.15
7.11
7.60
8.01
8.60
9.36
10.19
10.91
11.39
11.52
11.09
9.93
7.97
5.46
2.94
0.99
-0.04
-0.35
-0.56
-1.43
-3.49
-6.72
-10.60
-14.37
-17.31
-19.02
-19.45
-18.72
-17.13
-14.92
-12.29
-9.36
-6.22
-2.90
0.47
3.75
6.77
9.34
11.28
12.41
12.69
12.22
11.27
10.18
9.28
8.65
8.10
7.32
6.04
4.23
2.09
-0.00
-1.69
-2.83
-3.58
-4.33
-5.47
-7.31
-9.90
-13.09
-16.55
-19.88
-22.64
-24.44
-24.99
-24.10
-21.82
-18.32
-13.92
-9.02
-4.04
0.63
4.66
7.94
10.51
12.50
14.12
15.54
16.76
17.70
18.15
17.94
17.03
15.45
13.38
11.07
8.76
6.69
4.96
3.61
2.50
1.38
-0.07
-2.12
-4.90
-8.35
-12.21
-16.07
-19.59
-22.56
-24.90
-26.62
-27.61
-27.66
-26.51
-23.95
-20.06
-15.15
-9.70
-4.19
1.03
5.74
9.79
13.04
15.36
16.71
17.26
17.30
17.20
17.24
17.50
17.82
17.90
17.44
16.31
14.69
12.91
11.36
10.18
9.27
8.26
6.84
4.95
2.79
0.71
-1.15
-2.96
-5.19
-8.34
-12.58
-17.59
-22.59
-26.65
-29.02
-29.44
-28.18
-25.84
-23.11
-20.42
-17.89
-15.34
-12.47
-9.10
-5.32
-1.40
2.30
5.48
8.13
10.37
12.44
14.39
16.23
17.81
18.95
19.57
19.63
19.25
18.59
17.77
16.85
15.74
14.33
12.54
10.41
8.12
5.93
4.02
2.40
0.94
-0.64
-2.64
-5.27
-8.67
-12.75
-17.23
-21.61
-25.21
-27.40
-27.84
-26.53
-23.79
-20.03
-15.62
-10.80
-5.83
-1.02
3.25
6.68
9.24
11.17
12.85
14.53
16.18
17.54
18.39
18.70
18.71
18.75
19.01
19.43
19.73
19.56
18.68
17.08
14.87
12.34
9.73
7.24
5.04
3.18
1.60
0.19
-1.22
-2.85
-4.93
-7.66
-11.14
-15.21
-19.48
-23.33
-26.13
-27.43
-27.11
-25.35
-22.53
-19.11
-15.47
-11.83
-8.22
-4.55
-0.69
3.37
7.46
11.22
14.26
16.36
17.58
18.29
18.86
19.47
20.00
20.18
19.74
18.63
17.11
15.50
14.03
12.73
11.50
10.23
8.92
7.63
6.46
5.36
4.12
2.52
0.37
-2.33
-5.45
-8.67
-11.73
-14.36
-16.50
-18.20
-19.54
-20.56
-21.16
-21.19
-20.50
-19.05
-16.94
-14.39
-11.60
-8.65
-5.53
-2.17
1.47
5.20
8.66
11.38
13.00
13.42
12.90
11.89
10.94
10.45
10.56
11.16
11.95
12.59
12.78
12.39
11.38
9.87
8.03
6.09
4.26
2.62
1.15
-0.35
-2.08
-4.24
-6.90
-10.07
-13.53
-17.00
-20.08
-22.35
-23.47
-23.33
-22.04
-19.88
-17.18
-14.15
-10.82
-7.17
-3.16
1.05
5.17
8.82
11.67
13.59
14.63
15.01
14.96
14.73
14.45
14.16
13.77
13.16
12.26
11.06
9.70
8.31
6.95
5.47
3.64
1.29
-1.49
-4.40
-7.03
-9.21
-11.06
-12.98
-15.30
-18.04
-20.74
-22.68
-23.28
-22.40
-20.36
-17.75
-15.05
-12.42
-9.69
-6.59
-2.99
0.93
4.79
8.11
10.51
11.81
12.08
11.61
10.87
10.26
10.13
10.53
11.31
12.23
13.10
13.83
14.40
14.74
14.65
13.90
12.42
10.44
8.47
7.20
7.02
7.91
9.28
10.23
9.97
8.22
5.31
2.15
-0.19
-0.88
0.40
3.51
8.00
13.32
18.99
24.61
29.91
34.86
39.92
46.11
54.71
66.52
81.01
95.89
107.38
111.34
104.62
85.83
55.65
16.54
-27.79
-72.74
-113.28
-144.50
-162.53
-165.59
-154.65
-133.21
-106.34
-79.09
-55.18
-36.49
-23.34
-15.19
-11.20
-10.58
-12.48
-15.87
-19.50
-22.24
-23.28
-22.41
-20.03
-16.88
-13.64
-10.69
-8.05
-5.58
-3.17
-0.87
1.09
2.52
3.39
3.86
4.16
4.49
4.89
5.29
5.60
5.79
5.85
5.77
5.39
4.57
3.26
1.58
-0.13
-1.56
-2.57
-3.31
-4.11
-5.26
-6.85
-8.69
-10.40
-11.64
-12.19
-12.05
-11.33
-10.09
-8.45
-6.44
-4.20
-1.96
0.02
1.43
2.04
1.79
0.81
-0.56
-1.87
-2.64
-2.66
-1.97
-0.92
0.05
0.52
0.24
-0.79
-2.41
-4.41
-6.61
-8.99
-11.59
-14.34
-17.09
-19.44
-21.01
-21.53
-21.06
-19.92
-18.57
-17.39
-16.42
-15.41
-13.95
-11.64
-8.38
-4.37
-0.07
3.95
7.19
9.41
10.67
11.28
11.68
12.12
12.64
13.01
12.92
12.14
10.64
8.61
6.29
3.95
1.76
-0.11
-1.56
-2.58
-3.34
-4.23
-5.75
-8.22
-11.57
-15.25
-18.39
-20.23
-20.44
-19.25
-17.20
-14.80
-12.20
-9.11
-5.12
-0.02
5.90
11.93
17.24
21.23
23.80
25.23
25.97
26.41
26.66
26.60
26.01
24.74
22.81
20.43
17.96
15.75
13.99
12.66
11.49
10.06
7.97
5.00
1.26
-2.88
-6.93
-10.45
-13.27
-15.40
-16.92
-17.84
-17.96
-17.03
-14.94
-11.89
-8.34
-4.83
-1.72
0.99
3.53
6.14
8.88
11.59
13.98
15.74
16.76
17.04
16.78
16.24
15.63
15.14
14.81
14.59
14.33
13.84
13.02
11.81
10.23
8.29
5.97
3.29
0.27
-2.88
-6.00
-8.94
-11.65
-14.10
-16.21
-17.71
-18.27
-17.66
-15.83
-13.03
-9.68
-6.15
-2.67
0.68
3.91
6.96
9.67
11.85
13.30
13.97
13.96
13.50
12.86
12.28
11.86
11.57
11.23
10.60
9.50
8.00
6.32
4.84
3.76
3.03
2.31
1.16
-0.73
-3.41
-6.69
-10.25
-13.85
-17.27
-20.24
-22.34
-22.99
-21.70
-18.31
-13.23
-7.35
-1.73
2.82
5.99
7.94
9.18
10.16
11.20
12.35
13.49
14.43
15.02
15.13
14.76
14.10
13.39
12.91
12.74
12.75
12.60
11.94
10.50
8.32
5.61
2.68
-0.22
-2.92
-5.41
-7.77
-10.14
-12.67
-15.35
-18.03
-20.35
-21.83
-22.14
-21.19
-19.11
-16.13
-12.49
-8.25
-3.54
1.42
6.25
10.46
13.71
15.93
17.41
18.61
19.94
21.40
22.65
23.20
22.70
21.22
19.28
17.52
16.39
15.79
15.21
14.05
12.08
9.63
7.41
6.06
5.67
5.76
5.53
4.39
2.23
-0.54
-3.32
-5.67
-7.47
-8.86
-9.92
-10.53
-10.26
-8.63
-5.32
-0.41
5.71
12.43
19.23
25.67
31.49
36.42
40.23
42.96
45.26
48.44
54.17
63.63
76.47
90.26
100.96
104.04
96.00
75.39
43.00
1.58
-44.80
-91.23
-132.38
-163.06
-179.17
-178.78
-162.83
-134.99
-100.65
-65.39
-33.65
-8.17
9.93
20.70
24.95
23.97
19.49
13.50
7.86
3.84
1.87
1.52
1.86
2.01
1.56
0.67
-0.08
-0.07
1.02
3.11
5.71
8.22
10.15
11.29
11.73
11.82
11.94
12.41
13.24
14.20
14.84
14.81
13.95
12.43
10.57
8.74
7.18
5.97
5.07
4.41
3.81
3.07
1.93
0.12
-2.39
-5.39
-8.33
-10.56
-11.50
-10.95
-9.16
-6.68
-4.14
-1.89
0.00
1.80
3.85
6.32
9.07
11.69
13.70
14.70
14.57
13.44
11.65
9.58
7.63
6.05
4.98
4.36
4.02
3.82
3.63
3.41
3.15
2.78
2.14
1.07
-0.50
-2.38
-4.28
-5.89
-7.13
-8.20
-9.52
-11.36
-13.73
-16.25
-18.34
-19.36
-18.91
-16.90
-13.58
-9.42
-4.96
-0.64
3.30
6.77
9.73
12.16
13.96
15.06
15.48
15.43
15.19
15.02
14.96
14.92
14.73
14.28
13.60
12.78
11.87
10.76
9.33
7.52
5.49
3.55
2.00
0.98
0.28
-0.49
-1.78
-3.83
-6.61
-9.74
-12.77
-15.22
-16.73
-17.13
-16.41
-14.66
-12.07
-8.86
-5.36
-1.92
1.10
3.43
4.96
5.79
6.21
6.56
7.07
7.80
8.60
9.31
9.81
10.08
10.18
10.09
9.78
9.19
8.31
7.21
6.00
4.71
3.22
1.43
-0.76
-3.28
-5.91
-8.41
-10.59
-12.43
-14.00
-15.37
-16.52
-17.34
-17.64
-17.27
-16.16
-14.33
-11.87
-8.93
-5.70
-2.31
1.07
4.27
6.99
8.94
9.90
9.98
9.57
9.20
9.21
9.55
9.79
9.40
8.12
6.12
3.88
1.87
0.26
-1.09
-2.48
-4.15
-6.08
-8.17
-10.34
-12.64
-15.17
-17.83
-20.32
-22.18
-23.02
-22.74
-21.48
-19.53
-17.10
-14.22
-10.86
-7.09
-3.20
0.36
3.06
4.62
5.10
4.94
4.76
5.07
6.09
7.64
9.24
10.25
10.23
9.06
7.04
4.74
2.76
1.48
0.82
0.38
-0.48
-2.21
-4.83
-7.99
-11.10
-13.69
-15.57
-16.81
-17.57
-17.94
-17.81
-17.08
-15.72
-13.81
-11.55
-9.00
-6.12
-2.78
1.00
5.02
8.86
12.05
14.24
15.33
15.43
14.84
13.98
13.31
13.17
13.67
14.56
15.34
15.48
14.62
12.78
10.22
7.32
4.29
1.16
-2.19
-5.74
-9.37
-12.83
-15.95
-18.72
-21.27
-23.67
-25.73
-26.96
-26.85
-25.08
-21.78
-17.46
-12.75
-8.17
-3.95
-0.15
3.26
6.20
8.55
10.24
11.36
12.11
12.77
13.45
14.06
14.41
14.27
13.62
12.63
11.51
10.46
9.46
8.35
6.89
4.90
2.38
-0.45
-3.28
-5.84
-8.07
-10.13
-12.24
-14.52
-16.82
-18.76
-19.87
-19.81
-18.53
-16.14
-12.86
-8.91
-4.44
0.28
4.85
8.71
11.36
12.57
12.53
11.81
11.04
10.73
10.99
11.65
12.39
12.92
13.05
12.72
11.96
10.84
9.55
8.25
7.12
6.15
5.20
4.04
2.56
0.79
-1.13
-3.02
-4.92
-7.05
-9.66
-12.80
-16.18
-19.18
-21.13
-21.64
-20.67
-18.54
-15.69
-12.51
-9.27
-6.15
-3.28
-0.79
1.30
3.08
4.76
6.50
8.28
9.96
11.28
12.09
12.41
12.41
12.22
11.83
11.13
10.01
8.54
6.92
5.52
4.53
3.93
3.48
2.77
1.52
-0.40
-2.96
-6.00
-9.32
-12.68
-15.79
-18.29
-19.90
-20.42
-19.86
-18.45
-16.58
-14.57
-12.53
-10.32
-7.62
-4.15
0.11
4.74
9.06
12.33
14.02
14.04
12.82
11.11
9.65
8.95
9.01
9.38
9.48
8.86
7.42
5.46
3.40
1.57
0.02
-1.49
-3.23
-5.32
-7.70
-10.27
-13.06
-16.27
-20.15
-24.67
-29.37
-33.37
-35.85
-36.35
-35.03
-32.53
-29.60
-26.64
-23.54
-19.84
-15.04
-9.08
-2.38
4.24
9.97
14.28
17.17
18.91
19.89
20.42
20.56
20.30
19.70
18.93
18.23
17.72
17.32
16.79
15.84
14.41
12.68
10.90
9.22
7.51
5.48
2.81
-0.60
-4.49
-8.43
-12.01
-14.97
-17.20
-18.58
-18.77
-17.34
-13.94
-8.63
-2.05
4.78
10.77
15.30
18.30
20.15
21.41
22.41
23.16
23.49
23.22
22.31
20.94
19.30
17.55
15.69
13.69
11.52
9.16
6.62
3.96
1.30
-1.19
-3.26
-4.69
-5.43
-5.66
-5.81
-6.38
-7.81
-10.28
-13.65
-17.49
-21.17
-24.07
-25.65
-25.61
-23.93
-20.86
-16.84
-12.36
-7.79
-3.34
0.92
4.97
8.71
11.91
14.37
15.94
16.68
16.83
16.67
16.42
16.08
15.49
14.46
12.84
10.67
8.20
5.86
4.05
2.99
2.65
2.65
2.37
1.23
-1.16
-4.80
-9.36
-14.27
-18.84
-22.46
-24.65
-25.15
-24.03
-21.59
-18.31
-14.70
-11.07
-7.50
-3.93
-0.24
3.48
7.01
9.97
12.09
13.27
13.67
13.62
13.37
13.10
12.80
12.37
11.68
10.67
9.39
7.92
6.37
4.84
3.36
1.90
0.35
-1.38
-3.40
-5.74
-8.42
-11.37
-14.50
-17.66
-20.62
-23.03
-24.48
-24.57
-23.13
-20.25
-16.33
-11.93
-7.53
-3.52
-0.07
2.75
4.93
6.48
7.49
8.22
8.98
10.04
11.47
13.05
14.37
15.05
14.90
13.96
12.50
10.80
9.08
7.39
5.70
3.93
1.99
-0.18
-2.67
-5.56
-8.87
-12.45
-15.93
-18.82
-20.62
-21.03
-19.95
-17.56
-14.16
-10.13
-5.74
-1.12
3.70
8.63
13.41
17.62
20.70
22.28
22.23
20.88
18.85
16.80
15.22
14.24
13.70
13.32
12.85
12.16
11.16
9.80
7.97
5.63
2.89
-0.06
-2.99
-5.85
-8.73
-11.77
-15.02
-18.32
-21.21
-23.14
-23.59
-22.32
-19.48
-15.51
-10.90
-6.11
-1.38
3.20
7.56
11.53
14.85
17.20
18.46
18.81
18.69
18.66
19.05
19.88
20.82
21.45
21.50
20.94
19.88
18.41
16.59
14.36
11.73
8.91
6.22
3.99
2.32
0.93
-0.73
-3.17
-6.56
-10.56
-14.34
-16.90
-17.47
-15.74
-11.97
-6.89
-1.34
3.92
8.48
12.29
15.58
18.73
22.01
25.45
28.69
31.22
32.54
32.55
31.72
30.98
31.55
34.51
40.40
48.88
58.45
66.49
69.62
64.52
48.93
22.73
-11.71
-49.84
-86.21
-115.91
-135.79
-144.73
-143.26
-132.73
-114.75
-91.03
-63.73
-35.65
-10.05
10.10
23.08
28.97
29.56
27.58
25.53
24.81
25.45
26.60
27.16
26.56
24.92
22.83
20.94
19.59
18.68
17.89
16.89
15.46
13.54
11.20
8.57
5.86
3.25
0.88
-1.33
-3.63
-6.41
-9.90
-13.97
-18.13
-21.71
-24.16
-25.34
-25.42
-24.81
-23.77
-22.32
-20.21
-17.21
-13.19
-8.37
-3.20
1.83
6.33
10.14
13.30
15.97
18.26
20.22
21.82
22.98
23.65
23.85
23.70
23.26
22.60
21.74
20.65
19.37
17.91
16.34
14.67
12.92
11.07
9.14
7.04
4.65
1.79
-1.72
-5.85
-10.37
-14.84
-18.78
-21.80
-23.76
-24.68
-24.63
-23.66
-21.68
-18.68
-14.76
-10.27
-5.63
-1.30
2.42
5.41
7.68
9.30
10.38
11.03
11.37
11.54
11.61
11.60
11.44
11.00
10.22
9.21
8.18
7.39
6.90
6.57
6.02
4.88
3.00
0.44
-2.51
-5.55
-8.54
-11.48
-14.40
-17.23
-19.70
-21.37
-21.81
-20.81
-18.43
-14.99
-10.94
-6.67
-2.48
1.45
4.99
8.02
10.35
11.85
12.47
12.35
11.77
11.14
10.80
10.99
11.70
12.73
13.75
14.40
14.44
13.83
12.69
11.18
9.47
7.68
5.86
4.17
2.76
1.70
0.84
-0.20
-1.90
-4.59
-8.24
-12.37
-16.21
-18.99
-20.26
-19.96
-18.35
-15.85
-12.89
-9.74
-6.57
-3.50
-0.50
2.45
5.33
8.01
10.23
11.69
12.20
11.86
11.04
10.27
9.96
10.22
10.81
11.33
11.39
10.90
9.98
8.83
7.55
6.04
4.18
1.96
-0.47
-2.85
-5.01
-7.00
-9.09
-11.55
-14.47
-17.62
-20.40
-22.18
-22.42
-20.94
-17.91
-13.83
-9.38
-5.19
-1.75
0.75
2.43
3.71
5.08
6.86
9.07
11.35
13.16
14.10
14.05
13.24
12.14
11.16
10.53
10.24
10.16
10.16
10.14
10.08
9.89
9.37
8.28
6.46
4.00
1.18
-1.69
-4.37
-6.91
-9.50
-12.37
-15.61
-19.04
-22.25
-24.70
-25.86
-25.40
-23.28
-19.84
-15.66
-11.44
-7.67
-4.61
-2.17
-0.12
1.74
3.42
4.85
5.89
6.60
7.17
7.80
8.66
9.71
10.83
11.85
12.66
13.25
13.63
13.74
13.44
12.55
10.93
8.63
5.92
3.15
0.67
-1.36
-3.05
-4.69
-6.66
-9.18
-12.25
-15.52
-18.40
-20.24
-20.54
-19.19
-16.47
-12.97
-9.40
-6.30
-3.90
-2.12
-0.63
0.83
2.39
4.05
5.68
7.23
8.71
10.13
11.46
12.56
13.23
13.35
12.97
12.36
11.89
11.81
12.07
12.28
11.87
10.35
7.64
4.06
0.21
-3.34
-6.27
-8.61
-10.61
-12.59
-14.69
-16.80
-18.55
-19.46
-19.24
-17.82
-15.53
-12.85
-10.24
-7.94
-5.92
-3.97
-1.89
0.34
2.52
4.39
5.77
6.64
7.21
7.71
8.29
8.86
9.17
9.04
8.32
7.15
5.76
4.41
3.18
1.97
0.59
-1.04
-2.81
-4.50
-5.92
-7.08
-8.14
-9.41
-11.01
-12.91
-14.87
-16.49
-17.46
-17.60
-16.87
-15.39
-13.38
-11.11
-8.79
-6.53
-4.27
-1.88
0.71
3.36
5.74
7.46
8.28
8.33
7.99
7.76
7.92
8.37
8.78
8.79
8.32
7.64
7.17
7.16
7.48
7.52
6.60
4.25
0.63
-3.60
-7.50
-10.35
-11.98
-12.75
-13.24
-13.88
-14.65
-15.12
-14.77
-13.26
-10.77
-7.84
-5.06
-2.79
-0.97
0.68
2.36
4.07
5.58
6.59
7.07
7.24
7.44
7.88
8.47
8.89
8.76
7.95
6.70
5.49
4.81
4.84
5.43
6.11
6.37
5.85
4.47
2.43
0.12
-2.09
-3.90
-5.11
-5.65
-5.48
-4.57
-2.88
-0.38
2.94
7.03
11.77
16.98
22.30
27.23
31.26
34.08
35.92
37.66
40.76
46.70
56.26
68.67
81.33
90.18
90.78
79.73
55.93
21.03
-20.86
-64.36
-104.10
-135.85
-157.02
-166.69
-165.23
-153.98
-135.03
-111.07
-85.21
-60.45
-39.25
-22.95
-11.66
-4.42
0.20
3.46
6.08
8.14
9.38
9.55
8.69
7.15
5.44
4.07
3.33
3.27
3.83
4.82
6.04
7.35
8.63
9.76
10.68
11.34
11.78
12.02
12.10
12.03
11.75
11.25
10.42
9.20
7.46
5.08
2.01
-1.69
-5.77
-9.87
-13.57
-16.45
-18.22
-18.74
-17.98
-16.07
-13.23
-9.80
-6.06
-2.26
1.40
4.83
7.93
10.60
12.76
14.34
15.27
15.56
15.30
14.69
14.02
13.56
13.41
13.48
13.51
13.22
12.42
11.15
9.53
7.74
5.84
3.69
1.16
-1.80
-5.07
-8.40
-11.43
-13.82
-15.29
-15.82
-15.52
-14.71
-13.68
-12.59
-11.36
-9.69
-7.34
-4.25
-0.62
3.16
6.64
9.51
11.63
13.00
13.72
13.97
13.97
13.99
14.30
15.04
16.12
17.20
17.78
17.40
15.86
13.37
10.47
7.84
5.88
4.56
3.38
1.61
-1.30
-5.44
-10.39
-15.46
-19.99
-23.64
-26.37
-28.27
-29.33
-29.39
-28.19
-25.59
-21.79
-17.22
-12.41
-7.74
-3.34
0.86
4.89
8.63
11.76
13.93
14.95
15.05
14.70
14.43
14.51
14.85
15.07
14.78
13.85
12.50
11.17
10.22
9.66
9.16
8.19
6.35
3.58
0.22
-3.22
-6.33
-9.01
-11.45
-13.80
-16.06
-17.84
-18.58
-17.78
-15.39
-11.87
-8.04
-4.60
-1.78
0.65
3.19
6.19
9.58
12.91
15.65
17.48
18.37
18.58
18.39
17.99
17.42
16.66
15.67
14.43
12.99
11.37
9.65
7.97
6.48
5.18
3.77
1.88
-0.81
-4.34
-8.42
-12.63
-16.61
-20.22
-23.40
-25.99
-27.59
-27.69
-26.00
-22.66
-18.33
-13.84
-9.77
-6.22
-2.88
0.66
4.52
8.46
12.03
14.77
16.59
17.64
18.29
18.88
19.49
19.95
20.00
19.39
18.12
16.46
14.83
13.61
12.90
12.44
11.73
10.28
7.83
4.48
0.52
-3.78
-8.36
-13.24
-18.40
-23.50
-27.81
-30.52
-30.98
-29.06
-25.21
-20.32
-15.36
-11.01
-7.56
-4.89
-2.77
-0.98
0.51
1.59
2.23
2.56
2.92
3.68
5.09
7.04
9.14
10.85
11.79
11.94
11.57
11.11
10.80
10.67
10.41
9.70
8.30
6.13
3.32
0.05
-3.44
-6.97
-10.30
-13.23
-15.49
-16.81
-17.06
-16.25
-14.59
-12.33
-9.68
-6.76
-3.56
-0.03
3.82
7.88
11.88
15.50
18.48
20.67
22.05
22.72
22.85
22.62
22.20
21.71
21.18
20.57
19.84
19.00
18.17
17.41
16.70
15.92
14.86
13.36
11.33
8.86
6.02
2.89
-0.55
-4.26
-8.12
-11.87
-15.09
-17.42
-18.61
-18.66
-17.75
-16.16
-14.15
-11.85
-9.25
-6.33
-3.11
0.27
3.51
6.34
8.64
10.48
12.11
13.68
15.20
16.45
17.15
17.16
16.59
15.71
14.80
14.04
13.28
12.27
10.80
8.86
6.69
4.54
2.55
0.56
-1.74
-4.63
-8.19
-12.17
-16.15
-19.68
-22.31
-23.75
-23.86
-22.65
-20.33
-17.20
-13.64
-9.96
-6.35
-2.83
0.57
3.81
6.75
9.21
11.09
12.43
13.35
14.02
