1707127782.00
64.000000
-0.00
-0.00
-0.00
-0.00
-0.00
-0.00
-0.00
-0.00
-0.00
-0.00
0.00
0.01
0.01
-0.00
-0.03
-0.05
-0.05
0.00
0.13
0.36
0.66
1.01
1.37
1.72
2.06
2.40
2.79
3.24
3.80
4.42
5.06
5.66
6.20
6.68
7.15
7.68
8.31
9.14
10.09
11.04
11.88
12.56
13.14
13.76
14.65
15.96
17.91
20.32
22.90
25.38
27.58
29.57
31.68
34.32
37.81
42.54
48.15
54.10
59.83
64.97
69.58
74.14
79.34
85.71
93.76
103.00
112.62
121.73
129.77
136.75
143.30
150.75
157.77
166.64
177.95
191.79
206.97
220.57
228.25
225.36
208.53
176.87
132.76
80.05
23.07
-34.94
-92.44
-149.16
-205.23
-260.37
-313.74
-363.88
-409.83
-450.91
-486.50
-515.72
-537.20
-549.18
-549.90
-538.27
-514.08
-478.51
-433.67
-382.19
-326.70
-269.46
-212.19
-156.15
-102.38
-51.73
-5.19
36.37
72.29
102.30
126.53
145.50
159.92
170.49
177.83
182.34
184.32
183.98
181.60
177.54
172.19
165.98
159.24
152.22
145.07
137.85
130.62
123.40
116.28
109.32
102.58
96.13
90.00
84.20
78.74
73.63
68.89
64.52
60.53
56.92
53.70
50.84
48.35
46.24
44.49
43.11
42.09
41.42
41.04
40.90
40.89
40.88
40.70
40.19
39.15
37.43
34.92
31.55
27.33
22.30
16.63
10.51
4.20
-2.03
-7.90
-13.18
-17.66
-21.23
-23.80
-25.38
-26.02
-25.84
-24.98
-23.57
-21.77
-19.71
-17.47
-15.12
-12.71
-10.26
-7.80
-5.34
-2.85
-0.33
2.26
4.91
7.66
10.54
13.50
16.51
19.57
22.67
25.81
29.02
32.35
35.83
39.56
43.46
47.49
51.65
55.94
60.38
64.99
69.80
74.85
80.24
85.80
91.42
97.06
102.68
108.27
113.83
119.39
125.00
130.73
136.30
141.49
146.11
149.92
152.61
153.84
153.06
149.55
144.66
138.88
132.50
125.72
118.70
111.55
104.38
97.31
90.48
84.05
77.89
71.92
66.13
60.53
55.14
50.01
45.19
40.77
36.82
33.16
29.67
26.27
22.90
19.58
16.34
13.26
10.43
7.95
5.74
3.74
1.91
0.22
-1.30
-2.64
-3.75
-4.60
-5.20
-5.69
-6.20
-6.86
-7.74
-8.83
-10.04
-11.25
-12.37
-13.42
-14.54
-15.94
-17.85
-20.35
-23.35
-26.63
-29.87
-32.86
-35.63
-38.47
-41.85
-46.21
-51.79
-58.44
-65.72
-73.05
-79.97
-86.48
-92.97
-100.16
-108.78
-119.19
-131.23
-144.31
-157.68
-170.78
-183.45
-196.05
-209.24
-223.89
-241.01
-261.51
-285.78
-313.10
-341.10
-365.87
-382.76
-387.92
-379.68
-359.26
-330.25
-297.31
-264.58
-234.68
-208.57
-186.22
-167.20
-151.23
-138.06
-127.17
-117.64
-108.29
-98.17
-86.96
-75.22
-64.17
-55.23
-49.21
-45.92
-44.08
-41.75
-37.16
-29.32
-18.49
-5.90
6.90
18.73
29.15
38.38
46.87
54.79
61.82
67.31
70.67
71.77
71.02
69.25
67.29
65.65
64.42
63.33
62.06
60.39
58.41
56.42
54.73
53.46
52.36
50.89
48.46
44.73
39.83
34.29
28.83
23.96
19.82
16.19
12.68
8.93
4.78
0.16
-4.94
-10.48
-16.23
-21.67
-25.93
-28.07
-27.40
-23.70
-17.39
-9.31
-0.44
8.38
16.59
23.89
30.12
35.18
38.97
41.46
42.75
43.05
42.77
42.34
42.07
42.05
42.11
41.92
41.15
39.66
37.61
35.32
33.17
31.34
29.77
28.13
26.00
23.05
19.17
14.59
9.71
5.04
0.92
-2.52
-5.44
-8.18
-11.13
-14.63
-18.87
-23.83
-29.18
-34.24
-38.07
-39.64
-38.17
-33.34
-25.44
-15.34
-4.18
6.84
16.77
24.95
31.08
35.20
37.57
38.67
38.96
38.85
38.56
38.15
37.55
36.68
35.54
34.22
32.86
31.57
30.44
29.56
28.96
28.64
28.50
28.33
27.81
26.59
24.42
21.26
17.32
12.97
8.65
4.65
1.05
-2.32
-5.83
-9.87
-14.70
-20.28
-26.14
-31.41
-35.01
-36.00
-33.85
-28.65
-21.12
-12.36
-3.54
4.46
11.21
16.64
20.95
24.34
26.92
28.64
29.50
29.48
28.70
27.29
25.39
23.08
20.54
18.04
16.10
15.22
15.73
17.55
20.16
22.74
24.48
24.86
23.77
21.47
18.33
14.74
10.95
7.09
3.29
-0.42
-4.04
-7.73
-11.76
-16.29
-21.25
-26.16
-30.18
-32.34
-31.96
-28.83
-23.30
-16.16
-8.25
-0.38
6.96
13.42
18.82
23.05
26.02
27.71
28.19
27.59
26.12
24.08
21.78
19.54
17.60
16.10
15.09
14.49
14.21
14.08
13.92
13.50
12.62
11.16
9.10
6.58
3.74
0.67
-2.62
-6.14
-9.85
-13.56
-17.06
-20.33
-23.54
-27.12
-31.42
-36.36
-41.28
-45.08
-46.63
-45.17
-40.64
-33.63
-25.11
-16.04
-7.20
0.95
8.15
14.27
19.24
23.05
25.73
27.38
28.20
28.38
28.12
27.62
26.98
26.15
24.97
23.32
21.18
18.77
16.43
14.50
13.13
12.22
11.40
10.24
8.38
5.65
2.11
-2.05
-6.48
-10.83
-14.77
-18.13
-20.98
-23.62
-26.52
-30.05
-34.29
-38.82
-42.75
-44.99
-44.60
-41.14
-34.83
-26.49
-17.23
-8.11
0.15
7.27
13.31
18.45
22.80
26.32
28.92
30.59
31.40
31.57
31.30
30.69
29.74
28.43
26.78
24.92
23.07
21.39
19.95
18.69
17.51
16.34
15.12
13.83
12.36
10.54
8.21
5.33
2.00
-1.55
-5.04
-8.35
-11.48
-14.61
-17.88
-21.40
-25.17
-29.02
-32.66
-35.59
-37.21
-36.95
-34.41
-29.58
-22.89
-15.11
-7.14
0.26
6.62
11.84
16.04
19.42
22.13
24.16
25.39
25.73
25.23
24.06
22.52
20.94
19.49
18.21
17.02
15.83
14.63
13.50
12.48
11.54
10.47
8.98
6.87
4.07
0.70
-3.01
-6.83
-10.64
-14.41
-18.14
-21.84
-25.52
-29.28
-33.25
-37.61
-42.46
-47.71
-52.94
-57.56
-60.84
-62.14
-61.09
-57.67
-52.19
-45.26
-37.68
-30.27
-23.78
-18.78
-15.57
-14.11
-14.04
-14.63
-15.01
-14.27
-11.83
-7.60
-2.06
3.94
9.44
13.73
16.48
17.83
18.23
18.25
18.43
19.12
20.47
22.40
24.62
26.72
28.21
28.67
27.84
25.80
22.83
19.41
15.96
12.68
9.53
6.30
2.83
-0.86
-4.48
-7.55
-9.51
-9.95
-8.61
-5.52
-0.89
4.77
10.78
16.41
21.06
24.41
26.46
27.37
27.24
26.06
23.65
19.85
14.72
8.67
2.43
-3.14
-7.26
-9.50
-9.81
-8.55
-6.30
-3.70
-1.33
0.44
1.38
1.44
0.67
-0.75
-2.48
-4.04
-4.88
-4.60
-3.01
-0.31
3.00
6.25
8.74
9.90
9.41
7.17
3.30
-1.72
-7.19
-12.03
-15.12
-15.49
-12.72
-7.06
0.67
9.28
17.60
24.80
30.43
34.36
36.63
37.30
36.41
34.05
30.47
26.08
21.41
16.92
12.86
9.24
5.91
2.78
-0.06
-2.28
-3.49
-3.46
-2.32
-0.58
1.00
1.68
0.99
-1.13
-4.21
-7.39
-9.61
-10.01
-8.27
-4.94
-1.31
1.12
1.32
-0.73
-3.98
-6.77
-7.66
-5.98
-2.10
3.00
8.38
13.51
18.44
23.41
28.39
32.85
35.98
37.06
35.90
33.09
29.75
27.19
26.46
27.87
30.98
34.75
37.95
39.66
39.62
38.33
36.75
35.95
36.58
38.69
41.61
44.25
45.32
43.73
38.86
30.79
20.29
8.62
-2.83
-13.00
-21.46
-28.33
-34.03
-39.01
-43.42
-47.07
-49.63
-50.87
-50.78
-49.59
-47.55
-44.81
-41.28
-36.68
-30.73
-23.40
-15.04
-6.39
1.55
7.76
11.50
12.45
10.79
7.10
2.17
-3.21
-8.43
-13.02
-16.59
-18.71
-18.85
-16.51
-11.54
-4.37
3.92
11.84
17.97
21.40
22.03
20.50
17.87
15.15
12.95
11.27
9.57
6.99
2.84
-3.19
-10.71
-18.69
-25.79
-30.69
-32.55
-31.21
-27.16
-21.34
-14.78
-8.34
-2.61
2.09
5.60
7.76
8.36
7.18
4.09
-0.82
-7.10
-14.01
-20.53
-25.59
-28.40
-28.64
-26.56
-22.79
-18.16
-13.38
-8.86
-4.80
-1.34
1.26
2.57
2.22
0.07
-3.39
-6.92
-8.78
-7.12
-0.80
10.18
24.44
39.56
52.87
62.43
67.59
69.24
69.40
70.28
73.40
78.96
85.72
91.52
94.31
93.09
88.46
82.47
77.91
77.16
81.40
90.47
103.23
118.23
134.12
149.66
163.62
174.66
181.48
183.12
179.17
169.76
155.35
136.74
115.04
91.85
69.07
48.56
31.35
17.23
4.76
-8.05
-22.84
-40.21
-59.56
-79.49
-98.41
-114.97
-128.40
-138.38
-145.04
-148.80
-150.30
-150.27
-149.42
-148.30
-147.18
-146.10
-144.95
-143.57
-141.90
-139.97
-137.56
-134.25
-129.38
-122.43
-113.46
-103.43
-94.05
-87.12
-83.70
-83.51
-85.12
-86.67
-86.85
-85.50
-83.54
-82.32
-82.91
-85.56
-89.76
-94.59
-98.99
-102.11
-103.30
-102.22
-98.86
-93.58
-86.95
-79.61
-72.00
-64.22
-56.11
-47.53
-38.45
-29.06
-19.62
-10.28
-0.93
8.67
18.78
29.35
39.87
49.53
57.52
63.33
66.97
68.93
69.87
70.29
70.27
69.47
67.33
63.46
57.88
51.18
44.50
39.42
37.64
40.73
49.54
63.84
82.16
102.01
120.53
134.95
143.10
143.53
135.68
120.02
98.28
73.20
48.01
25.53
7.25
-7.06
-18.95
-30.35
-42.46
-55.07
-66.76
-75.45
-79.33
-77.39
-69.62
-56.95
-40.93
-23.42
-6.22
9.33
22.43
32.91
41.05
47.28
52.00
55.57
58.24
60.16
61.31
61.47
60.29
57.38
52.66
46.38
39.06
31.20
22.90
13.65
2.51
-11.43
-28.43
-47.69
-67.29
-84.76
-97.97
-105.85
-108.75
-108.23
-106.28
-104.59
-103.91
-104.19
-104.82
-105.07
-104.32
-101.95
-97.25
-89.41
-77.81
-62.31
-43.55
-22.86
-1.99
17.38
33.97
47.07
56.57
62.78
66.13
67.09
66.08
63.53
59.92
55.77
51.58
47.69
44.21
41.05
38.08
35.34
32.99
31.33
30.54
30.55
31.00
31.47
31.50
30.82
29.24
26.56
22.62
17.37
10.90
3.64
-3.78
-10.70
-16.71
-21.65
-25.71
-29.09
-31.93
-34.15
-35.50
-35.73
-34.63
-32.08
-28.07
-22.66
-16.00
-8.45
-0.54
7.05
13.69
18.93
22.66
25.01
26.32
26.89
26.93
26.52
25.70
24.54
23.17
21.72
20.35
19.12
18.02
17.01
15.95
14.68
12.99
10.67
7.64
3.99
0.03
-3.78
-7.05
-9.51
-11.22
-12.52
-13.91
-15.92
-18.88
-22.80
-27.32
-31.75
-35.24
-37.07
-36.82
-34.48
-30.38
-25.07
-19.05
-12.73
-6.42
-0.36
5.18
9.95
13.78
16.56
18.31
19.10
19.04
18.26
17.02
15.69
14.74
14.60
15.45
17.20
19.49
21.88
24.05
25.81
27.06
27.72
27.58
26.46
24.24
21.01
17.03
12.74
8.54
4.77
1.49
-1.44
-4.37
-7.71
-11.75
-16.39
-21.10
-25.03
-27.29
-27.31
-24.95
-20.69
-15.26
-9.49
-4.01
0.87
5.07
8.67
11.75
14.33
16.32
17.67
18.37
18.54
18.41
18.19
17.99
17.76
17.34
16.59
15.48
14.15
12.79
11.57
10.56
9.70
8.84
7.85
6.69
5.39
4.02
2.52
0.73
-1.60
-4.70
-8.66
-13.33
-18.32
-23.06
-26.87
-29.08
-29.19
-27.03
-22.78
-17.02
-10.62
-4.53
0.49
4.00
5.99
6.80
6.96
6.97
7.15
7.62
8.31
9.01
9.54
9.72
9.51
8.94
8.13
7.28
6.57
6.16
6.00
5.91
5.57
4.66
3.00
0.69
-1.97
-4.52
-6.47
-7.56
-7.76
-7.32
-6.75
-6.66
-7.46
-9.25
-11.73
-14.25
-16.06
-16.56
-15.45
-12.86
-9.12
-4.71
-0.06
4.47
8.57
12.01
14.64
16.42
17.45
17.90
17.99
17.92
17.80
17.63
17.34
16.80
15.95
14.79
13.44
12.09
10.94
10.10
9.56
9.23
8.88
8.37
7.52
6.31
4.75
2.92
0.90
-1.26
-3.50
-5.82
-8.18
-10.61
-13.14
-15.76
-18.33
-20.55
-21.99
-22.19
-20.92
-18.25
-14.61
-10.57
-6.66
-3.12
0.08
3.07
5.91
8.44
10.42
11.68
12.26
12.44
12.53
12.74
13.02
13.16
12.91
12.17
11.09
9.93
9.00
8.41
8.11
7.86
7.43
6.60
5.32
3.67
1.82
-0.04
-1.81
-3.46
-5.08
-6.78
-8.70
-10.91
-13.40
-16.05
-18.66
-20.90
-22.44
-22.94
-22.17
-20.09
-16.83
-12.67
-8.07
-3.41
0.98
4.89
8.22
10.91
12.93
14.24
14.91
15.03
14.80
14.44
14.08
13.72
13.22
12.40
11.13
9.45
7.61
5.87
4.43
3.39
2.63
2.02
1.43
0.82
0.18
-0.44
-1.05
-1.67
-2.41
-3.39
-4.72
-6.49
-8.72
-11.34
-14.18
-16.90
-19.07
-20.29
-20.28
-19.05
-16.89
-14.27
-11.64
-9.25
-7.10
-5.01
-2.83
-0.58
1.53
3.27
4.52
5.35
5.99
6.58
7.09
7.28
6.87
5.71
3.94
1.95
0.16
-1.10
-1.78
-2.12
-2.57
-3.57
-5.39
-8.01
-11.07
-14.00
-16.29
-17.70
-18.37
-18.73
-19.41
-20.96
-23.79
-28.10
-33.77
-40.19
-46.25
-50.31
-50.63
-46.02
-36.29
-22.57
-6.83
8.73
22.49
33.64
42.02
47.69
50.50
50.15
46.59
40.50
33.34
26.95
22.86
21.64
22.78
24.93
26.64
26.94
25.57
22.91
19.61
16.20
13.02
10.16
7.65
5.47
3.63
2.03
0.52
-1.08
-2.93
-5.02
-7.26
-9.51
-11.66
-13.66
-15.52
-17.25
-18.86
-20.30
-21.51
-22.42
-22.91
-22.85
-22.06
-20.34
-17.54
-13.67
-8.98
-3.94
0.82
4.72
7.47
9.13
10.03
10.61
11.16
11.73
12.22
12.44
12.36
12.07
11.70
11.35
11.02
10.71
10.41
10.12
9.73
9.08
7.95
6.26
4.12
1.87
-0.14
-1.68
-2.83
-3.87
-5.18
-7.02
-9.46
-12.43
-15.67
-18.88
-21.69
-23.72
-24.66
-24.34
-22.85
-20.40
-17.30
-13.77
-9.93
-5.89
-1.84
1.90
4.94
7.02
8.18
8.72
9.04
9.48
10.13
10.83
11.36
11.60
11.60
11.50
11.44
11.40
11.22
10.67
9.59
7.97
5.92
3.65
1.30
-1.00
-3.17
-5.16
-6.99
-8.71
-10.51
-12.57
-15.00
-17.74
-20.50
-22.84
-24.29
-24.56
-23.54
-21.32
-18.11
-14.13
-9.64
-4.93
-0.41
3.57
6.73
8.98
10.47
11.43
12.12
12.74
13.36
13.89
14.17
13.93
12.97
11.26
8.98
6.48
4.18
2.32
0.89
-0.38
-1.80
-3.62
-5.83
-8.23
-10.60
-12.78
-14.84
-16.95
-19.42
-22.50
-26.38
-31.01
-36.04
-40.89
-44.81
-47.16
-47.53
-45.91
-42.56
-37.91
-32.49
-26.76
-21.14
-15.88
-11.15
-6.98
-3.43
-0.58
1.40
2.41
2.46
1.84
1.00
0.38
0.23
0.50
0.84
0.83
0.16
-1.38
-3.83
-7.14
-11.02
-15.01
-18.49
-20.97
-22.26
-22.53
-22.11
-21.21
-19.83
-17.91
-15.63
-13.67
-13.01
-14.57
-18.61
-24.42
-30.38
-34.60
-35.54
-32.51
-25.80
-16.42
-5.75
4.87
14.32
21.82
26.95
29.76
30.72
30.71
30.83
32.06
34.94
39.35
44.51
49.23
52.33
53.04
51.18
47.28
42.27
37.16
32.74
29.35
26.93
25.25
24.11
23.58
23.96
25.43
27.81
30.34
31.82
31.01
27.11
20.15
11.04
1.34
-7.26
-13.30
-15.90
-14.81
-10.45
-3.76
3.91
11.18
17.03
20.97
23.28
24.71
26.18
28.37
31.47
35.12
38.57
40.93
41.37
39.35
34.71
27.75
19.18
9.98
1.16
-6.55
-12.84
-17.85
-21.93
-25.37
-28.21
-30.17
-30.93
-30.32
-28.59
-26.48
-24.90
-24.60
-25.91
-28.64
-32.15
-35.73
-38.70
-40.64
-41.29
-40.64
-38.90
-36.46
-33.76
-31.13
-28.52
-25.50
-21.38
-15.50
-7.60
2.05
12.69
23.26
32.77
40.43
45.85
48.96
49.94
49.13
46.91
43.68
39.91
36.14
32.85
30.44
28.96
28.11
27.23
25.66
22.95
19.06
14.33
9.32
4.55
0.30
-3.40
-6.73
-9.97
-13.32
-16.95
-20.86
-24.95
-28.97
-32.60
-35.41
-36.97
-36.93
-35.06
-31.38
-26.16
-19.86
-13.10
-6.43
-0.28
5.11
9.69
13.44
16.40
18.54
19.85
20.41
20.34
19.85
19.15
18.43
17.75
17.10
16.41
15.60
14.61
13.40
11.85
9.86
7.32
4.27
0.91
-2.41
-5.33
-7.55
-9.00
-9.86
-10.44
-11.17
-12.37
-14.22
-16.72
-19.57
-22.26
-24.08
-24.33
-22.45
-18.34
-12.36
-5.33
1.81
8.27
13.62
17.85
21.15
23.72
25.63
26.81
27.19
26.82
25.84
24.52
23.05
21.58
20.17
18.82
17.57
16.42
15.38
14.46
13.59
12.69
11.60
10.18
8.35
6.13
3.65
1.12
-1.29
-3.58
-5.88
-8.49
-11.69
-15.60
-20.05
-24.60
-28.53
-31.08
-31.58
-29.72
-25.58
-19.68
-12.78
-5.71
0.88
6.62
11.41
15.36
18.59
21.21
23.17
24.42
24.89
24.63
23.82
22.67
21.41
20.19
19.03
17.92
16.85
15.81
14.82
13.83
12.71
11.34
9.63
7.66
5.64
3.84
2.41
1.26
0.05
-1.65
-4.19
-7.62
-11.66
-15.70
-18.94
-20.54
-19.72
-15.98
-9.22
0.16
11.17
22.56
33.14
42.21
49.73
56.24
62.44
68.79
75.27
81.48
86.95
91.52
95.42
99.12
103.02
107.34
112.19
117.63
123.74
130.22
136.21
140.19
140.44
135.77
126.18
112.97
98.24
83.97
71.18
59.69
48.54
36.69
23.71
9.96
-3.84
-17.13
-30.13
-44.05
-60.87
-82.73
-111.18
-146.51
-187.27
-230.24
-270.86
-304.09
-325.64
-333.16
-326.89
-309.52
-285.21
-258.21
-231.51
-206.30
-181.95
-156.70
-128.48
-95.87
-58.90
-19.49
18.68
51.09
73.83
85.00
85.44
78.26
67.37
56.04
46.14
38.16
32.10
28.05
26.22
26.49
27.91
28.76
27.24
22.42
14.65
5.51
-3.05
-9.48
-13.15
-14.44
-14.21
-13.26
-11.94
-10.11
-7.35
-3.31
1.96
7.98
13.95
18.99
22.47
24.18
24.31
23.33
21.75
19.98
18.20
16.38
14.37
12.08
9.53
6.87
4.30
1.97
-0.11
-2.01
-3.81
-5.46
-6.82
-7.66
-7.86
-7.53
-6.92
-6.42
-6.30
-6.74
-7.75
-9.35
-11.59
-14.53
-18.22
-22.42
-26.68
-30.35
-32.73
-33.28
-31.81
-28.44
-23.56
-17.63
-11.06
-4.12
3.02
10.14
16.96
23.10
28.23
32.13
34.76
36.26
36.82
36.71
36.09
35.14
33.96
32.63
31.23
29.92
28.79
27.91
27.23
26.55
25.53
23.83
21.30
18.04
14.33
10.57
7.03
3.79
0.76
-2.22
-5.35
-8.72
-12.43
-16.48
-20.76
-24.98
-28.63
-31.11
-31.88
-30.70
-27.68
-23.27
-18.07
-12.61
-7.19
-1.90
3.21
8.11
12.61
16.48
19.53
21.75
23.34
24.56
25.66
26.67
27.45
27.66
27.10
25.75
23.88
21.90
20.18
18.84
17.74
16.51
14.82
12.50
9.65
6.50
3.39
0.49
-2.17
-4.76
-7.51
-10.66
-14.35
-18.59
-23.23
-27.99
-32.47
-36.19
-38.61
-39.20
-37.61
-33.70
-27.69
-20.19
-12.00
-4.02
3.04
8.78
13.14
16.30
18.55
20.17
21.29
22.01
22.37
22.36
21.96
21.12
19.85
18.30
16.75
15.58
15.09
15.27
15.84
16.20
15.79
14.30
11.80
8.74
5.66
2.94
0.63
-1.51
-3.84
-6.67
-10.03
-13.78
-17.58
-21.04
-23.67
-24.99
-24.51
-21.91
-17.19
-10.71
-3.15
4.69
12.16
18.87
24.71
29.72
33.98
37.60
40.72
43.57
46.43
49.55
53.00
56.58
59.90
62.55
64.32
65.54
67.20
70.87
78.09
89.47
103.82
118.03
127.86
129.54
121.49
105.25
85.04
66.01
52.33
45.57
44.47
45.68
44.96
38.00
21.03
-8.71
-51.89
-106.03
-164.90
-219.60
-260.94
-282.41
-282.43
-264.60
-235.76
-203.09
-171.46
-142.48
-115.31
-88.47
-61.49
-35.43
-12.28
6.15
19.21
27.61
32.86
36.57
39.62
41.92
42.87
42.02
39.55
36.34
33.57
32.06
31.89
32.36
32.34
30.77
27.15
21.61
14.81
7.64
0.87
-5.12
-10.43
-15.47
-20.72
-26.37
-32.11
-37.08
-40.16
-40.41
-37.56
-32.10
-25.13
-17.94
-11.44
-6.03
-1.52
2.43
6.04
9.24
11.74
13.33
14.05
14.24
14.33
14.59
15.01
15.31
15.10
14.25
12.97
11.73
11.05
11.17
11.88
12.65
12.82
12.03
10.25
7.85
5.23
2.73
0.42
-1.77
-3.98
-6.34
-8.99
-12.09
-15.82
-20.30
-25.27
-30.19
-34.23
-36.57
-36.70
-34.57
-30.55
-25.21
-19.09
-12.59
-5.99
0.44
6.38
11.42
15.25
17.82
19.33
20.19
20.86
21.57
22.32
22.93
23.20
23.04
22.51
21.77
20.98
20.29
19.77
19.38
19.03
18.45
17.32
15.37
12.51
9.00
5.33
2.01
-0.70
-2.94
-5.13
-7.79
-11.19
-15.24
-19.59
-23.76
-27.30
-29.87
-31.20
-31.08
-29.38
-26.12
-21.50
-15.91
-9.83
-3.78
1.78
6.54
10.29
13.06
15.04
16.52
17.78
18.91
19.86
20.43
20.50
20.11
19.48
18.88
18.45
18.19
17.97
17.69
17.32
16.89
16.30
15.33
13.72
11.34
8.35
5.18
2.30
-0.04
-1.92
-3.70
-5.77
-8.37
-11.49
-14.99
-18.70
-22.39
-25.71
-28.19
-29.21
-28.29
-25.27
-20.45
-14.45
-8.08
-2.05
3.13
7.19
10.09
11.99
13.20
14.09
14.97
15.97
16.95
17.60
17.60
16.83
15.40
13.62
11.89
10.45
9.34
8.34
7.17
5.57
3.51
1.18
-1.09
-3.05
-4.66
-6.11
-7.71
-9.70
-12.15
-14.93
-17.80
-20.51
-22.85
-24.61
-25.51
-25.19
-23.34
-19.77
-14.54
-7.97
-0.59
7.04
14.34
20.79
26.02
29.89
32.62
34.85
37.45
41.12
46.07
51.84
57.41
61.72
64.15
64.94
65.10
66.00
68.86
74.52
83.26
94.79
108.27
122.18
134.46
142.91
145.83
142.61
134.00
121.83
108.26
95.26
84.16
75.57
69.75
66.48
64.96
63.53
59.43
48.88
27.55
-8.30
-60.17
-125.68
-197.92
-266.61
-321.05
-353.74
-362.92
-352.78
-331.11
-305.62
-280.93
-257.75
-233.97
-206.95
-175.26
-139.10
-99.82
-59.21
-19.20
18.00
49.76
73.46
87.40
91.26
86.57
76.11
63.06
50.20
39.37
31.46
26.50
23.90
22.49
20.83
17.43
11.26
2.24
-8.68
-19.73
-28.83
-34.44
-36.03
-34.14
-29.97
-24.78
-19.30
-13.59
-7.29
-0.09
7.90
15.96
23.06
28.20
30.88
31.23
29.89
27.81
25.86
24.57
24.07
24.14
24.39
24.40
23.93
22.86
21.28
19.33
17.17
14.95
12.79
10.73
8.72
6.63
4.30
1.63
-1.39
-4.64
-8.01
-11.54
-15.45
-20.05
-25.42
-31.26
-36.79
-40.96
-42.83
-41.94
-38.38
-32.71
-25.62
-17.75
-9.59
-1.54
5.99
12.56
17.87
21.78
24.48
26.32
27.74
29.04
30.22
31.14
31.53
31.21
30.15
28.52
26.59
24.60
22.73
21.02
19.43
17.89
16.30
14.62
12.74
10.61
8.20
5.52
2.66
-0.33
-3.45
-6.88
-10.89
-15.70
-21.29
-27.32
-33.19
-38.12
-41.41
-42.63
-41.58
-38.31
-33.08
-26.30
-18.47
-10.15
-1.89
5.93
13.03
19.25
24.49
28.63
31.58
33.31
33.93
33.70
32.89
31.80
30.59
29.29
27.87
26.25
24.42
22.44
20.44
18.57
16.87
15.24
13.45
11.23
8.41
5.05
1.47
-1.95
-4.88
-7.32
-9.56
-12.10
-15.36
-19.45
-24.02
-28.32
-31.41
-32.53
-31.29
-27.74
-22.33
-15.73
-8.56
-1.36
5.53
11.88
17.55
22.41
26.34
29.21
30.96
31.66
31.46
30.61
29.29
27.53
25.26
22.38
18.92
15.23
11.79
9.08
7.27
6.13
5.10
3.60
1.23
-2.09
-6.10
-10.43
-14.75
-18.86
-22.77
-26.64
-30.77
-35.46
-40.88
-46.89
-52.89
-57.94
-60.95
-61.12
-58.20
-52.67
-45.56
-38.09
-31.31
-25.83
-21.77
-18.85
-16.63
-14.69
-12.89
-11.39
-10.65
-11.14
-13.18
-16.73
-21.30
-26.19
-30.73
-34.46
-37.30
-39.54
-41.54
-43.59
-45.60
-47.02
-46.99
-44.52
-38.89
-30.12
-19.02
-7.21
3.39
11.10
14.89
14.59
10.87
5.06
-1.01
-5.27
-5.75
-1.21
8.36
21.53
35.75
48.27
57.10
61.60
62.53
61.33
59.40
57.55
56.06
55.02
54.64
55.17
56.65
58.63
60.23
60.61
59.41
56.99
54.19
51.86
50.37
49.42
48.26
46.16
42.76
38.26
33.26
28.44
24.33
21.11
18.63
16.52
14.36
11.82
8.61
4.55
-0.48
-6.49
-13.27
-20.29
-26.66
-31.35
-33.44
-32.45
-28.44
-22.06
-14.26
-5.96
2.08
9.50
16.18
22.00
26.82
30.36
32.35
32.75
31.85
30.27
28.72
27.67
27.21
26.97
26.45
25.32
23.62
21.75
20.14
19.06
18.34
17.57
16.25
14.12
11.24
7.95
4.66
1.68
-0.91
-3.26
-5.59
-8.09
-10.85
-13.85
-17.08
-20.52
-24.14
-27.78
-31.02
-33.19
-33.51
-31.44
-26.88
-20.34
-12.73
-5.04
2.03
8.19
13.39
17.64
20.83
22.69
23.10
22.21
20.52
18.64
17.08
15.96
15.09
14.23
13.31
12.56
12.35
12.87
13.93
14.90
14.99
13.64
10.83
7.21
3.77
1.41
0.67
1.30
2.46
3.07
2.15
-0.76
-5.45
-11.10
-16.62
-20.93
-23.35
-23.69
-22.18
-19.28
-15.42
-10.92
-6.01
-0.86
4.22
8.85
12.59
15.19
16.61
17.06
16.89
16.51
16.23
16.24
16.50
16.81
16.86
16.30
14.93
12.81
10.19
7.52
5.24
3.64
2.67
2.09
1.50
0.60
-0.70
-2.37
-4.27
-6.39
-8.78
-11.51
-14.51
-17.51
-20.06
-21.73
-22.33
-21.88
-20.55
-18.50
-15.77
-12.27
-7.97
-3.00
2.20
7.07
11.10
14.03
15.97
17.26
18.27
19.27
20.32
21.31
22.12
22.58
22.67
22.45
22.05
21.59
21.08
20.48
19.61
18.38
16.78
14.90
12.92
11.01
9.32
7.95
6.95
6.26
5.71
4.96
3.61
1.32
-1.95
-5.88
-9.87
-13.17
-15.25
-15.82
-15.04
-13.36
-11.45
-9.98
-9.44
-9.95
-11.21
-12.58
-13.43
-13.41
-12.62
-11.55
-10.77
-10.64
-11.10
-11.73
-11.98
-11.49
-10.27
-8.66
-7.19
-6.31
-6.16
-6.59
-7.21
-7.66
-7.79
-7.66
-7.48
-7.40
-7.31
-6.86
-5.57
-3.14
0.42
4.75
9.34
13.78
17.83
21.44
24.43
26.30
26.36
24.09
19.60
13.91
8.58
5.15
4.38
6.10
9.47
13.65
18.25
23.49
29.73
37.03
44.85
52.20
58.13
62.28
65.13
67.73
71.24
76.37
83.06
90.51
97.45
102.62
105.15
104.91
102.41
98.62
94.48
90.54
86.71
82.31
76.49
68.74
59.37
49.70
41.70
37.22
37.04
40.30
44.35
45.42
39.67
24.35
-1.33
-35.82
-75.54
-115.72
-151.48
-178.98
-196.01
-202.31
-199.07
-188.45
-172.92
-154.83
-136.34
-119.23
-104.82
-93.72
-85.75
-80.06
-75.54
-71.40
-67.52
-64.39
-62.74
-62.95
-64.69
-66.94
-68.42
-68.16
-65.89
-62.03
-57.45
-53.06
-49.56
-47.31
-46.42
-46.71
-47.66
-48.45
-47.99
-45.15
-39.21
-30.18
-18.89
-6.74
4.89
15.03
23.38
30.13
35.59
39.83
42.58
43.49
42.34
39.47
35.77
32.40
30.46
30.46
32.15
34.61
36.62
37.09
35.44
31.69
26.35
20.08
13.41
6.63
-0.23
-7.24
-14.51
-22.03
-29.69
-37.15
-43.80
-48.91
-51.84
-52.39
-51.00
-48.62
-46.20
-44.16
-42.13
-39.17
-34.49
-28.04
-20.71
-13.85
-8.78
-6.45
-7.58
-12.96
-23.26
-38.41
-56.68
-74.52
-87.42
-91.83
-86.88
-74.86
-60.04
-46.20
-34.61
-23.57
-9.86
8.76
31.76
55.53
75.11
86.64
89.19
84.99
78.15
72.53
70.15
70.87
73.57
77.84
85.00
97.75
118.50
147.43
181.52
215.28
242.72
259.60
264.62
259.05
245.19
224.88
198.85
167.22
130.55
90.60
50.04
11.62
-22.82
-52.78
-78.73
-101.28
-120.77
-137.00
-149.77
-159.25
-166.24
-172.03
-177.82
-184.19
-190.73
-196.09
-198.52
-196.55
-189.63
-178.36
-164.38
-149.83
-136.74
-126.54
-119.76
-116.03
-114.22
-112.60
-109.28
-102.55
-91.49
-76.39
-58.89
-41.58
-27.07
-16.90
-10.77
-6.45
-0.79
8.90
23.46
41.26
58.94
72.72
79.79
79.12
71.31
58.29
42.86
28.41
18.48
15.98
22.17
35.90
53.78
71.22
84.20
90.59
90.50
85.29
76.10
62.70
43.66
17.55
-15.49
-52.69
-88.72
-117.20
-132.87
-133.67
-121.69
-102.37
-82.30
-66.55
-56.94
-51.98
-48.50
-43.71
-36.75
-28.71
-21.52
-16.38
-12.88
-9.30
-3.89
3.80
12.51
19.82
23.59
22.83
18.22
11.58
5.00
0.09
-2.35
-2.27
-0.12
3.42
7.62
11.81
15.39
17.86
18.87
18.36
16.68
14.66
13.61
14.94
19.55
27.26
36.60
45.03
49.95
49.83
45.08
38.39
33.75
35.11
44.71
62.06
84.04
106.00
123.33
132.91
133.74
126.73
113.97
98.02
81.41
66.39
54.53
46.42
41.34
37.45
32.49
24.56
12.98
-1.74
-18.16
-34.61
-49.53
-61.68
-70.03
-73.69
-72.16
-65.51
-54.62
-40.97
-26.18
-11.48
2.62
16.21
29.63
42.91
55.43
65.93
72.83
74.84
71.55
63.65
52.86
41.43
31.37
23.96
19.43
17.23
16.44
16.23
16.21
16.38
16.98
18.14
19.65
20.93
21.24
19.91
16.59
11.34
4.54
-3.16
-11.07
-18.50
-24.85
-29.65
-32.51
-33.20
-31.63
-27.94
-22.51
-15.87
-8.73
-1.77
4.41
9.42
13.07
15.32
16.10
15.35
13.03
9.29
4.58
-0.38
-4.84
-8.27
-10.59
-12.08
-13.24
-14.43
-15.76
-17.10
-18.28
-19.26
-20.14
-21.03
-21.82
-22.19
-21.75
-20.27
-17.85
-14.79
-11.39
-7.62
-3.15
2.53
9.66
18.00
26.84
35.27
42.63
48.69
53.66
57.83
61.24
63.48
63.75
61.27
55.64
47.20
37.03
26.71
17.92
11.93
9.28
9.77
12.68
17.29
23.27
30.78
40.16
51.35
63.46
74.71
83.04
86.87
85.59
79.57
69.58
56.35
40.36
22.24
3.34
-14.14
-27.53
-34.72
-34.89
-28.84
-18.48
-6.00
6.83
18.77
28.86
36.05
39.19
37.45
30.90
20.80
9.39
-0.88
-8.23
-12.09
-13.01
-12.19
-10.58
-8.59
-6.00
-2.44
2.13
7.12
11.48
14.17
14.59
12.81
9.42
5.14
0.56
-4.03
-8.51
-12.79
-16.73
-20.13
-22.86
-24.76
-25.59
-24.83
-21.66
-15.19
-4.87
9.07
25.55
42.89
59.45
73.82
84.95
91.60
92.31
85.67
71.03
49.21
22.52
-5.91
-33.19
-57.45
-77.87
-94.13
-105.77
-112.00
-112.28
-107.06
-98.12
-88.25
-80.23
-75.85
-75.65
-79.19
-85.74
-94.81
-106.19
-119.44
-133.29
-145.24
-152.05
-150.70
-139.64
-119.40
-92.13
-60.31
-25.28
13.13
55.65
101.49
146.89
185.01
208.04
210.30
190.98
154.92
110.89
68.42
34.45
11.51
-2.09
-10.53
-18.14
-27.63
-39.52
-52.72
-65.61
-77.13
-87.09
-95.71
-102.76
-106.99
-106.28
-98.83
-84.52
-65.69
-46.86
-33.26
-28.86
-34.88
-49.50
-68.76
-88.14
-103.99
-114.27
-118.57
-117.45
-111.89
-102.87
-91.22
-77.73
-63.24
-48.69
-35.16
-23.79
-15.62
-11.27
-10.72
-13.13
-17.15
-21.21
-24.15
-25.36
-24.87
-23.05
-20.31
-17.08
-13.76
-10.87
-8.98
-8.62
-9.92
-12.50
-15.50
-17.84
-18.69
-17.77
-15.57
-13.26
-12.34
-14.12
-19.21
-27.11
-36.24
-44.32
-48.98
-48.60
-42.82
-32.60
-19.95
-7.23
3.50
11.15
15.57
17.71
19.03
20.96
24.39
29.17
33.97
36.46
33.95
24.37
7.59
-13.83
-34.84
-49.24
-51.80
-40.11
-15.07
19.86
60.23
101.94
141.62
176.41
203.95
222.78
233.12
237.08
237.91
238.27
238.58
236.76
229.49
214.55
192.14
164.87
136.22
108.75
83.16
58.94
35.59
13.59
-5.69
-20.98
-32.07
-39.95
-46.09
-51.32
-55.22
-56.36
-53.31
-45.62
-34.30
-21.29
-8.61
2.41
11.30
18.16
23.09
25.82
25.81
22.54
15.85
6.17
-5.61
-18.33
-30.68
-41.36
-49.21
-53.35
-53.38
-49.56
-42.74
-34.18
-25.27
-17.17
-10.60
-5.90
-3.10
-2.15
-2.98
-5.43
-9.16
-13.57
-17.88
-21.25
-23.16
-23.48
-22.56
-21.07
-19.63
-18.62
-18.08
-17.77
-17.39
-16.78
-15.86
-14.62
-13.05
-10.97
-8.36
-5.26
-2.09
0.50
1.78
1.17
-1.56
-6.33
-12.81
-20.55
-28.92
-37.02
-43.58
-47.12
-46.44
-41.09
-31.79
-20.15
-8.26
2.23
10.54
16.84
21.83
26.07
29.65
32.05
32.57
30.68
26.40
20.34
13.59
7.47
3.24
1.71
3.06
6.61
10.95
14.31
15.18
12.78
7.42
0.26
-7.13
-13.46
-18.13
-21.37
-24.05
-27.25
-31.83
-38.02
-45.30
-52.39
-57.68
-59.71
-57.70
-51.82
-43.09
-32.91
-22.54
-12.73
-3.52
5.46
14.70
24.54
34.89
45.18
54.40
61.42
65.24
65.40
62.12
56.12
48.35
39.45
29.68
18.96
7.35
-4.67
-16.05
-25.45
-31.71
-34.32
-33.65
-30.81
-27.17
-23.89
-21.45
-19.66
-17.81
-15.24
-11.72
-7.81
-4.58
-3.17
-4.16
-7.27
-11.46
-15.38
-18.02
-19.29
-19.98
-21.41
-24.80
-30.68
-38.61
-47.45
-55.70
-62.18
-66.28
-68.12
-68.41
-68.26
-69.08
-72.31
-78.98
-89.19
-101.63
-113.59
-121.64
-122.95
-116.59
-104.12
-88.89
-74.44
-62.92
-54.29
-46.68
-37.57
-25.24
-9.63
7.40
22.72
33.01
35.88
30.97
20.19
7.02
-4.94
-13.49
-18.51
-21.45
-24.00
-26.65
-28.40
-27.56
-23.15
-15.81
-7.51
-0.40
4.40
7.38
10.15
14.27
20.28
27.31
33.68
37.70
38.51
36.42
32.69
28.79
25.64
22.95
19.33
13.07
3.42
-8.34
-18.82
-23.56
-18.91
-4.00
18.71
44.09
66.47
82.17
90.98
95.95
101.69
111.90
127.61
146.79
165.27
178.65
183.96
180.51
169.62
153.66
135.08
115.64
96.40
78.01
61.07
46.28
34.44
26.15
21.59
20.35
21.41
23.19
23.75
21.21
14.29
2.71
-12.34
-28.45
-42.61
-52.03
-54.95
-51.06
-41.47
-28.31
-14.13
-1.35
8.27
13.93
15.81
14.97
12.79
10.51
8.76
7.49
6.28
4.80
3.19
2.07
2.31
4.55
8.97
15.22
22.62
30.43
38.07
45.18
51.44
56.48
59.79
60.86
59.38
55.34
49.00
40.66
30.33
17.52
1.39
-18.87
-43.23
-70.33
-97.36
-120.72
-137.18
-144.93
-144.11
-136.50
-124.69
-111.07
-97.34
-84.56
-73.46
-64.84
-59.44
-57.59
-58.78
-61.59
-64.11
-64.63
-62.21
-56.99
-49.91
-42.30
-35.29
-29.53
-25.17
-21.92
-19.39
-17.25
-15.30
-13.50
-11.99
-10.93
-10.58
-11.10
-12.45
-14.24
-15.76
-16.09
-14.43
-10.33
-3.84
4.59
14.40
25.20
36.76
48.87
61.05
72.42
81.77
87.91
90.06
88.20
83.15
76.52
70.31
66.38
65.98
69.25
75.08
81.17
84.51
82.05
71.60
52.37
25.30
-6.86
-40.00
-69.56
-91.88
-105.27
-110.47
-109.86
-106.01
-100.33
-92.60
-81.70
-67.04
-49.71
-32.53
-19.11
-12.26
-12.94
-20.19
-32.05
-46.58
-62.45
-78.93
-95.42
-111.14
-125.28
-137.29
-147.04
-154.62
-159.77
-161.42
-157.71
-146.69
-127.51
-101.37
-71.78
-43.75
-22.30
-10.83
-10.24
-19.04
-34.40
-53.34
-73.38
-92.34
-107.72
-116.23
-114.38
-99.80
-72.73
-36.62
2.57
38.45
66.47
85.28
96.56
103.60
109.43
115.57
121.75
126.58
128.53
126.66
121.02
112.56
102.95
94.07
87.48
83.84
82.51
81.77
79.37
73.48
63.38
49.72
34.21
19.01
6.06
-3.39
-8.75
-10.06
-7.88
-3.36
1.79
5.64
6.53
3.80
-1.87
-8.50
-13.52
-14.64
-10.60
-1.45
11.63
26.84
42.31
56.50
68.36
77.34
83.34
86.57
87.49
86.65
84.52
81.38
77.25
71.90
65.00
56.34
45.97
34.33
22.11
10.08
-1.08
-10.89
-19.04
-25.32
-29.68
-32.30
-33.79
-35.12
-37.45
-41.71
-48.21
-56.31
-64.48
-70.75
-73.38
-71.54
-65.65
-57.20
-48.18
-40.32
-34.51
-30.69
-27.95
-24.94
-20.27
-12.85
-2.12
11.86
28.35
46.08
63.48
79.05
91.64
100.59
105.91
108.15
108.30
107.55
106.94
106.93
107.16
106.35
102.75
94.68
81.18
62.25
38.73
11.88
-16.97
-46.69
-76.09
-103.74
-127.95
-147.04
-159.78
-165.92
-166.26
-162.40
-156.18
-149.21
-142.43
-136.13
-129.94
-123.05
-114.31
-102.55
-86.86
-66.93
-43.23
-16.94
10.25
36.65
60.76
81.39
97.58
108.41
113.12
111.25
102.97
89.28
72.02
53.43
35.81
21.11
10.67
5.15
4.63
8.57
15.91
25.02
33.83
40.02
41.33
36.07
23.62
4.70
-18.40
-42.16
-62.59
-76.15
-80.67
-75.81
-62.94
-44.57
-23.46
-2.04
17.97
35.55
50.27
62.09
71.28
78.30
83.72
88.07
91.58
94.05
94.79
92.77
87.06
77.27
63.86
48.23
32.35
18.13
6.91
-0.96
-5.98
-9.21
-11.59
-13.68
-15.48
-16.67
-16.96
-16.38
-15.42
-14.89
-15.68
-18.38
-23.10
-29.24
-35.67
-41.01
-43.95
-43.60
-39.74
-32.75
-23.51
-13.05
-2.41
7.60
16.38
23.52
28.80
32.17
33.91
34.53
34.79
35.37
36.74
38.97
41.71
44.41
46.55
47.70
47.64
46.26
43.42
38.92
32.63
24.61
15.30
5.54
-3.65
-11.36
-17.12
-21.02
-23.61
-25.63
-27.68
-30.00
-32.32
-33.94
-33.97
-31.49
-25.88
-17.04
-5.58
7.25
19.81
30.46
37.96
41.76
41.98
39.32
34.74
29.31
24.07
19.86
17.21
16.21
16.48
17.23
17.55
16.68
14.24
10.35
5.58
0.67
-3.69
-7.03
-9.23
-10.43
-10.97
-11.30
-11.89
-13.31
-16.03
-20.41
-26.43
-33.55
-40.77
-46.71
-50.15
-50.30
-47.21
-41.65
-34.82
-27.87
-21.46
-15.63
-10.04
-4.34
1.55
7.26
12.24
15.98
18.21
18.99
18.54
17.17
15.23
13.12
11.24
9.99
9.56
9.90
10.83
12.01
13.20
14.28
15.21
15.99
16.72
17.54
18.51
19.40
19.58
18.25
14.70
8.93
1.71
-5.48
-11.09
-14.10
-14.38
-12.56
-9.59
-6.23
-2.84
0.52
3.87
7.10
9.94
12.20
13.75
14.68
15.14
15.25
15.10
14.68
13.91
12.69
10.99
8.86
6.59
4.61
3.43
3.31
4.19
5.59
6.80
7.18
6.33
4.18
0.91
-3.15
-7.62
-12.11
-16.24
-19.73
-22.44
-24.50
-26.14
-27.66
-29.17
-30.53
-31.32
-30.98
-29.01
-25.19
-19.72
-13.20
-6.45
-0.29
4.73
8.40
10.86
12.42
13.43
14.08
14.45
14.54
14.29
13.68
12.79
11.77
10.77
9.90
9.08
8.21
7.10
5.72
4.17
2.60
1.12
-0.32
-1.84
-3.56
-5.45
-7.35
-9.09
-10.62
-12.12
-13.88
-16.18
-18.97
-21.90
-24.26
-25.31
-24.46
-21.46
-16.52
-10.18
-3.27
3.37
9.01
13.24
16.01
17.58
18.36
18.73
18.93
18.98
18.71
17.86
16.22
13.67
10.36
6.59
2.83
-0.44
-2.80
-4.01
-4.07
-3.22
-1.96
-0.81
-0.20
-0.36
-1.24
-2.66
-4.47
-6.61
-9.15
-12.22
-15.81
-19.74
-23.72
-27.38
-30.35
-32.24
-32.64
-31.13
-27.49
-21.85
-14.77
-7.21
-0.14
5.68
10.00
12.97
15.00
16.46
17.52
18.13
18.18
17.63
16.61
15.42
14.31
13.46
12.87
12.43
11.96
11.36
10.55
9.51
8.25
6.78
5.12
3.30
1.34
-0.70
-2.77
-4.86
-6.98
-9.19
-11.69
-14.70
-18.31
-22.28
-25.99
-28.53
-29.04
-27.06
-22.72
-16.70
-9.90
-3.23
2.70
7.60
11.34
13.93
15.40
15.88
15.60
14.96
14.30
13.80
13.42
12.88
11.91
10.41
8.53
6.55
4.81
3.46
2.43
1.49
0.38
-1.11
-3.07
-5.47
-8.23
-11.18
-14.20
-17.22
-20.25
-23.40
-26.81
-30.43
-33.96
-36.76
-38.05
-37.17
-33.82
-28.21
-20.96
-13.01
-5.23
1.67
7.27
11.45
14.25
15.81
16.35
16.07
15.21
14.01
12.64
11.28
10.01
8.98
8.27
7.95
7.95
8.05
7.89
7.09
5.43
2.94
-0.14
-3.48
-6.86
-10.20
-13.56
-17.09
-20.93
-25.13
-29.70
-34.52
-39.33
-43.62
-46.76
-48.03
-46.87
-43.08
-36.91
-28.99
-20.16
-11.29
-3.11
3.90
9.46
13.55
16.34
18.11
19.21
19.92
20.39
20.62
20.47
19.88
18.90
17.78
16.85
16.32
16.17
16.07
15.55
14.20
11.86
8.69
5.05
1.30
-2.30
-5.70
-9.01
-12.39
-16.06
-20.19
-24.88
-30.04
-35.23
-39.70
-42.50
-42.84
-40.34
-35.30
-28.51
-21.04
-13.78
-7.21
-1.36
4.09
9.51
15.20
21.18
27.22
32.86
37.56
40.78
42.15
41.64
39.56
36.48
33.09
29.97
27.39
25.32
23.42
21.30
18.64
15.32
11.42
7.15
2.68
-1.84
-6.36
-10.81
-15.14
-19.33
-23.51
-27.88
-32.62
-37.66
-42.49
-46.19
-47.70
-46.21
-41.49
-34.05
-24.91
-15.26
-6.10
1.99
8.94
14.96
20.34
25.20
29.42
32.67
34.63
35.14
34.27
32.31
29.70
26.83
23.94
21.21
18.67
16.33
14.14
12.04
9.87
7.52
4.90
2.05
-0.91
-3.86
-6.69
-9.33
-11.78
-14.17
-16.71
-19.76
-23.60
-28.34
-33.61
-38.62
-42.28
-43.55
-41.82
-37.17
-30.28
-22.16
-13.83
-6.03
0.91
6.90
12.01
16.31
19.81
22.44
24.17
25.03
25.16
24.74
23.93
22.91
21.78
20.70
19.82
19.35
19.39
19.87
20.54
20.95
20.70
19.44
17.11
13.85
9.96
5.83
1.83
-1.79
-4.93
-7.76
-10.60
-13.89
-17.96
-22.83
-28.09
-32.94
-36.34
-37.31
-35.28
-30.30
-22.99
-14.39
-5.58
2.60
9.74
15.76
20.78
24.95
28.26
30.57
31.79
31.91
31.15
29.88
28.52
27.34
26.39
25.59
24.76
23.85
22.92
22.17
21.73
21.58
21.46
21.03
20.06
18.47
16.39
13.96
11.31
8.43
5.29
1.92
-1.57
-5.11
-8.71
-12.51
-16.62
-20.91
-24.82
-27.48
-27.99
-25.75
-20.84
-13.92
-6.10
1.53
8.15
13.36
17.13
19.66
21.25
22.18
22.65
22.80
22.67
22.28
21.59
20.62
19.44
18.18
16.91
15.70
14.51
13.26
11.85
10.21
8.31
6.14
3.68
0.84
-2.35
-5.71
-8.93
-11.59
-13.35
-14.15
-14.21
-13.99
-14.03
-14.82
-16.61
-19.39
-22.73
-25.88
-27.90
-27.92
-25.43
-20.55
-13.92
-6.57
0.55
6.75
11.73
15.39
17.72
18.71
18.47
17.44
16.32
15.88
16.63
18.43
20.54
21.92
21.80
20.05
17.20
14.14
11.56
9.57
7.68
5.21
1.75
-2.50
-6.81
-10.29
-12.39
-13.04
-12.66
-11.80
-10.75
-9.41
-7.44
-4.55
-0.72
3.69
8.17
12.33
16.02
19.38
22.59
25.68
28.40
30.42
31.46
31.56
31.09
30.68
30.85
31.97
34.01
36.69
39.51
41.93
43.42
43.49
41.73
37.92
32.05
24.43
15.63
6.40
-2.47
-10.27
-16.47
-20.83
-23.38
-24.45
-24.67
-24.88
-25.97
-28.61
-33.00
-38.70
-44.72
-49.77
-52.70
-52.81
-49.98
-44.63
-37.46
-29.30
-20.97
-13.19
-6.54
-1.35
2.33
4.81
6.59
8.24
10.11
12.28
14.57
16.70
18.43
19.62
20.28
20.40
20.02
19.17
17.92
16.41
14.74
12.96
10.94
8.48
5.34
1.49
-2.94
-7.65
-12.38
-17.04
-21.74
-26.72
-32.18
-38.12
-44.21
-49.80
-54.03
-56.17
-55.96
-53.81
-50.78
-48.20
-47.14
-47.84
-49.67
-51.31
-51.37
-49.01
-44.34
-38.38
-32.73
-28.87
-27.71
-29.15
-31.96
-34.24
-34.09
-30.30
-22.89
-13.03
-2.41
7.47
15.87
22.81
28.58
33.23
36.32
37.16
35.41
31.59
26.86
22.63
19.79
18.16
16.67
13.94
9.03
1.88
-6.67
-15.29
-22.58
-27.57
-29.80
-29.30
-26.43
-21.88
-16.43
-10.86
-5.74
-1.31
2.58
6.22
9.86
13.49
16.83
19.49
21.18
21.77
21.39
20.33
18.97
17.69
16.81
16.53
16.78
17.28
17.46
16.82
15.05
12.25
8.90
5.58
2.64
0.03
-2.70
-6.18
-10.87
-16.84
-23.72
-30.76
-37.13
-42.16
-45.51
-47.24
-47.73
-47.46
-46.81
-45.82
-44.21
-41.48
-37.15
-30.96
-22.96
-13.45
-2.89
8.26
19.42
29.93
39.00
45.89
50.16
51.85
51.49
49.80
47.43
44.58
41.11
36.73
31.33
25.16
18.87
13.17
8.63
5.47
3.52
2.36
1.49
0.45
-1.06
-3.16
-5.81
-8.85
-12.08
-15.32
-18.42
-21.27
-23.78
-25.97
-27.98
-30.13
-32.75
-36.02
-39.60
-42.66
-44.05
-42.71
-38.16
-30.74
-21.50
-11.69
-2.32
6.09
13.51
20.04
25.73
30.40
33.85
35.99
36.96
37.03
36.42
35.22
33.45
31.17
28.63
26.23
24.35
23.14
22.43
21.80
20.85
19.35
17.34
15.03
12.61
10.13
7.51
4.63
1.49
-1.84
-5.27
-8.82
-12.68
-17.20
-22.63
-29.01
-35.93
-42.59
-47.95
-51.02
-51.15
-48.26
-42.73
-35.35
-26.98
-18.36
-10.04
-2.30
4.67
10.75
15.85
19.91
22.95
25.05
26.29
26.78
26.67
26.09
25.18
24.09
22.90
21.67
20.45
19.28
18.20
17.23
16.27
15.18
13.71
11.62
8.69
4.94
0.53
-4.14
-8.55
-12.29
-15.16
-17.33
-19.34
-21.86
-25.48
-30.32
-35.89
-41.19
-44.95
-46.06
-43.92
-38.59
-30.71
-21.27
-11.31
-1.70
7.00
14.46
20.54
25.21
28.54
30.63
31.58
31.52
30.61
29.06
27.04
24.78
22.41
19.99
17.51
14.98
12.47
10.16
8.18
6.68
5.64
4.97
4.53
4.19
3.82
3.34
2.72
1.93
0.95
-0.27
-1.89
-4.15
-7.28
-11.29
-15.91
-20.51
-24.25
-26.31
-26.17
-23.75
-19.32
-13.40
-6.58
0.64
7.84
14.61
20.52
25.18
28.32
29.96
30.44
30.37
30.39
30.92
32.06
33.52
34.82
35.56
35.55
34.97
34.18
33.59
33.51
33.94
34.71
35.51
36.03
35.94
34.94
32.72
29.03
23.71
16.82
8.62
-0.47
-9.93
-19.27
-28.03
-35.71
-41.74
-45.54
-46.67
-44.95
-40.71
-34.71
-27.96
-21.53
-16.18
-12.28
-9.83
-8.68
-8.71
-9.93
-12.37
-15.92
-20.16
-24.36
-27.72
-29.60
-29.78
-28.44
-26.12
-23.55
-21.52
-20.73
-21.69
-24.55
-29.04
-34.44
-39.83
-44.35
-47.53
-49.33
-50.05
-50.09
-49.77
-49.31
-48.90
-48.77
-49.05
-49.61
-49.91
-49.01
-45.93
-39.94
-30.95
-19.59
-6.93
5.87
17.86
28.56
37.78
45.57
52.02
57.28
61.56
65.19
68.54
71.91
75.38
78.77
81.69
83.67
84.42
83.95
82.48
80.33
77.71
74.67
70.98
66.41
60.74
53.94
46.15
37.72
29.10
20.87
13.44
6.82
0.36
-7.26
-17.63
-31.90
-49.99
-70.29
-89.95
-105.80
-115.35
-117.56
-112.85
-102.70
-88.86
-72.88
-55.96
-39.03
-23.10
-9.11
2.16
10.58
16.69
21.58
26.48
32.21
39.07
46.76
54.68
62.03
68.07
72.00
73.19
71.22
66.16
58.51
49.01
38.12
25.79
11.47
-5.39
-24.68
-45.33
-65.41
-82.85
-96.20
-105.08
-110.12
-112.45
-113.06
-112.39
-110.40
-106.68
-100.89
-92.87
-82.71
-70.69
-57.32
-43.28
-29.47
-16.88
-6.32
1.69
7.13
10.34
11.90
12.43
12.41
12.22
12.14
12.44
13.31
14.85
16.96
19.44
21.98
24.31
26.31
28.01
29.45
30.55
31.09
30.70
29.09
26.20
22.23
17.57
12.65
7.80
3.23
-0.92
-4.59
-7.87
-11.04
-14.45
-18.33
-22.52
-26.31
-28.57
-28.12
-24.24
-17.03
-7.36
3.37
13.72
22.63
29.57
34.49
37.61
39.23
39.58
38.88
37.35
35.31
33.12
31.11
29.42
27.98
26.56
24.91
22.97
20.89
19.10
17.97
17.70
18.09
18.66
18.81
17.98
15.88
12.47
8.00
2.85
-2.49
-7.52
-11.87
-15.45
-18.55
-21.67
-25.37
-29.85
-34.86
-39.58
-42.94
-44.01
-42.28
-37.88
-31.50
-24.05
-16.37
-8.99
-2.06
4.48
10.75
16.71
22.09
26.50
29.53
31.04
31.18
30.37
29.17
28.05
27.32
27.05
27.05
27.04
26.72
25.95
24.73
23.18
21.42
19.44
17.12
14.29
10.82
6.76
2.38
-2.00
-6.07
-9.73
-13.19
-16.78
-20.94
-25.92
-31.67
-37.75
-43.45
-47.90
-50.34
-50.24
-47.37
-41.84
-33.96
-24.33
-13.71
-3.00
6.95
15.42
21.93
26.33
28.71
29.39
28.86
27.62
26.21
25.02
24.22
23.83
23.65
23.48
23.15
22.68
22.12
21.55
20.96
20.28
19.34
17.95
15.93
13.20
9.76
5.78
1.48
-2.88
-7.06
-10.94
-14.54
-18.02
-21.65
-25.71
-30.31
-35.23
-39.87
-43.34
-44.68
-43.23
-38.88
-32.13
-23.92
-15.20
-6.75
0.97
7.73
13.35
17.58
20.23
21.28
21.07
20.26
19.63
19.77
20.88
22.69
24.74
26.59
28.05
29.25
30.44
31.81
33.25
34.40
34.79
34.00
31.96
28.86
25.13
21.27
17.76
14.89
12.80
11.36
10.19
8.64
5.82
0.95
-6.31
-15.55
-25.56
-34.62
-41.09
-43.98
-43.20
-39.50
-34.00
-27.75
-21.39
-15.15
-9.04
-3.17
2.19
6.70
10.14
12.55
14.24
15.61
16.97
18.29
19.27
19.48
18.64
16.77
14.27
11.73
9.76
8.76
8.74
9.39
10.17
10.54
10.12
8.81
6.78
4.37
1.96
-0.19
-1.97
-3.44
-4.73
-6.07
-7.66
-9.77
-12.67
-16.46
-20.97
-25.67
-29.68
-32.12
-32.29
-29.97
-25.43
-19.28
-12.27
-5.08
1.80
8.09
13.59
18.20
21.85
24.51
26.27
27.30
27.83
28.09
28.21
28.23
28.02
27.52
26.69
25.64
24.57
23.59
22.69
21.64
20.11
17.82
14.67
10.75
6.31
1.63
-3.09
-7.75
-12.32
-16.75
-20.98
-24.90
-28.53
-32.02
-35.62
-39.61
-44.01
-48.52
-52.51
-55.10
-55.46
-53.06
-47.83
-40.24
-31.12
-21.44
-12.10
-3.76
3.29
9.03
13.59
17.22
20.10
22.37
24.21
25.77
27.20
28.57
29.82
30.80
31.35
31.50
31.44
31.49
31.82
32.31
32.54
31.86
29.67
25.69
20.11
13.46
6.50
-0.08
-5.79
-10.39
-13.96
-16.77
-19.26
-21.99
-25.37
-29.59
-34.40
-39.13
-42.85
-44.64
-43.88
-40.48
-34.84
-27.66
-19.81
-12.01
-4.85
1.38
6.57
10.78
14.14
16.72
18.53
19.64
20.11
20.17
20.09
20.13
20.33
20.54
20.45
19.84
18.69
17.26
15.92
14.93
14.22
13.43
12.05
9.67
6.28
2.20
-2.06
-6.00
-9.41
-12.38
-15.23
-18.29
-21.84
-25.99
-30.73
-35.91
-41.08
-45.51
-48.21
-48.13
-44.61
-37.64
-28.02
-17.11
-6.37
3.00
10.42
15.93
19.96
23.07
25.76
28.33
30.86
33.29
35.39
36.74
36.84
35.30
31.99
27.22
21.76
16.63
12.79
10.80
10.55
11.37
12.22
12.11
10.47
7.34
3.29
-0.90
-4.54
-7.32
-9.41
-11.33
-13.66
-16.84
-20.96
-25.81
-30.91
-35.60
-39.17
-40.90
-40.21
-36.79
-30.79
-22.83
-13.96
-5.37
2.03
7.84
12.20
15.61
18.48
20.94
22.77
23.60
23.27
21.98
20.21
18.38
16.61
14.68
12.18
8.97
5.33
1.90
-0.70
-2.34
-3.47
-4.86
-7.25
-10.87
-15.41
-20.18
-24.50
-27.97
-30.55
-32.49
-34.08
-35.59
-37.21
-39.07
-41.14
-43.18
-44.65
-44.77
-42.75
-38.08
-30.79
-21.47
-11.10
-0.79
8.47
16.01
21.58
25.18
27.10
27.76
27.63
27.15
26.63
26.18
25.81
25.44
25.00
24.45
23.79
22.95
21.83
20.35
18.45
16.23
13.78
11.19
8.42
5.33
1.81
-2.11
-6.19
-10.09
-13.56
-16.58
-19.43
-22.54
-26.25
-30.54
-34.88
-38.43
-40.25
-39.69
-36.53
-31.10
-24.11
-16.46
-8.97
-2.20
3.62
8.49
12.56
15.93
18.57
20.36
21.22
21.27
20.87
20.51
20.62
21.32
22.36
23.25
23.56
23.09
22.00
20.67
19.42
18.32
17.18
15.61
13.34
10.32
6.80
3.16
-0.27
-3.39
-6.32
-9.32
-12.70
-16.73
-21.52
-27.05
-33.01
-38.83
-43.63
-46.44
-46.41
-43.15
-36.87
-28.38
-18.80
-9.21
-0.47
7.01
13.16
18.18
22.31
25.74
28.49
30.50
31.65
31.90
31.40
30.50
29.52
28.76
28.21
27.73
27.08
26.13
24.92
23.53
22.05
20.39
18.41
15.92
12.85
9.35
5.68
2.14
-1.09
-3.98
-6.71
-9.53
-12.73
-16.47
-20.80
-25.63
-30.72
-35.68
-39.98
-43.02
-44.25
-43.28
-40.05
-34.82
-28.13
-20.66
-13.09
-5.89
0.59
6.25
11.04
14.99
18.11
20.45
22.12
23.29
24.14
24.86
25.49
26.00
26.32
26.46
26.47
26.47
26.48
26.39
26.01
25.21
23.97
22.37
20.53
18.43
15.95
13.01
9.62
6.00
2.44
-0.84
-3.78
-6.47
-9.05
-11.63
-14.29
-17.13
-20.31
-24.03
-28.33
-32.96
-37.33
-40.55
-41.75
-40.39
-36.43
-30.35
-22.96
-15.22
-7.87
-1.38
4.13
8.77
12.69
16.05
18.90
21.21
22.93
24.03
24.51
24.43
23.96
23.27
22.62
22.16
21.99
22.04
22.14
22.05
21.57
20.63
19.25
17.57
15.79
14.07
12.47
10.95
9.32
7.44
5.24
2.79
0.31
-2.04
-4.21
-6.29
-8.48
-10.97
-13.87
-17.19
-20.87
-24.76
-28.54
-31.68
-33.54
-33.45
-31.07
-26.46
-20.17
-13.00
-5.79
0.84
6.54
11.22
14.98
17.95
20.27
22.05
23.29
24.02
24.26
24.10
23.65
23.03
22.29
21.47
20.60
19.77
19.05
18.46
17.92
17.24
16.24
14.80
12.96
10.87
8.65
6.38
4.00
1.45
-1.29
-4.13
-6.89
-9.38
-11.48
-13.24
-14.85
-16.71
-19.23
-22.72
-27.19
-32.18
-36.82
-40.05
-40.90
-38.91
-34.20
-27.45
-19.68
-11.85
-4.68
1.43
6.40
10.29
13.25
15.42
16.91
17.84
18.27
18.32
18.08
17.65
17.10
16.50
15.87
15.27
14.77
14.40
14.10
13.72
13.04
11.92
10.34
8.45
6.40
4.28
2.05
-0.39
-3.09
-5.91
-8.58
-10.82
-12.57
-14.09
-15.87
-18.41
-22.02
-26.51
-31.30
-35.50
-38.24
-38.90
-37.29
-33.64
-28.48
-22.46
-16.20
-10.14
-4.57
0.41
4.82
8.72
12.07
14.74
16.54
17.40
17.41
16.94
16.45
16.36
16.71
17.30
17.71
17.63
17.01
16.06
15.07
14.18
13.33
12.23
10.62
8.31
5.35
1.92
-1.67
-5.17
-8.34
-11.05
-13.27
-15.10
-16.73
-18.39
-20.26
-22.47
-25.17
-28.41
-32.06
-35.70
-38.62
-39.96
-38.96
-35.33
-29.32
-21.68
-13.41
-5.42
1.69
7.64
12.43
16.19
18.99
20.89
21.89
22.01
21.32
19.96
18.17
16.21
14.32
12.62
11.17
9.93
8.91
8.11
7.56
7.21
6.88
6.25
4.96
2.74
-0.45
-4.32
-8.43
-12.29
-15.60
-18.34
-20.75
-23.18
-25.95
-29.29
-33.30
-37.97
-43.10
-48.24
-52.64
-55.40
-55.70
-53.12
-47.80
-40.41
-31.95
-23.39
-15.40
-8.20
-1.70
4.21
9.55
14.10
17.55
19.70
20.66
20.85
20.83
21.09
21.81
22.91
24.21
25.61
27.19
29.15
31.62
34.46
37.29
39.58
40.83
40.72
39.11
35.98
31.38
25.41
18.31
10.52
2.58
-4.96
-11.73
-17.69
-23.10
-28.38
-33.93
-39.86
-45.89
-51.30
-55.16
-56.59
-55.07
-50.60
-43.74
-35.30
-26.16
-17.00
-8.34
-0.49
6.30
11.86
16.17
19.39
21.85
23.94
25.95
27.98
29.97
31.79
33.32
34.44
35.05
35.06
34.45
33.36
31.97
30.50
29.02
27.41
25.47
23.05
20.11
16.80
13.37
10.00
6.89
4.12
1.72
-0.39
-2.42
-4.73
-7.78
-11.87
-17.00
-22.68
-28.00
-31.87
-33.29
-31.65
-26.95
-19.75
-11.10
-2.13
6.13
13.02
18.35
22.27
25.10
27.08
28.30
28.62
27.85
25.88
22.87
19.23
15.54
12.33
9.89
8.20
6.97
5.81
4.34
2.44
0.22
-1.98
-3.78
-4.94
-5.50
-5.73
-6.03
-6.74
-7.95
-9.51
-11.18
-12.75
-14.27
-16.02
-18.45
-21.97
-26.70
-32.35
-38.16
-42.99
-45.57
-44.94
-40.65
-33.07
-23.25
-12.60
-2.42
6.45
13.75
19.65
24.45
28.34
31.26
33.03
33.55
32.93
31.63
30.23
29.32
29.17
29.69
30.47
30.99
30.91
30.19
29.10
28.02
27.30
27.03
26.97
26.73
25.84
24.00
21.17
17.56
13.60
9.69
6.04
2.55
-1.23
-5.95
-12.25
-20.46
-30.41
-41.34
-51.96
-60.73
-66.21
-67.42
-64.17
-57.07
-47.34
-36.46
-25.79
-16.31
-8.58
-2.74
1.27
3.62
4.57
4.44
3.72
3.07
3.18
4.56
7.29
10.91
14.58
17.41
18.88
19.03
18.35
17.46
16.81
16.37
15.80
14.68
12.75
10.02
6.75
3.23
-0.34
-3.93
-7.69
-11.89
-16.78
-22.52
-28.99
-35.72
-41.81
-46.16
-47.68
-45.70
-40.15
-31.66
-21.31
-10.34
0.25
9.91
18.53
26.28
33.35
39.72
45.10
49.08
51.26
51.46
49.85
46.88
43.15
39.16
35.07
30.74
25.82
20.04
13.44
6.52
0.07
-5.21
-8.99
-11.51
-13.46
-15.68
-18.68
-22.54
-26.88
-31.07
-34.60
-37.17
-38.84
-39.86
-40.68
-41.69
-43.10
-44.82
-46.41
-47.17
-46.35
-43.47
-38.42
-31.57
-23.53
-14.99
-6.56
1.30
8.28
14.13
18.74
22.17
24.62
26.35
27.60
28.44
28.82
28.73
28.18
27.38
26.58
26.02
25.81
25.88
26.09
26.32
26.55
26.80
27.07
27.22
27.04
26.21
24.58
22.10
18.89
15.22
11.33
7.44
3.70
0.14
-3.34
-7.04
-11.45
-17.12
-24.31
-32.80
-41.73
-49.75
-55.48
-57.94
-56.86
-52.72
-46.46
-39.14
-31.67
-24.66
-18.49
-13.40
-9.43
-6.40
-3.95
-1.58
1.18
4.56
8.53
12.83
17.15
21.25
25.03
28.39
31.20
33.24
34.26
34.14
32.99
31.10
28.77
26.21
23.37
20.07
16.12
11.46
6.30
1.04
-3.85
-7.96
-11.07
-13.20
-14.63
-15.83
-17.37
-19.66
-22.75
-26.21
-29.16
-30.51
-29.35
-25.24
-18.38
-9.55
0.19
9.76
18.34
25.56
31.33
35.82
39.17
41.45
42.57
42.47
41.20
39.00
36.15
32.91
29.28
25.07
20.06
14.27
8.10
2.26
-2.58
-6.02
-8.15
-9.47
-10.64
-12.18
-14.26
-16.78
-19.35
-21.59
-23.21
-24.10
-24.31
-24.04
-23.56
-23.11
-22.89
-23.04
-23.66
-24.72
-26.08
-27.42
-28.20
-27.79
-25.68
-21.69
-16.11
-9.70
-3.39
2.01
6.12
8.99
11.09
12.92
14.84
16.97
19.19
21.29
23.12
24.61
25.76
26.58
27.05
27.14
26.86
26.37
25.97
25.98
26.67
28.07
29.97
31.87
33.23
33.55
32.67
30.73
28.15
25.46
23.01
20.79
18.37
15.00
9.83
2.31
-7.59
-19.18
-31.19
-42.03
-50.27
-54.97
-55.84
-53.24
-47.98
-41.07
-33.51
-26.12
-19.48
-13.82
-9.07
-4.87
-0.78
3.52
8.14
12.85
17.20
20.71
23.08
24.27
24.49
24.12
23.49
22.79
22.01
20.96
19.43
17.26
14.50
11.31
7.92
4.49
1.07
-2.34
-5.71
-8.88
-11.58
-13.55
-14.80
-15.57
-16.40
-17.79
-19.96
-22.51
-24.58
-25.07
-23.19
-18.84
-12.59
-5.54
1.34
7.42
12.60
17.02
20.70
23.33
24.29
23.03
19.31
13.55
6.58
-0.53
-6.95
-12.23
-16.36
-19.58
-22.22
-24.44
-26.22
-27.43
-27.89
-27.60
-26.68
-25.31
-23.62
-21.62
-19.22
-16.41
-13.39
-10.56
-8.48
-7.66
-8.41
-10.77
-14.56
-19.39
-24.77
-30.06
-34.53
-37.40
-38.06
-36.20
-31.95
-25.89
-18.81
-11.56
-4.80
1.04
5.81
9.54
12.32
14.23
15.27
15.43
14.82
13.66
12.36
11.32
10.84
11.02
11.72
12.73
13.76
14.58
14.97
14.73
13.61
11.39
8.06
3.84
-0.75
-5.04
-8.49
-10.88
-12.42
-13.70
-15.40
-18.09
-21.94
-26.69
-31.76
-36.36
-39.78
-41.44
-41.06
-38.61
-34.33
-28.59
-21.93
-14.93
-8.20
-2.36
2.21
5.46
7.77
9.80
12.21
15.36
19.07
22.79
25.88
28.01
29.24
29.90
30.39
30.89
31.33
31.48
31.11
30.00
27.98
24.89
20.70
15.60
10.00
4.51
-0.33
-4.24
-7.31
-9.94
-12.65
-15.88
-19.74
-24.04
-28.27
-31.74
-33.71
-33.54
-30.86
-25.70
-18.46
-9.88
-0.86
7.76
15.29
21.31
25.66
28.41
29.83
30.30
30.22
29.97
29.68
29.30
28.60
27.30
25.26
22.58
19.57
16.59
13.93
11.67
9.74
7.87
5.76
3.11
-0.27
-4.48
-9.36
-14.54
-19.54
-23.95
-27.62
-30.72
-33.80
-37.48
-42.25
-48.22
-54.99
-61.64
-66.88
-69.40
-68.19
-62.80
-53.57
-41.50
-27.98
-14.44
-1.98
8.77
17.59
24.56
29.88
33.79
36.52
38.34
39.57
40.52
41.43
42.38
43.31
43.96
44.09
43.45
41.95
39.73
37.08
34.43
32.03
29.96
27.93
25.44
22.00
17.43
11.89
5.90
0.10
-5.02
-9.29
-12.88
-16.09
-19.22
-22.40
-25.63
-28.87
-32.04
-34.99
-37.27
-38.16
-36.84
-32.68
-25.62
-16.25
-5.76
4.58
13.80
21.46
27.68
32.76
36.95
40.23
42.38
43.19
42.68
41.13
39.03
36.79
34.58
32.19
29.20
25.22
20.22
14.62
9.24
5.01
2.55
1.88
2.39
3.00
2.69
0.80
-2.64
-7.08
-11.68
-15.69
-18.68
-20.60
-21.64
-22.13
-22.38
-22.76
-23.53
-24.86
-26.60
-28.20
-28.82
-27.56
-23.86
-17.79
-10.06
-1.84
5.64
11.54
15.58
18.03
19.43
20.33
21.09
21.76
22.33
22.79
23.24
23.81
24.52
25.21
25.59
25.45
24.75
23.72
22.72
22.04
21.77
21.79
21.85
21.73
21.39
20.94
20.53
20.28
20.24
20.31
20.33
20.02
19.17
17.55
15.12
11.90
7.98
3.41
-1.74
-7.38
-13.28
-19.04
-24.12
-27.96
-30.17
-30.63
-29.52
-27.25
-24.30
-21.08
-17.88
-14.82
-11.92
-9.21
-6.77
-4.76
-3.37
-2.73
-2.83
-3.53
-4.51
-5.37
-5.65
-5.02
-3.27
-0.49
3.05
6.92
10.73
14.10
16.74
18.40
18.89
18.08
16.05
13.11
9.75
6.45
3.52
0.93
-1.59
-4.41
-7.84
-11.94
-16.58
-21.45
-26.10
-29.90
-32.12
-32.06
-29.31
-24.03
-16.97
-9.33
-2.37
3.03
6.59
8.64
9.81
10.69
11.64
12.71
13.81
14.74
15.39
15.76
15.93
16.00
16.08
16.11
15.99
15.61
14.89
13.92
12.74
11.26
9.15
6.01
1.54
-4.15
-10.46
-16.58
-21.76
-25.71
-28.65
-31.22
-34.04
-37.55
-41.79
-46.42
-50.83
-54.27
-56.03
-55.58
-52.69
-47.53
-40.53
-32.33
-23.51
-14.60
-5.94
2.17
9.44
15.61
20.50
24.02
26.24
27.27
27.19
26.11
24.16
21.64
18.93
16.56
14.87
13.96
13.56
13.15
12.17
10.24
7.32
3.72
-0.11
-3.67
-6.62
-8.80
-10.24
-11.19
-11.97
-12.97
-14.47
-16.58
-19.08
-21.38
-22.67
-22.17
-19.41
-14.40
-7.63
0.13
8.03
15.38
21.72
26.84
30.62
33.04
34.07
33.69
31.87
28.66
24.18
18.68
12.55
6.32
0.50
-4.47
-8.37
-11.17
-13.00
-14.06
-14.66
-15.14
-15.95
-17.52
-20.13
-23.72
-27.81
-31.61
-34.28
-35.27
-34.55
-32.70
-30.62
-29.19
-28.93
-29.80
-31.28
-32.64
-33.15
-32.27
-29.77
-25.63
-20.11
-13.64
-6.79
-0.19
5.66
10.48
14.26
17.20
19.54
21.44
22.91
23.88
24.29
24.16
23.58
22.66
21.49
20.22
19.04
18.27
18.19
18.95
20.38
21.96
23.04
23.07
21.90
19.76
17.18
14.64
12.29
9.92
7.02
3.08
-2.19
-8.67
-15.82
-22.72
-28.40
-31.94
-32.85
-31.22
-27.64
-23.13
-18.66
-14.93
-12.11
-10.02
-8.24
-6.47
-4.60
-2.73
-1.00
0.52
1.83
2.99
4.09
5.23
6.55
8.24
10.40
13.06
16.06
19.12
21.93
24.19
25.68
26.20
25.56
23.65
20.45
16.12
11.11
5.94
1.09
-3.23
-7.26
-11.48
-16.46
-22.39
-28.87
-34.93
-39.29
-40.86
-39.10
-34.22
-27.01
-18.53
-9.75
-1.32
6.46
13.51
19.92
25.69
30.76
34.95
38.03
39.79
40.15
39.23
37.36
35.00
32.60
30.41
28.41
26.30
23.60
19.85
14.83
8.65
1.77
-5.24
-11.84
-17.77
-22.99
-27.70
-32.10
-36.36
-40.63
-44.98
-49.37
-53.56
-56.97
-58.81
-58.31
-55.09
-49.40
-42.06
-34.17
-26.71
-20.19
-14.66
-9.75
-5.03
-0.17
4.89
9.97
14.75
18.91
22.29
24.91
26.92
28.51
29.83
30.89
31.56
31.64
30.92
29.21
26.46
22.76
18.41
13.84
9.54
5.87
2.94
0.64
-1.37
-3.45
-5.92
-8.96
-12.49
-16.16
-19.26
-20.87
-20.12
-16.50
-10.13
-1.76
7.47
16.30
23.79
29.43
33.23
35.42
36.35
36.28
35.27
33.27
30.27
26.39
21.93
17.31
12.97
9.23
6.23
3.94
2.21
0.82
-0.44
-1.84
-3.59
-5.80
-8.42
-11.12
-13.52
-15.17
-15.79
-15.38
-14.28
-13.11
-12.62
-13.44
-15.75
-19.16
-22.73
-25.24
-25.63
-23.37
-18.57
-11.96
-4.56
2.68
9.11
14.42
18.55
21.56
23.50
24.44
24.43
23.57
22.08
20.15
18.02
15.94
14.03
12.46
11.30
10.61
10.42
10.74
11.43
12.32
13.15
13.64
13.64
13.10
12.15
10.96
9.63
8.12
6.17
3.44
-0.42
-5.50
-11.49
-17.67
-23.08
-26.78
-28.19
-27.23
-24.36
-20.36
-16.03
-12.02
-8.67
-6.08
-4.20
-2.93
-2.17
-1.86
-1.97
-2.43
-3.16
-4.04
-4.91
-5.61
-6.10
-6.40
-6.63
-6.85
-7.02
-6.99
-6.55
-5.68
-4.53
-3.42
-2.76
-2.79
-3.62
-5.21
-7.54
-10.68
-14.84
-20.16
-26.53
-33.48
-40.19
-45.70
-49.18
-50.19
-48.68
-45.09
-40.07
-34.39
-28.83
-23.95
-20.13
-17.38
-15.45
-13.85
-12.01
-9.57
-6.41
-2.69
1.17
4.75
7.70
9.88
11.40
12.52
13.59
14.83
16.18
17.29
17.60
16.65
14.31
10.94
7.25
3.90
1.23
-1.03
-3.59
-7.22
-12.32
-18.63
-25.28
-31.10
-35.01
-36.35
-34.99
-31.18
-25.40
-18.14
-9.93
-1.30
7.19
15.02
21.82
27.42
31.83
35.08
37.13
37.85
37.16
35.19
32.45
29.70
27.72
26.98
27.42
28.48
29.29
29.05
27.28
24.05
19.77
15.02
10.28
5.79
1.56
-2.58
-6.89
-11.55
-16.66
-22.09
-27.54
-32.43
-36.01
-37.51
-36.29
-32.19
-25.52
-17.13
-8.10
0.58
8.23
14.66
20.05
24.75
29.02
32.91
36.23
38.70
40.11
40.46
40.01
39.19
38.45
38.05
37.95
37.73
36.80
34.55
30.57
24.76
17.31
8.67
-0.52
-9.50
-17.54
-23.97
-28.40
-30.93
-32.09
-32.80
-34.04
-36.42
-39.95
-43.96
-47.30
-48.67
-47.00
-41.79
-33.19
-22.03
-9.56
2.78
13.74
22.47
28.72
32.75
35.16
36.57
37.47
37.97
37.94
37.14
35.41
32.71
29.29
25.62
22.26
19.66
18.07
17.29
16.85
16.14
14.63
12.15
8.85
5.08
1.13
-2.86
-6.91
-11.07
-15.33
-19.64
-24.04
-28.66
-33.65
-38.95
-44.09
-48.14
-49.96
-48.60
-43.72
-35.72
-25.74
-15.24
-5.58
2.30
8.15
12.29
15.33
17.86
20.19
22.26
23.78
24.52
24.47
23.80
22.81
21.69
20.53
19.38
18.30
17.45
16.95
16.69
16.34
15.42
13.52
10.55
6.76
2.65
-1.21
-4.52
-7.25
-9.74
-12.54
-16.14
-20.77
-26.16
-31.53
-35.66
-37.30
-35.52
-30.16
-21.85
-11.87
-1.73
7.45
15.12
21.40
26.75
31.59
35.99
39.73
42.51
44.24
45.19
45.84
46.67
47.89
49.36
50.74
51.71
52.24
52.64
53.48
55.48
59.30
65.27
73.07
81.60
88.86
92.39
90.07
80.96
65.87
47.30
28.69
13.28
3.20
-1.10
-0.73
2.15
4.95
5.31
1.68
-6.35
-17.83
-30.81
-43.03
-52.77
-59.48
-63.82
-67.14
-70.68
-74.93
-79.49
-83.27
-85.00
-83.60
-78.47
-69.54
-57.21
-42.37
-26.31
-10.68
2.78
12.56
17.68
18.02
14.23
7.61
-0.35
-8.32
-15.52
-21.74
-27.16
-32.00
-36.30
-39.85
-42.20
-42.94
-41.76
-38.56
-33.43
-26.66
-18.73
-10.31
-2.09
5.32
11.60
16.86
21.55
26.25
31.31
36.64
41.73
45.85
48.42
49.23
48.49
46.68
44.34
41.96
39.96
38.71
38.54
39.61
41.83
44.87
48.20
51.18
53.22
53.93
53.27
51.65
49.68
47.92
46.44
44.60
41.33
35.66
27.45
17.68
8.32
1.54
-1.15
0.57
5.74
12.65
19.43
24.57
27.22
27.21
25.00
21.54
17.96
15.27
14.07
14.42
15.85
17.67
19.17
19.81
19.20
17.17
13.61
8.53
1.93
-6.09
-15.50
-26.02
-37.18
-48.31
-58.68
-67.90
-76.14
-84.08
-92.40
-101.22
-109.70
-116.43
-120.03
-119.93
-116.58
-111.16
-104.87
-98.36
-91.74
-84.95
-78.18
-72.07
-67.37
-64.42
-62.89
-61.75
-59.74
-55.99
-50.26
-43.06
-35.32
-27.95
-21.61
-16.49
-12.40
-8.99
-6.04
-3.47
-1.33
0.28
1.37
1.96
2.11
1.72
0.60
-1.47
-4.59
-8.67
-13.37
-18.16
-22.35
-25.19
-26.22
-25.46
-23.57
-21.70
-21.02
-22.21
-25.04
-28.42
-30.89
-31.21
-28.88
-24.19
-17.89
-10.85
-3.69
3.26
9.78
15.61
20.38
23.71
25.39
25.47
24.35
22.61
20.78
19.25
18.14
17.40
16.90
16.54
16.34
16.34
16.58
16.95
17.26
17.25
16.77
15.80
14.42
12.84
11.30
9.99
8.98
8.16
7.17
5.53
2.77
-1.33
-6.55
-12.12
-16.84
-19.44
-18.94
-15.01
-8.06
0.89
10.64
20.13
28.79
36.52
43.52
50.05
56.16
61.72
66.44
70.14
72.90
75.09
77.19
79.58
82.26
84.70
86.03
85.31
81.82
75.28
65.91
54.28
41.17
27.26
12.94
-1.78
-17.13
-33.37
-50.29
-67.16
-82.77
-95.99
-106.26
-114.01
-120.55
-127.47
-135.95
-146.09
-156.87
-166.55
-173.16
-175.11
-171.50
-162.22
-147.91
-129.71
-108.91
-86.80
-64.46
-42.76
-22.49
-4.39
10.89
22.97
31.83
37.91
42.01
44.99
47.60
50.21
52.90
55.55
57.90
59.69
60.61
60.39
58.84
55.89
51.54
45.90
39.19
31.76
24.07
16.65
10.02
4.45
-0.18
-4.33
-8.66
-13.70
-19.49
-25.42
-30.38
-33.18
-33.00
-29.70
-23.82
-16.28
-7.96
0.55
8.91
16.90
24.14
30.12
34.33
36.58
37.10
36.45
35.26
33.97
32.73
31.44
29.95
28.26
26.50
24.91
23.66
22.77
22.00
20.98
19.36
16.93
13.78
10.22
6.71
3.51
0.69
-2.09
-5.21
-9.08
-13.83
-19.35
-25.34
-31.41
-37.12
-41.95
-45.24
-46.18
-44.11
-38.64
-29.95
-18.87
-6.73
4.86
14.45
21.12
24.81
26.29
26.87
27.87
30.05
33.40
37.24
40.64
42.84
43.54
42.73
40.60
37.35
33.21
28.66
24.33
20.83
18.32
16.33
14.02
10.67
6.21
1.24
-3.20
-6.45
-8.38
-9.59
-10.86
-12.72
-15.24
-18.08
-20.84
-23.15
-24.78
-25.44
-24.75
-22.27
-17.69
-11.08
-2.86
6.20
15.16
23.03
28.96
32.44
33.40
32.29
29.89
27.10
24.53
22.33
20.21
17.75
14.67
11.01
7.18
3.64
0.83
-1.08
-2.16
-2.65
-2.80
-2.87
-3.13
-3.69
-4.56
-5.63
-6.73
-7.71
-8.59
-9.54
-10.84
-12.75
-15.33
-18.48
-21.85
-24.96
-27.14
-27.71
-26.03
-21.74
-14.99
-6.46
2.68
11.19
18.09
22.93
25.81
27.14
27.42
26.98
25.96
24.39
22.39
20.24
18.34
17.09
16.74
17.20
18.13
19.02
19.43
19.17
18.28
16.95
15.40
13.68
11.68
9.30
6.48
3.27
-0.18
-3.74
-7.39
-11.20
-15.21
-19.31
-23.12
-25.95
-27.07
-25.89
-22.24
-16.52
-9.51
-2.16
4.80
11.02
16.40
20.97
24.59
27.03
28.03
27.55
25.89
23.60
21.32
19.59
18.66
18.47
18.61
18.40
17.18
14.44
10.23
5.21
0.42
-3.12
-4.93
-5.19
-4.67
-4.22
-4.42
-5.42
-7.06
-9.23
-11.97
-15.55
-20.07
-25.17
-29.95
-33.17
-33.75
-31.16
-25.71
-18.38
-10.49
-3.25
2.58
6.82
9.71
11.68
13.21
14.60
16.02
17.49
18.93
20.27
21.43
22.38
23.09
23.48
23.49
23.05
22.25
21.27
20.32
19.49
18.64
17.50
15.79
13.42
10.53
7.41
4.31
1.25
-1.89
-5.32
-9.14
-13.24
-17.34
-21.01
-23.85
-25.50
-25.73
-24.41
-21.53
-17.25
-11.94
-6.16
-0.58
4.20
7.79
10.16
11.55
12.38
13.04
13.74
14.48
15.12
15.52
15.55
15.21
14.54
13.59
12.49
11.34
10.24
9.21
8.14
6.83
5.00
2.47
-0.76
-4.52
-8.47
-12.28
-15.76
-18.97
-22.15
-25.64
-29.62
-33.97
-38.12
-41.25
-42.46
-41.12
-37.05
-30.65
-22.76
-14.39
-6.46
0.45
6.14
10.76
14.60
17.94
20.90
23.39
25.21
26.21
26.33
25.73
24.62
23.25
21.80
20.38
18.98
17.59
16.18
14.74
13.24
11.59
9.71
7.50
4.95
2.12
-0.88
-3.93
-7.07
-10.38
-14.01
-18.13
-22.70
-27.46
-31.84
-35.10
-36.50
-35.47
-31.86
-25.94
-18.42
-10.17
-2.08
5.13
11.04
15.56
18.82
21.08
22.68
23.83
24.65
25.09
25.04
24.41
23.27
21.82
20.37
19.19
18.39
17.93
17.61
17.22
16.62
15.64
14.15
12.02
9.13
5.48
1.29
-3.12
-7.37
-11.29
-14.97
-18.75
-22.92
-27.52
-32.19
-36.21
-38.72
-39.06
-36.91
-32.40
-26.05
-18.57
-10.81
-3.49
2.86
7.94
11.74
14.43
16.24
17.36
17.97
18.20
18.22
18.26
18.46
18.88
19.39
19.77
19.83
19.48
18.74
17.65
16.21
14.35
12.04
9.29
6.24
3.10
0.04
-2.87
-5.70
-8.65
-11.91
-15.66
-19.88
-24.35
-28.61
-32.00
-33.79
-33.30
-30.27
-24.87
-17.81
-10.04
-2.54
4.01
9.31
13.49
16.83
19.58
21.76
23.18
23.53
22.61
20.49
17.58
14.48
11.78
9.83
8.59
7.78
6.97
5.84
4.31
2.53
0.68
-1.11
-2.81
-4.52
-6.35
-8.39
-10.68
-13.26
-16.24
-19.73
-23.78
-28.16
-32.34
-35.52
-36.87
-35.77
-32.06
-26.13
-18.80
-11.05
-3.78
2.39
7.26
10.92
13.69
15.93
17.95
19.90
21.70
23.13
23.91
23.85
22.97
21.48
19.69
17.92
16.36
15.06
13.91
12.75
11.38
9.63
7.38
4.58
1.28
-2.38
-6.23
-10.11
-13.98
-18.01
-22.35
-27.13
-32.15
-36.90
-40.56
-42.32
-41.60
-38.27
-32.74
-25.76
-18.17
-10.67
-3.67
2.70
8.42
13.50
17.90
21.50
24.18
25.89
26.68
26.67
26.02
24.88
23.39
21.67
19.84
18.01
16.30
14.80
13.57
12.53
11.55
10.43
8.96
7.02
4.60
1.77
-1.26
-4.33
-7.34
-10.34
-13.56
-17.27
-21.68
-26.65
-31.65
-35.80
-38.14
-37.95
-35.06
-29.98
-23.58
-16.87
-10.57
-4.97
-0.00
4.57
8.96
13.15
16.98
20.20
22.59
24.07
24.72
24.74
24.39
23.87
23.32
22.72
22.00
21.10
20.03
18.87
17.64
16.27
14.53
12.18
9.10
5.40
1.42
-2.39
-5.73
-8.56
-11.15
-13.96
-17.40
-21.71
-26.78
-32.18
-37.18
-40.90
-42.53
-41.46
-37.53
-31.06
-22.83
-13.89
-5.27
2.31
8.54
13.49
17.50
20.89
23.84
26.31
28.14
29.27
29.70
29.63
29.23
28.61
27.81
26.82
25.68
24.51
23.47
22.60
21.75
20.56
18.56
15.41
11.10
5.99
0.66
-4.25
-8.30
-11.38
-13.70
-15.66
-17.75
-20.34
-23.60
-27.40
-31.32
-34.64
-36.50
-36.17
-33.26
-27.93
-20.91
-13.15
-5.56
1.27
7.18
12.25
16.65
20.40
23.39
25.49
26.73
27.33
27.71
28.26
29.18
30.35
31.42
32.07
32.12
31.68
31.04
30.50
30.18
29.90
29.23
27.74
25.25
21.98
18.57
15.77
14.11
13.65
13.91
14.08
13.44
11.75
9.31
6.92
5.58
6.11
9.06
14.81
23.49
34.98
48.51
62.51
74.78
83.05
85.73
82.20
72.60
57.30
36.50
10.53
-19.52
-50.98
-79.68
-100.79
-110.44
-107.14
-92.35
-69.84
-44.25
-19.66
1.23
17.08
27.37
32.06
31.27
25.58
16.20
4.86
-6.44
-16.11
-23.39
-28.52
-32.40
-36.12
-40.37
-45.35
-50.75
-55.92
-60.07
-62.37
-62.12
-58.88
-52.69
-44.14
-34.24
-24.19
-15.00
-7.26
-1.11
3.65
7.29
10.03
11.95
13.13
13.67
13.80
13.79
13.88
14.18
14.61
14.97
15.07
14.80
14.18
13.37
12.54
11.72
10.83
9.64
7.87
5.35
2.05
-1.85
-6.02
-10.07
-13.67
-16.68
-19.22
-21.71
-24.60
-28.28
-32.69
-37.31
-41.20
-43.33
-42.86
-39.50
-33.60
-26.03
-17.93
-10.30
-3.79
1.41
5.49
8.78
11.55
13.90
15.81
17.20
18.09
18.56
18.74
18.64
18.23
17.46
16.34
15.05
13.81
12.79
11.97
11.18
10.16
8.66
6.54
3.86
0.77
-2.50
-5.74
-8.80
-11.60
-14.22
-16.87
-19.86
-23.49
-27.89
-32.81
-37.66
-41.52
-43.43
-42.68
-39.05
-32.88
-24.95
-16.21
-7.50
0.54
7.55
13.33
17.86
21.16
23.34
24.60
25.15
25.23
25.00
24.57
24.00
23.30
22.46
21.45
20.25
18.87
17.35
15.75
14.14
12.53
10.79
8.81
6.46
3.73
0.76
-2.22
-4.97
-7.41
-9.67
-12.06
-14.94
-18.57
-22.97
-27.78
-32.38
-35.94
-37.67
-36.98
-33.76
-28.38
-21.66
-14.53
-7.78
-1.81
3.31
7.71
11.48
14.60
17.00
18.63
19.62
20.19
20.57
20.86
21.04
21.05
20.85
20.55
20.28
20.17
20.23
20.34
20.29
19.80
18.63
16.59
13.68
10.10
6.25
2.67
-0.25
-2.35
-3.90
-5.42
-7.51
-10.61
-14.83
-19.92
-25.35
-30.37
-34.18
-36.03
-35.37
-32.09
-26.54
-19.60
-12.33
-5.66
-0.15
4.19
7.67
10.62
13.19
15.27
16.64
17.14
16.82
15.92
14.79
13.64
12.59
11.62
10.72
9.90
9.30
9.02
9.08
9.28
9.22
8.46
6.67
3.87
0.40
-3.24
-6.55
-9.33
-11.67
-13.93
-16.53
-19.80
-23.81
-28.27
-32.56
-35.85
-37.31
-36.35
-32.85
-27.18
-20.15
-12.66
-5.50
0.84
6.15
10.40
13.59
15.68
16.66
16.67
15.97
14.95
13.93
13.16
12.67
12.34
11.99
11.48
10.81
10.05
9.27
8.39
7.21
5.50
3.18
0.36
-2.59
-5.32
-7.61
-9.53
-11.39
-13.63
-16.65
-20.63
-25.44
-30.65
-35.57
-39.41
-41.40
-41.05
-38.20
-33.06
-26.15
-18.18
-9.89
-1.93
5.16
11.07
15.68
19.12
21.60
23.32
24.38
24.74
24.39
23.40
21.99
20.45
19.00
17.74
16.67
15.76
14.99
14.33
13.64
12.65
11.03
8.53
5.17
1.22
-2.83
-6.45
-9.35
-11.55
-13.44
-15.64
-18.77
-23.17
-28.61
-34.26
-38.80
-40.90
-39.64
-34.93
-27.47
-18.49
-9.34
-1.05
5.89
11.44
15.81
19.27
22.01
24.07
25.40
25.97
25.77
24.94
23.66
22.17
20.68
19.36
18.28
17.50
17.04
16.85
16.80
16.69
16.25
15.18
13.28
10.48
6.88
2.73
-1.64
-5.87
-9.72
-13.16
-16.42
-19.93
-24.17
-29.30
-35.05
-40.54
-44.60
-46.05
-44.14
-38.90
-31.06
-21.82
-12.49
-4.02
3.10
8.86
13.51
17.33
20.53
23.12
25.06
26.30
26.88
26.94
26.66
26.19
25.60
24.91
24.11
23.26
22.39
21.52
20.53
19.25
17.43
14.89
11.62
7.81
3.84
0.09
-3.17
-5.91
-8.40
-11.09
-14.47
-18.84
-24.16
-29.94
-35.29
-39.17
-40.63
-39.11
-34.59
-27.52
-18.77
-9.35
-0.21
7.91
14.63
19.88
23.91
27.04
29.59
31.69
33.29
34.25
34.47
33.94
32.81
31.25
29.41
27.37
25.14
22.72
20.17
17.51
14.71
11.78
8.66
5.34
1.90
-1.53
-4.80
-7.78
-10.50
-13.11
-15.86
-19.09
-23.04
-27.67
-32.57
-36.98
-39.92
-40.52
-38.29
-33.27
-26.08
-17.63
-8.89
-0.68
6.41
12.10
16.26
19.03
20.75
21.85
22.81
23.94
25.27
26.60
27.66
28.28
28.48
28.48
28.52
28.79
29.33
30.04
30.76
31.27
31.38
30.96
30.00
28.60
26.94
25.25
23.70
22.34
21.15
20.05
18.93
17.57
15.80
13.56
11.04
8.62
6.58
4.64
1.64
-4.31
-15.10
-31.59
-52.86
-76.12
-97.51
-113.32
-121.24
-120.85
-113.29
-100.38
-83.76
-64.57
-43.51
-21.37
0.69
21.19
38.68
52.11
61.10
65.84
66.66
63.91
57.84
48.91
37.97
26.34
15.53
6.74
0.48
-3.67
-6.79
-10.23
-14.98
-21.35
-28.72
-35.81
-41.10
-43.32
-41.85
-36.89
-29.35
-20.53
-11.69
-3.86
2.39
6.89
9.82
11.55
12.55
13.18
13.66
13.98
14.00
13.51
12.39
10.70
8.64
6.52
4.62
3.10
1.91
0.86
-0.33
-1.88
-3.85
-6.16
-8.61
-11.06
-13.44
-15.86
-18.51
-21.56
-25.13
-29.29
-33.89
-38.61
-42.80
-45.62
-46.14
-43.69
-38.15
-30.05
-20.48
-10.73
-1.91
5.35
11.01
15.38
18.88
21.82
24.31
26.31
27.76
28.67
29.01
28.77
27.91
26.42
24.40
22.06
19.71
17.62
15.85
14.23
12.48
10.29
7.49
4.18
0.65
-2.79
-5.95
-8.86
-11.81
-15.23
-19.53
-24.83
-30.86
-36.87
-41.82
-44.62
-44.42
-40.93
-34.50
-26.02
-16.64
-7.49
0.63
7.42
12.95
17.55
21.51
24.93
27.68
29.47
30.10
29.54
28.01
25.95
23.81
21.94
20.47
19.37
18.57
17.95
17.44
16.88
16.03
14.57
12.21
8.91
4.88
0.60
-3.46
-7.04
-10.25
-13.62
-17.73
-22.94
-29.14
-35.60
-41.18
-44.68
-45.20
-42.44
-36.74
-28.95
-20.15
-11.28
-3.01
4.35
10.78
16.37
21.18
25.15
28.21
30.20
31.09
30.93
29.90
28.31
26.51
24.84
23.56
22.74
22.21
21.68
20.76
19.14
16.68
13.50
9.90
6.28
2.95
0.05
-2.50
-4.95
-7.63
-10.89
-14.97
-20.02
-25.93
-32.26
-38.21
-42.69
-44.60
-43.23
-38.45
-30.91
-21.74
-12.27
-3.63
3.53
9.08
13.20
16.27
18.65
20.54
21.99
22.91
23.12
22.51
21.16
19.33
17.45
15.93
14.99
14.59
14.38
13.95
12.94
11.23
8.84
5.96
2.77
-0.62
-4.14
-7.75
-11.40
-15.11
-18.99
-23.26
-28.05
-33.28
-38.49
-42.78
-45.14
-44.66
-40.92
-34.19
-25.37
-15.72
-6.39
1.81
8.61
14.07
18.37
21.58
23.62
24.45
24.14
23.01
21.52
20.13
19.09
18.43
18.00
17.56
16.91
15.89
14.44
12.59
10.44
8.12
5.75
3.41
1.04
-1.46
-4.15
-7.10
-10.29
-13.72
-17.51
-21.78
-26.54
-31.50
-35.96
-38.97
-39.61
-37.32
-32.17
-24.83
-16.36
-7.87
-0.25
6.08
11.10
15.08
18.36
21.19
23.57
25.33
26.23
26.09
24.97
23.17
21.11
19.19
17.66
16.48
15.47
14.38
13.02
11.29
9.18
6.77
4.14
1.40
-1.42
-4.26
-7.19
-10.30
-13.77
-17.83
-22.68
-28.36
-34.54
-40.49
-45.08
-47.19
-46.04
-41.46
-34.04
-24.78
-14.82
-5.10
3.77
11.48
17.84
22.80
26.39
28.75
30.16
30.93
31.33
31.47
31.38
30.99
30.27
29.26
28.09
26.94
25.96
25.19
24.48
23.56
22.03
19.62
16.24
12.06
7.44
2.75
-1.70
-5.76
-9.47
-13.09
-16.94
-21.39
-26.64
-32.49
-38.32
-43.14
-45.85
-45.61
-42.16
-35.90
-27.73
-18.75
-9.90
-1.83
5.20
11.12
15.99
19.90
22.97
25.36
27.20
28.62
29.65
30.26
30.37
29.89
28.81
27.18
25.17
23.01
21.04
19.52
18.52
17.80
16.87
15.13
12.23
8.22
3.55
-1.08
-5.07
-8.22
-10.73
-13.17
-16.14
-20.06
-24.86
-30.03
-34.67
-37.76
-38.38
-36.07
-30.90
-23.49
-14.80
-5.91
2.31
9.34
14.99
19.43
22.98
25.95
28.52
30.66
32.22
33.00
32.95
32.19
30.99
29.58
28.11
26.63
25.09
23.44
21.70
19.93
18.12
16.18
13.91
11.16
7.94
4.43
0.92
-2.24
-4.90
-7.15
-9.36
-12.02
-15.50
-19.87
-24.72
-29.19
-32.19
-32.75
-30.37
-25.16
-17.86
-9.58
-1.50
5.51
11.05
15.22
18.41
21.03
23.30
25.15
26.33
26.64
26.14
25.12
23.96
22.93
22.00
20.89
19.34
17.27
14.90
12.62
10.81
9.56
8.66
7.70
6.29
4.27
1.76
-0.91
-3.28
-5.05
-6.18
-6.95
-7.93
-9.70
-12.47
-15.85
-18.77
-19.73
-17.38
-11.11
-1.28
10.83
23.52
35.34
45.36
53.31
59.33
63.73
66.86
68.95
70.01
69.47
65.97
57.34
41.20
16.06
-17.54
-56.41
-95.04
-126.81
-145.90
-148.78
-135.21
-108.09
-72.55
-34.57
0.32
28.11
46.61
55.42
55.44
48.29
35.75
19.57
1.46
-16.76
-33.13
-45.77
-53.33
-55.40
-52.71
-46.84
-39.62
-32.54
-26.34
-20.97
-16.05
-11.32
-6.98
-3.55
-1.58
-1.21
-2.01
-3.16
-3.84
-3.69
-2.90
-2.05
-1.76
-2.27
-3.32
-4.37
-5.00
-5.08
-5.00
-5.33
-6.58
-8.92
-12.15
-15.85
-19.58
-23.11
-26.46
-29.84
-33.48
-37.40
-41.33
-44.64
-46.50
-46.14
-43.11
-37.50
-29.91
-21.28
-12.59
-4.62
2.25
7.94
12.58
16.33
19.28
21.56
23.25
24.44
25.23
25.66
25.74
25.46
24.84
23.95
22.93
21.87
20.80
19.67
18.35
16.68
14.58
12.04
9.09
5.85
2.44
-1.03
-4.52
-8.02
-11.65
-15.53
-19.76
-24.23
-28.52
-31.94
-33.64
-32.95
-29.56
-23.80
-16.42
-8.46
-0.88
5.69
11.05
15.28
18.63
21.31
23.40
24.90
25.72
25.80
25.19
24.03
22.57
21.09
19.86
19.00
18.53
18.33
18.08
17.44
16.10
13.93
11.01
7.63
4.10
0.72
-2.46
-5.61
-9.05
-13.08
-17.91
-23.39
-29.10
-34.33
-38.21
-39.96
-38.97
-35.12
-28.79
-20.78
-12.20
-4.10
2.73
8.00
11.76
14.38
16.22
17.57
18.49
18.98
19.05
18.75
18.20
17.52
16.75
15.91
15.00
14.08
13.21
12.42
11.57
10.45
8.82
6.61
3.93
1.05
-1.79
-4.49
-7.16
-10.08
-13.54
-17.68
-22.40
-27.35
-31.97
-35.56
-37.45
-37.10
-34.32
-29.28
-22.56
-14.97
-7.38
-0.42
5.58
10.59
14.74
18.15
20.79
22.50
23.10
22.57
21.10
19.14
17.18
15.66
14.69
14.16
13.72
12.98
11.65
9.64
7.03
4.07
1.07
-1.73
-4.20
-6.37
-8.43
-10.65
-13.32
-16.69
-20.88
-25.80
-31.08
-35.97
-39.52
-40.76
-39.04
-34.30
-27.10
-18.52
-9.73
-1.66
5.20
10.79
15.33
19.04
21.99
24.10
25.18
25.13
24.05
22.24
20.13
18.11
16.42
15.12
14.09
13.15
12.17
11.05
9.70
8.02
5.86
3.13
-0.12
-3.71
-7.31
-10.64
-13.64
-16.49
-19.59
-23.33
-27.83
-32.73
-37.20
-40.08
-40.34
-37.42
-31.49
-23.41
-14.45
-5.87
1.45
7.16
11.45
14.84
17.82
20.66
23.28
25.35
26.43
26.32
25.12
23.22
21.19
19.49
18.25
17.35
16.40
15.09
13.29
11.05
8.51
5.80
2.94
-0.09
-3.27
-6.51
-9.67
-12.74
-15.86
-19.37
-23.49
-28.21
-32.98
-36.90
-38.93
-38.27
-34.67
-28.49
-20.55
-11.85
-3.33
4.36
10.87
16.13
20.24
23.39
25.72
27.35
28.29
28.53
28.08
27.07
25.68
24.12
22.48
20.78
18.99
17.08
15.10
13.10
11.06
8.87
6.39
3.51
0.33
-2.98
-6.21
-9.36
-12.63
-16.37
-20.79
-25.86
-31.17
-36.01
-39.60
-41.19
-40.27
-36.67
-30.59
-22.61
-13.61
-4.50
3.96
11.34
17.55
22.69
26.90
30.20
32.59
34.10
34.84
35.02
34.79
34.22
33.24
31.86
30.13
28.26
26.49
24.94
23.56
22.10
20.29
17.86
14.77
11.14
7.19
3.18
-0.67
-4.23
-7.52
-10.71
-14.17
-18.31
-23.43
-29.40
-35.57
-40.85
-44.00
-44.06
-40.79
-34.70
-26.90
-18.65
-10.96
-4.27
1.44
6.47
11.10
15.41
19.22
22.28
24.39
25.53
25.83
25.51
24.75
23.69
22.39
20.95
19.52
18.25
17.21
16.32
15.36
14.03
12.09
9.49
6.37
3.00
-0.33
-3.42
-6.30
-9.23
-12.63
-16.85
-21.94
-27.43
-32.44
-35.83
-36.61
-34.33
-29.15
-21.81
-13.38
-4.85
2.94
9.52
14.70
18.55
21.27
23.14
24.35
25.02
25.14
24.64
23.54
21.99
20.28
18.72
17.51
16.64
15.87
14.83
13.19
10.84
7.88
4.64
1.45
-1.47
-4.09
-6.59
-9.18
-12.08
-15.46
-19.41
-23.85
-28.46
-32.62
-35.40
-35.90
-33.50
-28.20
-20.57
-11.64
-2.51
5.97
13.39
19.71
25.08
29.65
33.40
36.15
37.74
38.15
37.70
36.94
36.55
37.02
38.43
40.43
42.40
43.76
44.20
43.78
42.75
41.47
40.23
39.23
38.74
38.97
39.99
41.30
41.67
39.18
31.74
17.81
-3.03
-29.80
-60.50
-92.59
-123.65
-151.61
-174.73
-191.34
-199.75
-198.44
-186.61
-164.63
-134.32
-98.73
-61.56
-26.39
3.90
27.40
43.15
51.13
52.09
47.62
40.01
31.97
26.08
24.08
26.41
32.11
39.24
45.53
49.19
49.34
46.04
40.09
32.58
24.50
16.51
8.89
1.62
-5.40
-12.27
-18.93
-25.07
-30.13
-33.26
-33.51
-30.05
-22.62
-11.84
0.74
12.93
22.63
28.58
30.75
30.25
28.70
27.48
27.09
27.19
26.95
25.68
23.28
20.15
17.05
14.52
12.78
11.68
10.96
10.42
9.98
9.55
8.97
7.88
5.88
2.73
-1.54
-6.56
-11.77
-16.63
-20.84
-24.47
-27.90
-31.61
-35.90
-40.55
-44.79
-47.51
-47.60
-44.41
-38.05
-29.34
-19.48
-9.73
-0.92
6.55
12.71
17.79
21.98
25.30
27.68
29.03
29.31
28.68
27.44
25.95
24.53
23.34
22.35
21.40
20.26
18.78
16.92
14.77
12.42
9.92
7.19
4.15
0.77
-2.79
-6.26
-9.39
-12.16
-14.88
-18.05
-22.03
-26.78
-31.66
-35.62
-37.51
-36.54
-32.49
-25.77
-17.27
-8.04
0.89
8.75
15.09
19.84
23.18
25.43
26.87
27.65
27.75
27.12
25.75
23.77
21.45
19.12
17.05
15.39
14.17
13.30
12.56
11.67
10.35
8.41
5.83
2.82
-0.29
-3.29
-6.11
-8.98
-12.26
-16.29
-21.27
-27.02
-33.02
-38.41
-42.22
-43.51
-41.72
-36.77
-29.18
-19.93
-10.25
-1.26
6.28
12.06
16.19
18.96
20.69
21.60
21.79
21.36
20.41
19.16
17.91
16.91
16.35
16.22
16.39
16.54
16.31
15.35
13.42
10.44
6.62
2.34
-1.95
-5.86
-9.25
-12.20
-15.05
-18.22
-22.02
-26.50
-31.34
-35.82
-38.99
-39.97
-38.18
-33.60
-26.78
-18.64
-10.23
-2.37
4.37
9.84
14.04
17.06
18.96
19.73
19.37
17.86
15.30
11.94
8.21
4.65
1.75
-0.19
-1.14
-1.46
-1.69
-2.34
-3.74
-5.91
-8.57
-11.32
-13.83
-15.94
-17.71
-19.33
-21.07
-23.18
-25.77
-28.84
-32.10
-34.98
-36.67
-36.28
-33.17
-27.23
-19.01
-9.62
-0.30
7.92
14.57
19.68
23.61
26.68
28.99
30.38
30.67
29.78
27.92
25.56
23.27
21.50
20.44
19.98
19.82
19.63
19.19
18.47
17.51
16.29
14.69
12.38
8.99
4.35
-1.43
-7.98
-14.82
-21.65
-28.32
-34.85
-41.09
-46.63
-50.73
-52.54
-51.38
-47.03
-39.85
-30.70
-20.63
-10.67
-1.53
6.45
13.25
19.06
23.99
28.04
31.03
32.75
33.19
32.57
31.35
29.98
28.79
27.86
27.09
26.26
25.20
23.84
22.17
20.25
18.12
15.79
13.25
10.49
7.51
4.27
0.70
-3.32
-7.88
-12.94
-18.15
-22.74
-25.64
-25.82
-22.60
-16.09
-7.12
3.06
13.27
22.71
31.18
38.83
45.87
52.27
57.79
62.02
64.79
66.34
67.37
68.79
71.32
75.04
79.22
82.41
82.87
78.96
69.54
54.13
32.94
6.82
-22.75
-53.78
-83.99
-111.28
-134.12
-151.88
-164.61
-172.58
-175.71
-173.41
-164.70
-149.02
-126.69
-99.13
-68.63
-37.82
-8.97
16.20
36.61
51.72
61.41
66.06
66.59
64.37
60.95
57.70
55.42
54.14
53.31
52.03
49.58
45.69
40.65
35.22
30.24
26.34
23.60
21.67
19.89
17.65
14.65
10.96
6.90
2.80
-1.15
-4.99
-8.95
-13.32
-18.28
-23.85
-29.82
-35.74
-40.97
-44.70
-46.17
-44.76
-40.35
-33.32
-24.51
-15.03
-5.88
2.20
8.82
13.85
17.28
19.13
19.42
18.30
16.05
13.09
9.94
7.06
4.80
3.31
2.48
1.98
1.38
0.28
-1.50
-3.88
-6.54
-9.08
-11.26
-13.09
-14.80
-16.72
-19.23
-22.54
-26.72
-31.62
-36.77
-41.37
-44.36
-44.81
-42.07
-36.17
-27.81
-18.17
-8.55
0.05
7.12
12.71
17.15
20.84
24.00
26.55
28.28
28.91
28.39
26.87
24.74
22.48
20.49
18.98
17.89
17.00
16.03
14.73
12.92
10.56
7.72
4.58
1.33
-1.90
-5.11
-8.48
-12.33
-16.96
-22.40
-28.23
-33.57
-37.23
-38.15
-35.76
-30.24
-22.45
-13.62
-5.00
2.58
8.77
13.68
17.61
20.87
23.57
25.65
27.00
27.54
27.35
26.65
25.66
24.56
23.42
22.10
20.49
18.50
16.18
13.72
11.33
9.07
6.87
4.49
1.63
-1.91
-6.11
-10.82
-15.79
-20.90
-26.12
-31.43
-36.52
-40.72
-43.01
-42.47
-38.58
-31.51
-22.14
-11.71
-1.45
7.70
15.22
20.90
24.80
27.02
27.77
27.39
26.24
24.78
23.45
22.58
22.35
22.71
23.41
24.11
24.45
24.23
23.44
22.20
20.63
18.71
16.37
13.48
10.09
6.34
2.48
-1.38
-5.30
-9.62
-14.69
-20.63
-27.12
-33.29
-37.92
-39.80
-38.21
-33.12
-25.26
-15.84
-6.21
2.57
9.89
15.59
19.82
22.83
24.79
25.86
26.17
25.88
25.19
24.34
23.51
22.79
22.16
21.50
20.71
19.71
18.49
17.01
15.24
13.09
10.51
7.57
4.40
1.17
-2.01
-5.22
-8.63
-12.45
-16.84
-21.82
-27.19
-32.59
-37.35
-40.61
-41.44
-39.08
-33.29
-24.60
-14.14
-3.39
6.32
14.22
20.17
24.55
27.88
30.54
32.58
33.84
34.07
33.20
31.40
29.02
26.51
24.23
22.33
20.80
19.55
18.46
17.43
16.34
15.01
13.17
10.64
7.39
3.59
-0.39
-4.23
-7.74
-11.07
-14.61
-18.82
-23.91
-29.65
-35.21
-39.37
-40.89
-38.94
-33.39
-24.95
-14.87
-4.57
4.77
12.52
18.52
22.96
26.07
28.01
28.85
28.64
27.49
25.65
23.38
20.96
18.56
16.34
14.43
12.97
12.07
11.71
11.67
11.54
10.81
9.13
6.38
2.77
-1.31
-5.39
-9.14
-12.49
-15.63
-18.97
-22.89
-27.53
-32.56
-37.18
-40.25
-40.68
-37.78
-31.58
-22.80
-12.66
-2.52
6.52
13.81
19.20
22.84
25.00
25.93
25.75
24.60
22.72
20.47
18.28
16.54
15.50
15.20
15.47
15.99
16.32
15.96
14.37
11.17
6.29
0.07
-6.75
-13.34
-19.02
-23.51
-26.92
-29.67
-32.23
-34.95
-37.97
-41.15
-44.13
-46.34
-47.07
-45.63
-41.61
-35.01
-26.39
-16.73
-7.21
1.18
7.83
12.60
15.74
17.69
18.89
19.60
19.93
19.89
19.49
18.80
17.97
17.15
16.48
15.99
15.63
15.22
14.48
13.19
11.19
8.50
5.30
1.90
-1.43
-4.57
-7.61
-10.82
-14.46
-18.69
-23.52
-28.77
-34.04
-38.77
-42.22
-43.55
-42.07
-37.49
-30.12
-20.88
-11.03
-1.84
5.80
11.58
15.63
18.36
20.18
21.31
21.81
21.67
20.91
19.65
18.18
16.76
15.63
14.92
14.50
14.12
13.48
12.34
10.60
8.34
5.75
2.98
0.10
-2.97
-6.37
-10.18
-14.39
-18.90
-23.62
-28.46
-33.33
-37.92
-41.65
-43.69
-43.17
-39.57
-33.03
-24.35
-14.74
-5.46
2.61
9.10
14.09
17.88
20.75
22.89
24.34
25.11
25.22
24.74
23.79
22.54
21.12
19.64
18.21
16.80
15.37
13.76
11.86
9.56
6.82
3.71
0.34
-3.14
-6.58
-9.91
-13.19
-16.59
-20.43
-24.99
-30.38
-36.39
-42.31
-47.12
-49.68
-49.06
-44.89
-37.50
-27.84
-17.26
-7.07
1.77
8.91
14.48
18.88
22.44
25.29
27.34
28.52
28.84
28.45
27.62
26.55
25.30
23.92
22.43
20.94
19.59
18.41
17.27
15.87
13.84
10.98
7.34
3.21
-1.04
-5.05
-8.66
-11.96
-15.30
-19.17
-24.00
-29.95
-36.71
-43.41
-48.76
-51.38
-50.28
-45.17
-36.62
-25.84
-14.37
-3.53
5.74
13.08
18.49
22.24
24.66
26.07
26.79
27.08
27.12
27.04
26.81
26.38
25.68
24.71
23.56
22.38
21.29
20.34
19.46
18.45
17.08
15.18
12.67
9.59
6.06
2.23
-1.75
-5.78
-9.84
-14.01
-18.51
-23.49
-28.99
-34.60
-39.47
-42.44
-42.46
-38.96
-32.16
-22.99
-12.86
-3.12
5.18
11.61
16.17
19.17
20.98
21.89
22.06
21.55
20.36
18.50
16.07
13.27
10.36
7.64
5.35
3.63
2.47
1.75
1.26
0.73
-0.07
-1.28
-2.90
-4.81
-6.84
-8.90
-11.00
-13.36
-16.31
-20.18
-25.13
-30.91
-36.82
-41.72
-44.38
-43.81
-39.65
-32.25
-22.64
-12.16
-2.07
6.76
13.94
19.47
23.54
26.38
28.13
28.94
28.94
28.34
27.40
26.34
25.34
24.43
23.53
22.49
21.22
19.64
17.79
15.69
13.42
11.09
8.78
6.54
4.26
1.75
-1.22
-4.83
-9.11
-14.00
-19.34
-24.88
-30.21
-34.70
-37.42
-37.46
-34.22
-27.76
-18.96
-9.19
0.08
7.86
13.78
18.00
20.92
22.85
23.89
24.00
23.14
21.47
19.28
17.00
15.00
13.51
12.52
11.84
11.16
10.18
8.78
7.00
5.07
3.20
1.48
-0.20
-2.06
-4.44
-7.53
-11.38
-15.93
-21.07
-26.68
-32.50
-38.02
-42.38
-44.50
-43.42
-38.82
-31.19
-21.81
-12.25
-3.79
3.01
8.33
12.73
16.62
19.95
22.31
23.23
22.51
20.47
17.75
15.05
12.84
11.29
10.26
9.54
8.89
8.11
7.06
5.58
3.60
1.10
-1.87
-5.18
-8.65
-12.18
-15.78
-19.55
-23.72
-28.48
-33.85
-39.54
-44.78
-48.54
-49.73
-47.54
-41.78
-33.00
-22.26
-10.86
0.10
9.90
18.27
25.19
30.73
34.96
37.88
39.61
40.42
40.67
40.61
40.34
39.65
38.27
36.06
33.14
29.91
26.83
24.18
21.89
19.65
17.10
14.11
10.75
7.28
3.91
0.59
-2.98
-7.25
-12.49
-18.62
-25.04
-30.70
-34.38
-35.08
-32.35
-26.45
-18.32
-9.18
-0.30
7.35
13.28
17.38
19.89
21.21
21.80
22.03
22.21
22.40
22.52
22.38
21.79
20.67
19.08
17.28
15.53
14.09
13.02
12.25
11.58
10.78
9.67
8.12
5.99
3.11
-0.74
-5.72
-11.86
-18.94
-26.53
-34.06
-40.88
-46.33
-49.79
-50.75
-48.87
-44.09
-36.71
-27.41
-17.09
-6.73
2.84
11.07
17.70
22.77
26.48
29.15
31.11
32.65
33.96
35.08
35.93
36.34
36.23
35.68
34.94
34.34
34.17
34.45
34.92
35.10
34.52
32.88
30.27
27.04
23.72
20.80
18.58
17.27
16.96
17.54
18.47
18.64
16.51
10.69
0.68
-12.79
-27.91
-42.62
-55.57
-66.61
-76.45
-85.73
-94.19
-100.42
-102.49
-98.94
-89.56
-75.59
-59.05
-41.98
-25.83
-11.31
1.36
12.19
21.27
28.72
34.79
39.80
44.00
47.49
50.14
51.71
51.89
50.46
47.33
42.57
36.40
29.12
21.11
12.68
4.02
-4.78
-13.68
-22.52
-30.83
-37.85
-42.66
-44.48
-42.95
-38.31
-31.45
-23.56
-15.87
-9.25
-4.02
-0.03
3.07
5.52
7.20
7.66
6.40
3.33
-1.08
-5.78
-9.53
-11.37
-10.86
-8.10
-3.50
2.46
9.38
16.90
24.53
31.64
37.49
41.53
43.59
43.90
43.01
41.46
39.58
37.37
34.56
30.77
25.76
19.49
12.34
4.98
-1.70
-6.90
-10.06
-11.06
-10.24
-8.26
-5.92
-3.88
-2.51
-1.86
-1.73
-1.88
-2.18
-2.64
-3.34
-4.34
-5.52
-6.59
-7.26
-7.34
-6.98
-6.52
-6.45
-7.12
-8.54
-10.47
-12.50
-14.28
-15.65
-16.73
-17.75
-19.02
-20.78
-23.18
-26.38
-30.48
-35.51
-41.16
-46.72
-51.09
-53.01
-51.58
-46.52
-38.44
-28.54
-18.25
-8.70
-0.47
6.42
12.27
17.35
21.78
25.48
28.25
29.91
30.47
30.04
28.84
27.11
25.04
22.81
20.60
18.63
17.12
16.19
15.73
15.41
14.74
13.22
10.60
6.96
2.71
-1.62
-5.58
-9.05
-12.21
-15.53
-19.52
-24.48
-30.29
-36.32
-41.46
-44.46
-44.32
-40.59
-33.61
-24.37
-14.16
-4.19
4.70
12.12
18.04
22.61
26.00
28.33
29.71
30.26
30.13
29.46
28.40
27.00
25.33
23.45
21.48
19.60
18.02
16.89
16.27
16.02
15.84
15.27
13.87
11.40
7.90
3.75
-0.51
-4.29
-7.26
-9.46
-11.33
-13.50
-16.55
-20.75
-25.86
-31.11
-35.35
-37.39
-36.40
-32.13
-25.02
-16.01
-6.29
3.09
11.35
18.04
23.02
26.35
28.27
29.13
29.32
29.18
28.86
28.36
27.55
26.29
24.58
22.57
20.54
18.76
17.40
16.46
15.73
14.86
13.48
11.28
8.19
4.34
0.11
-4.09
-7.89
-11.10
-13.79
-16.22
-18.80
-21.94
-25.90
-30.60
-35.47
-39.49
-41.49
-40.47
-36.04
-28.60
-19.19
-9.22
0.01
7.64
13.36
17.29
19.83
21.44
22.44
23.01
23.22
23.08
22.60
21.88
21.04
20.16
19.24
18.23
17.07
15.73
14.28
12.82
11.37
9.85
8.13
6.15
3.88
1.49
-0.88
-3.15
-5.46
-8.12
-11.48
-15.73
-20.77
-26.04
-30.62
-33.43
-33.58
-30.68
-24.96
-17.29
-8.88
-0.85
6.02
11.44
15.52
18.56
20.84
22.46
23.40
23.58
22.98
21.67
19.93
18.13
16.64
15.79
15.68
16.22
17.10
17.85
18.04
17.36
15.81
13.63
11.28
9.27
7.97
7.47
7.45
7.32
6.39
4.15
0.60
-3.60
-7.16
-8.50
-6.13
0.72
11.69
25.09
38.10
47.46
50.51
46.05
34.75
18.80
0.96
-16.46
-32.37
-46.89
-60.76
-74.60
-88.37
-101.21
-111.68
-118.04
-118.74
-112.72
-99.84
-81.12
-58.65
-35.22
-13.72
3.61
15.55
21.94
23.40
20.93
15.63
8.58
0.81
-6.74
-13.24
-18.03
-20.65
-20.80
-18.39
-13.59
-6.78
1.42
10.26
18.96
26.79
33.18
37.77
40.51
41.60
41.51
40.80
39.99
39.37
38.88
38.18
36.80
34.37
30.90
26.73
22.48
18.69
15.66
13.27
11.06
8.54
5.43
1.77
-2.12
-5.91
-9.47
-12.89
-16.44
-20.37
-24.82
-29.76
-35.07
-40.45
-45.48
-49.50
-51.70
-51.33
-47.95
-41.70
-33.29
-23.81
-14.38
-5.85
1.35
7.17
11.75
15.33
18.15
20.33
21.96
23.00
23.36
22.97
21.85
20.16
18.23
16.41
14.94
13.86
13.00
12.06
10.80
9.05
6.79
4.06
0.96
-2.46
-6.10
-9.87
-13.71
-17.68
-21.98
-26.86
-32.46
-38.56
-44.45
-48.99
-50.94
-49.42
-44.23
-35.93
-25.73
-15.04
-5.02
3.64
10.78
16.61
21.37
25.18
28.03
29.83
30.57
30.34
29.39
27.95
26.22
24.33
22.42
20.60
18.98
17.55
16.19
14.61
12.57
9.91
6.72
3.19
-0.38
-3.83
-7.10
-10.34
-13.76
-17.61
-22.09
-27.33
-33.24
-39.45
-45.19
-49.39
-50.93
-48.97
-43.30
-34.47
-23.66
-12.31
-1.81
6.97
13.68
18.50
21.86
24.28
26.14
27.64
28.79
29.54
29.75
29.38
28.42
26.98
25.29
23.64
22.35
21.67
21.59
21.83
21.83
21.01
18.95
15.59
11.27
6.54
1.92
-2.28
-6.14
-9.97
-14.26
-19.41
-25.56
-32.40
-39.17
-44.69
-47.67
-47.09
-42.59
-34.62
-24.36
-13.29
-2.84
6.05
12.99
18.05
21.56
23.93
25.43
26.23
26.43
26.10
25.32
24.23
22.97
21.66
20.40
19.15
17.83
16.32
14.52
12.40
9.96
7.24
4.26
1.07
-2.24
-5.54
-8.71
-11.68
-14.52
-17.41
-20.66
-24.52
-28.99
-33.76
-38.04
-40.76
-40.87
-37.72
-31.35
-22.61
-12.90
-3.69
3.98
9.75
13.91
17.01
19.52
21.53
22.82
23.07
22.18
20.38
18.20
16.29
15.13
14.85
15.27
15.92
16.25
15.86
14.56
12.41
9.66
6.63
3.58
0.64
-2.15
-4.88
-7.74
-10.96
-14.75
-19.20
-24.21
-29.37
-33.92
-36.91
-37.40
-34.83
-29.29
-21.47
-12.50
-3.62
4.30
10.80
15.93
19.99
23.20
25.63
27.15
27.57
26.85
25.16
22.82
20.26
17.87
15.95
14.73
14.21
14.22
14.35
14.11
13.09
11.08
8.23
4.94
1.65
-1.29
-3.85
-6.20
-8.67
-11.63
-15.30
-19.66
-24.31
-28.48
-31.13
-31.24
-28.16
-21.83
-12.90
-2.38
8.57
19.07
28.62
37.11
44.57
51.01
56.31
60.25
62.76
64.05
64.62
65.23
66.64
69.33
73.34
78.23
83.07
86.63
87.54
84.45
76.42
63.15
45.04
23.02
-1.81
-28.67
-57.22
-87.37
-118.66
-149.58
-177.28
-197.98
-208.00
-205.14
-189.51
-163.55
-131.10
-96.19
-61.95
-30.37
-2.61
20.36
37.44
47.68
50.92
48.38
42.52
36.37
32.39
31.68
33.78
37.11
39.84
40.61
39.03
35.52
31.05
26.58
22.79
19.89
17.68
15.74
13.63
11.05
7.95
4.55
1.14
-2.06
-4.98
-7.79
-10.80
-14.33
-18.64
-23.79
-29.59
-35.64
-41.25
-45.59
-47.79
-47.21
-43.63
-37.37
-29.20
-20.08
-10.93
-2.44
5.04
11.33
16.43
20.43
23.42
25.54
26.92
27.67
27.85
27.53
26.74
25.62
24.31
22.97
21.70
20.59
19.58
18.51
17.18
15.31
12.76
9.48
5.64
1.53
-2.50
-6.25
-9.66
-12.93
-16.37
-20.30
-24.85
-29.83
-34.64
-38.37
-40.05
-38.92
-34.74
-27.89
-19.26
-9.99
-1.12
6.63
12.97
17.89
21.61
24.35
26.27
27.45
27.89
27.59
26.57
25.00
23.12
21.19
19.47
18.07
17.00
16.19
15.47
14.67
13.53
11.80
9.37
6.28
2.78
-0.74
-3.96
-6.77
-9.36
-12.14
-15.58
-19.89
-24.92
-30.11
-34.61
-37.49
-37.97
-35.62
-30.50
-23.13
-14.41
-5.38
2.99
10.07
15.60
19.64
22.43
24.18
25.01
24.97
24.13
22.66
20.86
19.05
17.49
16.32
15.50
14.90
14.35
13.65
12.59
11.01
8.80
5.95
2.60
-0.94
-4.35
-7.36
-9.97
-12.38
-15.02
-18.36
-22.71
-28.01
-33.74
-38.99
-42.66
-43.77
-41.74
-36.64
-29.11
-20.23
-11.21
-3.04
3.66
8.76
12.43
14.99
16.67
17.57
17.69
17.04
15.78
14.22
12.75
11.72
11.25
11.23
11.36
11.26
10.63
9.38
7.54
5.27
2.74
0.07
-2.72
-5.63
-8.73
-12.13
-15.97
-20.40
-25.55
-31.24
-36.98
-41.90
-44.92
-45.17
-42.23
-36.33
-28.29
-19.22
-10.21
-2.04
4.88
10.51
14.96
18.45
21.11
23.04
24.28
24.78
24.51
23.48
21.85
19.91
17.95
16.24
14.86
13.73
12.66
11.43
9.93
8.13
6.04
3.64
0.86
-2.40
-6.22
-10.61
-15.48
-20.69
-26.15
-31.78
-37.39
-42.56
-46.63
-48.69
-47.95
-43.99
-37.04
-27.93
-17.87
-8.10
0.49
7.53
13.08
17.46
20.98
23.82
25.95
27.25
27.62
27.10
25.93
24.46
23.04
21.85
20.87
19.96
18.94
17.69
16.19
14.44
12.41
9.98
7.01
3.45
-0.63
-5.00
-9.38
-13.60
-17.67
-21.84
-26.36
-31.25
-36.15
-40.21
-42.40
-41.80
-38.00
-31.29
-22.58
-13.05
-3.87
4.19
10.82
16.12
20.46
24.12
27.19
29.55
30.97
31.29
30.62
29.28
27.71
26.28
25.13
24.20
23.33
22.31
21.04
19.41
17.30
14.60
11.27
7.44
3.39
-0.56
-4.21
-7.55
-10.69
-13.85
-17.27
-21.15
-25.63
-30.63
-35.69
-39.96
-42.27
-41.59
-37.37
-29.86
-20.15
-9.71
0.05
8.24
14.64
19.47
23.11
25.81
27.68
28.70
28.92
28.48
27.57
26.33
24.85
23.16
21.29
19.41
17.76
16.56
15.81
15.30
14.57
13.15
10.78
7.40
3.28
-1.21
-5.65
-9.76
-13.40
-16.61
-19.60
-22.67
-26.13
-30.09
-34.33
-38.16
-40.55
-40.50
-37.42
-31.34
-22.97
-13.45
-3.92
4.71
11.96
17.69
21.97
24.90
26.57
27.07
26.53
25.21
23.41
21.46
19.64
18.10
16.89
15.98
15.29
14.78
14.34
13.82
12.97
11.54
9.36
6.39
2.77
-1.33
-5.67
-10.12
-14.56
-19.01
-23.51
-28.13
-32.87
-37.46
-41.34
-43.69
-43.71
-40.88
-35.26
-27.43
-18.36
-9.03
-0.17
7.72
14.44
19.94
24.22
27.32
29.31
30.26
30.27
29.46
28.04
26.37
24.88
23.91
23.56
23.67
23.83
23.58
22.64
20.99
18.82
16.40
13.94
11.56
9.32
7.22
5.12
2.74
-0.38
-4.65
-10.18
-16.56
-22.82
-27.66
-29.92
-28.95
-24.85
-18.44
-10.91
-3.49
2.90
7.83
11.30
13.63
15.20
16.30
16.99
17.30
17.24
16.98
16.83
17.07
17.82
18.86
19.84
20.39
20.39
20.07
19.86
20.22
21.35
23.01
24.67
25.71
25.76
24.85
23.39
21.97
21.02
20.58
20.31
19.73
18.62
17.30
16.71
18.12
22.69
31.16
43.65
59.82
78.93
99.68
119.98
136.83
146.77
146.59
134.36
109.98
75.24
33.13
-12.95
-59.76
-104.35
-143.79
-175.12
-195.49
-202.84
-196.71
-178.70
-152.32
-122.25
-93.12
-68.56
-50.40
-38.64
-31.96
-28.51
-26.70
-25.67
-25.27
-25.77
-27.43
-30.22
-33.74
-37.29
-40.11
-41.51
-40.93
-38.05
-32.86
-25.63
-16.92
-7.50
1.75
10.07
16.91
22.01
25.40
27.29
28.07
28.13
27.84
27.40
26.85
26.02
24.66
22.56
19.77
16.59
13.51
10.95
9.07
7.61
5.98
3.50
-0.34
-5.61
-11.95
-18.65
-24.94
-30.25
-34.38
-37.62
-40.59
-44.18
-49.07
-55.45
-62.74
-69.58
-74.13
-74.64
-70.10
-60.51
-46.89
-30.86
-14.04
2.27
17.34
30.73
42.16
51.35
58.12
62.48
64.73
65.33
64.74
63.25
61.04
58.19
54.88
51.39
48.05
45.12
42.70
40.72
39.02
37.40
35.65
33.59
31.05
27.97
24.41
20.64
17.03
13.89
11.30
8.98
6.45
3.23
-0.79
-5.02
-8.29
-9.09
-6.12
1.19
12.43
26.19
40.32
52.48
60.62
63.50
61.04
54.29
45.01
35.15
26.25
19.06
13.55
9.18
5.24
1.18
-3.22
-7.87
-12.36
-16.19
-18.90
-20.26
-20.43
-19.91
-19.31
-19.19
-19.78
-21.03
-22.76
-24.82
-27.18
-29.93
-33.17
-36.89
-40.98
-45.10
-48.78
-51.42
-52.40
-51.18
-47.53
-41.58
-33.88
-25.25
-16.52
-8.37
-1.23
4.73
9.46
12.92
15.10
16.01
15.77
14.67
13.10
11.51
10.20
9.29
8.68
8.16
7.53
6.68
5.63
4.40
3.00
1.31
-0.80
-3.42
-6.48
-9.79
-13.10
-16.22
-19.19
-22.22
-25.60
-29.53
-33.98
-38.54
-42.52
-45.07
-45.40
-43.05
-38.06
-30.97
-22.70
-14.29
-6.55
0.03
5.37
9.64
13.09
15.90
18.16
19.85
20.94
21.36
21.15
20.39
19.26
17.98
16.77
15.78
15.02
14.35
13.55
12.38
10.64
8.24
5.17
1.49
-2.66
-7.06
-11.48
-15.72
-19.77
-23.79
-28.07
-32.82
-37.95
-42.94
-46.86
-48.66
-47.45
-42.88
-35.26
-25.56
-15.05
-5.01
3.69
10.68
16.04
20.10
23.20
25.58
27.36
28.57
29.26
29.48
29.23
28.46
27.06
24.94
22.19
19.09
16.05
13.48
11.56
10.20
9.08
7.77
5.98
3.63
0.87
-2.05
-4.96
-7.84
-10.88
-14.40
-18.68
-23.77
-29.40
-34.87
-39.18
-41.23
-40.19
-35.87
-28.76
-19.99
-10.83
-2.39
4.71
10.42
14.97
18.72
21.85
24.40
26.25
27.31
27.56
27.05
25.94
24.33
22.35
20.17
17.99
16.02
14.44
13.20
12.12
10.84
9.04
6.56
3.46
-0.01
-3.55
-6.96
-10.18
-13.30
-16.47
-20.00
-24.12
-28.97
-34.37
-39.70
-43.89
-45.67
-44.05
-38.68
-30.11
-19.62
-8.84
0.80
8.48
14.09
18.06
21.02
23.46
25.54
27.17
28.14
28.34
27.83
26.76
25.40
23.95
22.57
21.40
20.61
20.29
20.33
20.37
19.89
18.39
15.60
11.65
6.99
2.17
-2.33
-6.32
-9.90
-13.40
-17.23
-21.77
-27.20
-33.25
-39.20
-43.92
-46.24
-45.31
-40.96
-33.78
-24.88
-15.52
-6.72
0.88
7.06
11.82
15.33
17.78
19.35
20.17
20.34
19.92
18.93
17.53
15.93
14.43
13.32
12.77
12.73
12.97
13.19
13.04
12.30
10.88
8.80
6.17
3.15
-0.06
-3.27
-6.36
-9.33
-12.35
-15.75
-19.83
-24.70
-30.01
-34.93
-38.28
-38.97
-36.36
-30.54
-22.34
-13.02
-3.92
3.95
10.12
14.59
17.72
19.99
21.76
23.16
24.04
24.09
23.04
20.80
17.70
14.27
11.16
8.83
7.44
6.80
6.55
6.32
5.85
5.01
3.76
2.13
0.15
-2.18
-4.85
-7.93
-11.56
-15.91
-21.09
-26.96
-33.04
-38.48
-42.27
-43.54
-41.80
-37.17
-30.36
-22.33
-14.06
-6.22
0.93
7.40
13.23
18.35
22.48
25.29
26.59
26.48
25.39
23.87
22.46
21.48
20.99
20.81
20.69
20.40
19.78
18.75
17.28
15.37
13.00
10.16
6.95
3.55
0.19
-3.01
-6.04
-9.14
-12.68
-16.99
-22.07
-27.43
-32.07
-34.72
-34.28
-30.24
-22.80
-12.87
-1.69
9.53
19.89
28.90
36.41
42.41
47.04
50.48
53.08
55.18
57.13
59.04
60.86
62.36
63.43
64.12
64.68
65.50
66.88
68.96
71.61
74.58
77.40
79.25
78.94
74.91
65.66
50.14
28.28
0.99
-30.14
-63.36
-97.14
-130.14
-160.93
-187.58
-207.57
-218.14
-216.94
-202.86
-176.56
-140.58
-98.83
-55.89
-16.09
17.22
42.16
58.30
66.41
68.01
64.95
59.15
52.37
46.13
41.47
38.83
37.93
38.00
38.07
37.36
35.50
32.57
28.91
24.88
20.66
16.27
11.64
6.70
1.53
-3.74
-8.97
-14.07
-19.15
-24.39
-29.92
-35.62
-40.96
-45.06
-46.98
-45.95
-41.77
-34.84
-26.09
-16.59
-7.26
1.31
8.91
15.52
21.13
25.66
28.97
30.97
31.75
31.49
30.44
28.86
26.98
25.00
23.19
21.75
20.79
20.26
19.82
19.00
17.35
14.65
11.04
6.93
2.81
-0.97
-4.30
-7.32
-10.36
-13.75
-17.82
-22.73
-28.41
-34.43
-39.99
-44.05
-45.64
-44.13
-39.49
-32.28
-23.39
-13.85
-4.55
3.87
11.07
16.85
21.24
24.37
26.41
27.54
27.90
27.57
26.65
25.31
23.74
22.18
20.79
19.60
18.53
17.41
16.02
14.14
11.63
8.46
4.69
0.55
-3.63
-7.53
-10.94
-13.83
-16.43
-19.21
-22.61
-26.85
-31.72
-36.46
-39.95
-41.04
-38.98
-33.72
-25.90
-16.70
-7.40
0.98
7.87
13.17
17.11
19.98
21.96
23.09
23.35
22.76
21.50
19.92
18.46
17.44
16.97
16.92
16.97
16.79
16.12
14.87
13.05
10.77
8.12
5.18
2.02
-1.30
-4.77
-8.43
-12.39
-16.79
-21.69
-26.94
-32.14
-36.57
-39.34
-39.65
-37.01
-31.47
-23.62
-14.50
-5.31
2.91
9.52
14.37
17.72
19.95
21.42
22.29
22.55
22.13
21.01
19.32
17.31
15.28
13.44
11.84
10.41
9.03
7.49
5.60
3.25
0.39
-2.91
-6.47
-10.05
-13.44
-16.49
-19.16
-21.66
-24.34
-27.63
-31.84
-36.87
-42.09
-46.39
-48.48
-47.37
-42.79
-35.28
-25.99
-16.19
-6.93
1.16
7.84
13.09
17.02
19.81
21.74
23.07
24.03
24.71
25.05
24.97
24.46
23.64
22.74
21.96
21.34
20.70
19.80
18.42
16.48
14.06
11.34
8.47
5.51
2.38
-1.11
-5.13
-9.83
-15.19
-21.07
-27.15
-32.95
-37.80
-40.95
-41.74
-39.72
-34.88
-27.66
-18.86
-9.49
-0.50
7.46
14.01
19.14
22.99
25.78
27.72
28.96
29.60
29.76
29.50
28.88
27.93
26.69
25.27
23.75
22.21
20.66
19.02
17.11
14.77
11.93
8.61
4.90
0.92
-3.22
-7.39
-11.46
-15.34
-19.05
-22.82
-26.97
-31.73
-36.90
-41.70
-44.95
-45.43
-42.40
-35.97
-27.06
-17.07
-7.33
1.30
8.58
14.64
19.72
23.90
27.10
29.19
30.17
30.28
29.90
29.35
28.78
28.12
27.22
26.02
24.56
23.10
21.86
20.91
20.08
18.95
17.09
14.19
10.23
5.54
0.66
-3.91
-7.87
-11.26
-14.41
-17.87
-22.06
-27.12
-32.78
-38.32
-42.77
-45.13
-44.68
-41.18
-34.91
-26.54
-17.02
-7.33
1.71
9.53
15.88
20.77
24.43
27.13
29.07
30.32
30.82
30.48
29.25
27.25
24.74
22.01
19.32
16.87
14.78
13.09
11.77
10.63
9.40
7.75
5.50
2.59
-0.80
-4.39
-7.92
-11.27
-14.46
-17.66
-21.14
-25.14
-29.81
-35.04
-40.41
-45.08
-47.95
-48.00
-44.67
-38.16
-29.34
-19.51
-9.95
-1.48
5.58
11.34
16.09
20.01
23.10
25.25
26.31
26.27
25.34
23.87
22.31
21.06
20.33
20.14
20.22
20.21
19.68
18.31
16.01
12.88
9.25
5.51
2.01
-1.06
-3.72
-6.17
-8.75
-11.83
-15.76
-20.61
-26.14
-31.62
-36.04
-38.30
-37.62
-33.86
-27.55
-19.74
-11.62
-4.14
2.14
7.17
11.15
14.34
16.86
18.64
19.47
19.19
17.85
15.78
13.48
11.53
10.32
10.00
10.37
10.98
11.31
10.93
9.64
7.48
4.71
1.65
-1.43
-4.37
-7.20
-10.07
-13.17
-16.69
-20.82
-25.55
-30.74
-35.93
-40.42
-43.33
-43.83
-41.36
-35.91
-28.03
-18.71
-9.20
-0.63
6.27
11.31
14.77
17.12
18.79
19.94
20.54
20.49
19.81
18.69
17.48
16.47
15.83
15.46
15.14
14.60
13.68
12.31
10.57
8.52
6.20
3.56
0.46
-3.20
-7.44
-12.14
-17.10
-22.18
-27.40
-32.82
-38.41
-43.76
-48.06
-50.23
-49.39
-45.27
-38.41
-29.99
-21.45
-13.94
-8.04
-3.67
-0.38
2.32
4.63
6.36
7.14
6.55
4.49
1.19
-2.78
-6.63
-9.51
-10.73
-9.80
-6.64
-1.69
4.18
9.71
13.68
15.21
14.11
10.89
6.54
2.20
-1.22
-3.27
-4.01
-3.86
-3.56
-3.86
-5.30
-7.97
-11.40
-14.58
-16.31
-15.51
-11.52
-4.27
5.79
17.80
30.62
42.93
53.44
61.12
65.45
66.65
65.59
63.49
61.42
59.90
58.86
57.88
56.64
55.22
54.11
53.89
54.88
56.87
59.35
61.74
63.69
65.19
66.41
67.53
68.66
69.79
70.75
71.04
69.50
64.30
53.38
35.46
11.05
-16.98
-43.95
-64.85
-76.12
-76.92
-69.23
-56.87
-43.84
-32.99
-25.41
-20.69
-17.79
-15.65
-13.74
-11.99
-10.62
-9.87
-9.84
-10.36
-11.13
-11.79
-12.11
-12.15
-12.32
-13.35
-16.12
-21.38
-29.44
-40.02
-52.12
-64.25
-74.79
-82.31
-85.96
-85.65
-82.19
-77.15
-72.60
-70.58
-72.59
-79.06
-88.97
-100.05
-109.25
-113.63
-111.26
-101.71
-86.15
-66.78
-46.06
-25.88
-7.32
9.38
24.33
37.71
49.71
60.51
70.22
78.56
84.55
86.52
82.83
72.88
58.03
41.69
28.13
20.79
20.67
25.95
33.13
38.94
42.09
43.72
46.37
52.07
60.84
70.29
76.66
76.73
69.68
57.59
44.82
36.16
34.98
42.19
56.22
73.92
91.89
107.38
118.84
125.97
129.56
131.13
132.35
134.17
136.13
136.19
131.33
118.77
97.31
67.93
33.48
-2.42
-36.49
-66.41
-90.64
-107.95
-117.20
-117.66
-109.84
-96.06
-80.26
-67.03
-60.10
-61.24
-69.87
-83.63
-99.40
-114.27
-125.97
-132.96
-134.14
-128.76
-116.62
-98.35
-75.62
-50.90
-27.08
-6.66
8.83
19.02
24.54
26.56
26.23
24.26
20.86
15.84
9.05
0.67
-8.44
-16.93
-23.29
-26.40
-25.93
-22.40
-17.03
-11.18
-6.09
-2.46
-0.56
-0.32
-1.50
-3.88
-7.21
-11.28
-15.92
-21.03
-26.53
-32.15
-37.33
-41.13
-42.45
-40.37
-34.59
-25.56
-14.44
-2.60
8.75
18.81
27.08
33.22
36.83
37.68
35.98
32.63
29.10
27.01
27.37
30.25
34.76
39.57
43.54
46.11
47.36
47.54
46.75
44.66
40.80
34.91
27.31
18.87
10.67
3.54
-2.31
-7.24
-11.95
-17.08
-23.01
-29.72
-36.94
-44.18
-50.71
-55.62
-57.84
-56.45
-51.01
-41.86
-30.15
-17.42
-5.23
5.46
14.26
21.32
26.94
31.33
34.44
36.08
36.14
34.70
32.18
29.18
26.32
24.06
22.57
21.72
21.15
20.48
19.35
17.53
14.89
11.41
7.23
2.58
-2.16
-6.60
-10.45
-13.73
-16.79
-20.23
-24.65
-30.30
-36.82
-43.33
-48.60
-51.44
-51.10
-47.47
-41.06
-32.81
-23.74
-14.72
-6.28
1.41
8.46
15.06
21.31
27.09
32.05
35.69
37.50
37.25
35.02
31.28
26.66
21.86
17.36
13.45
10.25
7.73
5.81
4.29
2.89
1.27
-0.91
-3.89
-7.75
-12.41
-17.69
-23.37
-29.19
-34.78
-39.59
-42.91
-44.05
-42.52
-38.22
-31.53
-23.23
-14.27
-5.53
2.42
9.28
15.04
19.74
23.40
25.93
27.24
27.28
26.18
24.18
21.72
19.29
17.30
15.98
15.22
14.71
14.00
12.75
10.84
8.31
5.33
2.03
-1.61
-5.62
-9.96
-14.52
-19.11
-23.59
-27.90
-31.94
-35.40
-37.70
-38.03
-35.71
-30.49
-22.77
-13.48
-3.84
5.08
12.58
18.38
22.55
25.25
26.63
26.78
25.80
23.86
21.31
18.63
16.28
14.63
13.73
13.36
13.10
12.53
11.34
9.53
7.25
4.74
2.20
-0.32
-2.90
-5.69
-8.80
-12.28
-16.16
-20.34
-24.64
-28.67
-31.84
-33.42
-32.70
-29.29
-23.27
-15.28
-6.32
2.50
10.31
16.64
21.40
24.73
26.77
27.58
27.10
25.42
22.84
19.92
17.35
15.63
14.91
14.81
14.60
13.50
11.00
7.09
2.26
-2.74
-7.22
-10.86
-13.76
-16.28
-18.85
-21.78
-25.17
-28.98
-33.07
-37.10
-40.54
-42.60
-42.37
-39.17
-32.90
-24.20
-14.35
-4.81
3.27
9.32
13.45
16.14
17.87
18.89
19.16
18.56
17.15
15.22
13.26
11.77
10.99
10.83
10.98
11.08
10.88
10.39
9.72
9.06
8.47
7.85
6.96
5.41
2.81
-1.22
-6.87
-13.95
-21.82
-29.39
-35.33
-38.43
-37.99
-33.95
-26.97
-18.06
-8.31
1.28
10.01
17.33
22.83
26.22
27.37
26.40
23.66
19.70
15.06
10.27
5.66
1.38
-2.57
-6.22
-9.59
-12.62
-15.18
-17.23
-18.81
-20.19
-21.82
-24.19
-27.78
-32.73
-38.80
-45.25
-50.99
-54.79
-55.61
-52.86
-46.56
-37.39
-26.41
-14.80
-3.64
6.26
14.40
20.47
24.32
25.96
25.50
23.23
19.66
15.44
11.28
7.82
5.41
4.09
3.60
3.49
3.34
2.84
1.90
0.57
-1.03
-2.82
-4.80
-7.08
-9.86
-13.42
-18.04
-23.82
-30.46
-37.17
-42.70
-45.64
-44.92
-40.14
-31.74
-20.93
-9.22
1.99
11.75
19.62
25.64
30.03
33.01
34.80
35.56
35.53
35.03
34.35
33.59
32.58
30.87
27.99
23.67
18.08
11.85
5.83
0.82
-2.82
-5.20
-6.80
-8.33
-10.43
-13.59
-18.02
-23.67
-30.05
-36.33
-41.38
-44.05
-43.53
-39.63
-32.79
-24.02
-14.43
-4.97
3.74
11.43
17.99
23.36
27.41
30.01
31.10
30.75
29.21
26.83
24.12
21.54
19.40
17.82
16.66
15.61
14.36
12.67
10.49
7.90
4.95
1.66
-1.97
-5.98
-10.35
-15.08
-20.17
-25.64
-31.30
-36.67
-40.97
-43.21
-42.54
-38.67
-31.87
-23.02
-13.27
-3.64
5.15
12.75
19.09
24.15
27.89
30.28
31.33
31.19
30.14
28.60
27.01
25.72
24.91
24.55
24.48
24.40
24.04
23.14
21.59
19.42
16.82
14.03
11.23
8.44
5.48
2.07
-2.05
-7.01
-12.81
-19.24
-25.90
-32.18
-37.22
-40.00
-39.62
-35.58
-28.06
-17.94
-6.71
4.04
13.06
19.71
24.08
26.77
28.51
29.91
31.30
32.69
33.98
35.03
35.77
36.16
36.24
35.96
35.36
34.48
33.44
32.29
30.98
29.27
26.88
23.59
19.39
14.46
9.15
3.85
-1.17
-5.76
-9.89
-13.65
-17.24
-20.91
-24.78
-28.72
-32.21
-34.39
-34.29
-31.22
-25.11
-16.58
-6.79
2.98
11.70
18.73
23.91
27.24
28.93
29.16
28.24
26.56
24.65
22.99
21.93
21.61
21.92
22.59
23.22
23.47
23.10
22.03
20.32
18.15
15.72
13.21
10.74
8.39
6.13
3.84
1.32
-1.76
-5.79
-11.14
-17.95
-26.12
-34.98
-43.47
-50.15
-53.64
-52.90
-47.71
-38.73
-27.36
-15.30
-4.06
5.43
12.93
18.71
23.18
26.64
29.14
30.60
30.95
30.31
29.01
27.44
25.91
24.64
23.69
23.07
22.79
22.76
22.82
22.58
21.62
19.50
16.07
11.46
6.14
0.72
-4.24
-8.49
-12.17
-15.79
-20.01
-25.36
-31.88
-39.02
-45.64
-50.27
-51.62
-48.97
-42.44
-32.94
-21.89
-10.87
-1.15
6.51
11.96
15.49
17.62
18.84
19.53
19.90
20.03
19.96
19.71
19.27
18.67
17.95
17.22
16.66
16.47
16.71
17.21
17.57
17.25
15.83
13.16
9.38
4.78
-0.33
-5.80
-11.53
-17.45
-23.43
-29.24
-34.66
-39.52
-43.58
-46.49
-47.73
-46.72
-43.09
-36.97
-28.99
-20.22
-11.74
-4.35
1.67
6.42
10.21
13.25
15.51
16.89
17.33
16.97
16.14
15.30
14.77
14.72
15.05
15.51
15.77
15.53
14.61
12.95
10.57
7.58
4.09
0.19
-4.06
-8.57
-13.25
-17.94
-22.38
-26.31
-29.60
-32.25
-34.49
-36.61
-38.69
-40.40
-41.01
-39.56
-35.30
-28.07
-18.51
-7.86
2.42
11.13
17.64
21.94
24.38
25.39
25.29
24.33
22.73
20.84
19.03
17.58
16.58
15.84
15.09
14.06
12.70
11.18
9.74
8.55
7.62
6.74
5.61
3.94
1.56
-1.55
-5.26
-9.31
-13.37
-17.15
-20.43
-23.28
-25.99
-29.02
-32.73
-37.10
-41.70
-45.69
-48.08
-47.96
-44.89
-38.85
-30.39
-20.45
-10.14
-0.50
7.76
14.28
19.11
22.43
24.48
25.39
25.25
24.26
22.82
21.41
20.50
20.26
20.57
21.10
21.56
21.80
21.90
21.96
22.02
21.90
21.32
20.00
17.83
14.90
11.47
7.89
4.47
1.42
-1.19
-3.51
-5.81
-8.48
-11.83
-15.93
-20.47
-24.72
-27.74
-28.60
-26.79
-22.38
-16.02
-8.70
-1.34
5.36
11.18
16.09
20.18
23.43
25.73
26.90
26.93
25.94
24.24
22.19
20.14
18.28
16.69
15.30
13.96
12.49
10.69
8.48
5.89
3.01
0.01
-3.07
-6.24
-9.66
-13.45
-17.60
-21.83
-25.67
-28.57
-30.11
-30.23
-29.22
-27.71
-26.47
-26.16
-27.15
-29.33
-32.12
-34.58
-35.70
-34.71
-31.32
-25.80
-18.85
-11.30
-3.84
3.04
9.07
14.14
18.16
21.08
22.93
23.85
24.08
23.92
23.69
23.59
23.70
23.87
23.82
23.26
22.04
20.29
18.36
16.69
15.47
14.60
13.58
11.85
9.02
5.06
0.39
-4.40
-8.66
-12.07
-14.62
-16.70
-18.91
-21.87
-26.02
-31.36
-37.45
-43.38
-48.04
-50.32
-49.45
-45.24
-38.13
-29.11
-19.44
-10.31
-2.54
3.51
7.96
11.08
13.15
14.35
14.76
14.48
13.69
12.68
11.69
10.90
10.32
9.84
9.36
8.88
8.54
8.53
9.01
9.84
10.61
10.69
9.39
6.30
1.48
-4.43
-10.42
-15.47
-18.95
-20.86
-21.85
-22.97
-25.13
-28.78
-33.56
-38.42
-42.02
-43.18
-41.40
-36.91
-30.53
-23.30
-16.00
-9.04
-2.38
4.16
10.75
17.43
24.06
30.47
36.44
41.80
46.40
50.21
53.25
55.54
57.01
57.42
56.40
53.65
49.18
43.48
37.46
32.17
28.51
26.81
26.72
27.30
27.33
25.67
21.58
14.77
5.35
-6.37
-20.05
-35.33
-51.64
-67.94
-82.68
-93.91
-99.90
-99.74
-93.83
-83.80
-72.02
-60.78
-51.61
-44.92
-40.13
-36.20
-32.10
-27.23
-21.49
-15.17
-8.75
-2.79
2.26
6.04
8.40
9.42
9.38
8.70
7.86
7.29
7.30
7.96
9.08
10.20
10.73
10.12
8.13
4.93
1.11
-2.58
-5.48
-7.31
-8.31
-9.12
-10.55
-13.26
-17.44
-22.71
-28.19
-32.73
-35.17
-34.72
-31.09
-24.55
-15.80
-5.86
4.20
13.43
21.14
27.01
31.05
33.61
35.13
36.07
36.75
37.29
37.69
37.79
37.44
36.53
35.08
33.31
31.65
30.55
30.36
31.06
32.15
32.84
32.34
30.21
26.57
21.99
17.32
13.28
10.30
8.28
6.69
4.59
0.82
-5.65
-15.34
-27.89
-41.93
-55.27
-65.60
-71.13
-71.18
-66.22
-57.60
-46.88
-35.43
-24.17
-13.62
-4.11
4.17
11.13
16.84
21.52
25.47
28.87
31.72
33.82
34.87
34.72
33.42
31.31
28.94
26.92
25.76
25.68
26.46
27.46
27.80
26.64
23.52
18.57
12.46
6.14
0.48
-4.07
-7.52
-10.25
-12.80
-15.71
-19.31
-23.73
-28.78
-33.98
-38.50
-41.33
-41.55
-38.56
-32.37
-23.57
-13.21
-2.53
7.39
15.79
22.32
26.99
30.09
32.05
33.22
33.87
34.06
33.78
32.97
31.62
29.75
27.55
25.32
23.43
22.25
21.99
22.58
23.52
24.07
23.41
21.04
16.95
11.63
5.91
0.53
-4.05
-7.87
-11.21
-14.54
-18.26
-22.66
-27.82
-33.61
-39.53
-44.75
-48.14
-48.53
-45.07
-37.62
-26.91
-14.34
-1.54
10.06
19.60
26.82
31.86
35.00
36.59
36.95
36.49
35.62
34.69
33.88
33.11
32.09
30.49
28.17
25.22
21.94
18.81
16.24
14.46
13.32
12.40
11.04
8.68
5.09
0.50
-4.52
-9.34
-13.49
-16.94
-19.98
-23.05
-26.51
-30.46
-34.79
-39.14
-42.93
-45.41
-45.89
-43.76
-38.87
-31.54
-22.59
-13.10
-4.06
3.80
10.18
15.07
18.63
21.05
22.43
22.82
22.24
20.76
18.55
15.94
13.28
10.97
9.19
7.92
6.99
6.16
5.36
4.63
4.16
4.07
4.32
4.64
4.69
4.25
3.23
1.72
-0.31
-3.09
-7.07
-12.62
-19.66
-27.44
-34.66
-39.77
-41.57
-39.57
-34.12
-26.15
-16.85
-7.32
1.58
9.28
15.44
19.98
23.00
24.80
25.73
26.04
25.84
25.13
23.94
22.44
20.90
19.58
18.62
17.94
17.33
16.60
15.66
14.47
13.07
11.36
9.19
6.42
3.03
-0.78
-4.66
-8.24
-11.28
-13.84
-16.23
-18.95
-22.53
-27.25
-32.93
-38.87
-43.89
-46.68
-46.22
-42.12
-34.81
-25.28
-14.85
-4.67
4.40
11.92
17.76
22.02
24.90
26.67
27.63
28.09
28.26
28.25
28.08
27.71
27.11
26.29
25.31
24.22
23.08
21.92
20.79
19.68
18.61
17.52
16.29
14.79
12.85
10.44
7.61
4.53
1.46
-1.40
-3.98
-6.39
-8.97
-12.11
-16.16
-21.11
-26.50
-31.40
-34.65
-35.26
-32.73
-27.32
-19.86
-11.51
-3.31
4.01
10.16
15.13
19.01
21.92
23.97
25.24
25.80
25.68
24.87
23.35
21.20
18.60
15.81
13.12
10.72
8.74
7.26
6.34
6.06
6.40
7.24
8.28
9.10
9.39
9.02
8.05
6.69
5.08
3.17
0.77
-2.39
-6.55
-11.79
-18.03
-25.09
-32.56
-39.86
-46.17
-50.57
-52.20
-50.62
-45.93
-38.79
-30.27
-21.48
-13.30
-6.21
-0.32
4.50
8.45
11.70
14.36
16.54
18.39
20.04
21.57
22.99
24.15
24.90
25.11
24.83
24.21
23.46
22.76
22.10
21.34
20.29
18.82
16.88
14.48
11.61
8.19
4.19
-0.31
-4.96
-9.28
-12.83
-15.46
-17.42
-19.27
-21.71
-25.21
-29.92
-35.52
-41.32
-46.41
-49.77
-50.58
-48.39
-43.33
-36.09
-27.73
-19.32
-11.63
-4.94
0.84
5.95
10.54
14.50
17.63
19.80
21.11
21.93
22.73
23.76
25.00
26.13
26.73
26.51
25.44
23.82
22.05
20.47
19.18
18.01
16.61
14.69
12.10
8.92
5.37
1.68
-1.95
-5.40
-8.58
-11.48
-14.25
-17.19
-20.75
-25.20
-30.45
-35.81
-40.17
-42.31
-41.42
-37.43
-30.91
-22.88
-14.32
-5.96
1.77
8.65
14.50
19.18
22.55
24.60
25.47
25.44
24.80
23.86
22.82
21.71
20.51
19.17
17.71
16.28
15.12
14.47
14.35
14.52
14.52
13.83
12.20
9.71
6.73
3.71
0.98
-1.39
-3.57
-5.83
-8.40
-11.48
-15.17
-19.44
-24.15
-28.90
-33.06
-35.85
-36.50
-34.54
-29.93
-23.12
-14.96
-6.50
1.21
7.37
11.54
13.67
14.05
13.12
11.34
9.07
6.60
4.13
1.84
-0.13
-1.64
-2.60
-2.99
-2.80
-2.09
-0.98
0.33
1.50
2.17
1.95
0.65
-1.66
-4.69
-8.02
-11.29
-14.32
-17.18
-20.15
-23.56
-27.53
-31.91
-36.17
-39.49
-41.00
-40.05
-36.46
-30.52
-23.01
-14.83
-6.82
0.45
6.69
11.80
15.70
18.32
19.57
19.49
18.23
16.11
13.47
10.67
8.02
5.79
4.19
3.30
3.06
3.30
3.63
3.64
2.89
1.07
-1.80
-5.47
-9.46
-13.26
-16.54
-19.34
-22.01
-25.08
-28.98
-33.73
-38.88
-43.45
-46.34
-46.51
-43.39
-36.98
-27.94
-17.41
-6.74
2.85
10.62
16.30
20.08
22.41
23.71
24.31
24.37
24.00
23.33
22.53
21.78
21.18
20.71
20.26
19.65
18.85
17.81
16.60
15.20
13.57
11.57
9.07
6.01
2.43
-1.52
-5.65
-9.97
-14.64
-19.98
-26.21
-33.22
-40.41
-46.72
-50.91
-51.94
-49.31
-43.23
-34.53
-24.39
-14.03
-4.43
3.80
10.43
15.59
19.58
22.72
25.20
27.09
28.30
28.75
28.46
27.55
26.20
24.60
22.90
21.22
19.68
18.40
17.45
16.75
16.07
14.99
13.17
10.42
6.79
2.55
-1.98
-6.47
-10.72
-14.63
-18.34
-22.14
-26.46
-31.63
-37.60
-43.71
-48.73
-51.23
-50.04
-44.82
-36.15
-25.39
-14.11
-3.59
5.50
13.06
19.34
24.62
29.04
32.58
35.22
36.97
37.99
38.47
38.58
38.40
37.96
37.26
36.38
35.48
34.74
34.22
33.82
33.26
32.23
30.50
28.02
24.91
21.36
17.49
13.35
8.92
4.18
-0.75
-5.69
-10.37
-14.65
-18.53
-22.20
-26.08
-30.63
-36.10
-42.34
-48.62
-53.76
-56.39
-55.47
-50.65
-42.41
-31.92
-20.53
-9.48
0.50
9.11
16.35
22.30
27.04
30.63
33.17
34.88
35.95
36.60
36.96
37.12
37.19
37.29
37.52
37.90
38.29
38.45
38.20
37.38
35.96
34.04
31.72
29.11
26.28
23.30
20.17
16.90
13.42
9.74
5.89
1.99
-1.81
-5.44
-8.98
-12.62
-16.62
-21.21
-26.53
-32.61
-39.35
-46.39
-53.06
-58.35
-61.05
-60.23
-55.46
-47.14
-36.40
-24.73
-13.50
-3.64
4.49
11.07
16.45
20.97
24.81
27.97
30.35
31.89
32.59
32.60
32.08
31.16
29.91
28.35
26.54
24.64
22.92
21.67
21.03
20.90
20.87
20.45
19.23
17.07
14.14
10.84
7.58
4.64
2.02
-0.52
-3.24
-6.37
-9.99
-14.09
-18.65
-23.65
-29.04
-34.53
-39.57
-43.27
-44.68
-43.19
-38.71
-31.84
-23.64
-15.23
-7.43
-0.62
5.22
10.23
14.47
17.91
20.44
22.07
22.99
23.52
23.98
24.53
25.08
25.37
25.09
24.07
22.42
20.50
18.87
18.13
18.72
20.74
23.87
27.32
30.06
31.04
29.56
25.57
19.63
12.75
5.97
0.03
-4.84
-8.85
-12.45
-16.11
-20.11
-24.46
-28.95
-33.13
-36.39
-37.98
-37.25
-33.82
-27.80
-19.87
-11.10
-2.68
4.45
9.88
13.67
16.18
17.84
18.92
19.49
19.57
19.23
18.68
18.20
18.07
18.39
19.06
19.82
20.35
20.40
19.83
18.72
17.15
15.25
13.05
10.55
7.74
4.66
1.39
-2.00
-5.42
-8.86
-12.30
-15.72
-19.13
-22.57
-26.12
-29.80
-33.40
-36.40
-38.01
-37.42
-34.09
-28.09
-20.06
-11.02
-2.08
5.86
12.30
17.06
20.25
22.04
22.66
22.37
21.45
20.22
18.96
17.91
17.16
16.73
16.52
16.43
16.28
15.92
15.21
14.03
12.30
10.06
7.41
4.54
1.61
-1.26
-4.02
-6.72
-9.39
-12.03
-14.60
-17.14
-19.80
-22.76
-26.21
-30.07
-33.93
-37.03
-38.43
-37.48
-33.94
-28.19
-21.01
-13.35
-6.03
0.38
5.59
9.58
12.48
14.51
15.88
16.76
17.19
17.16
16.63
15.67
14.42
13.09
11.85
10.76
9.78
8.83
7.87
6.87
5.80
4.56
2.95
0.85
-1.69
-4.45
-7.06
-9.23
-10.89
-12.30
-13.87
-16.10
-19.27
-23.31
-27.76
-31.77
-34.36
-34.64
-32.11
-26.85
-19.56
-11.27
-3.13
3.96
9.55
13.58
16.28
17.96
18.93
19.40
19.52
19.40
19.10
18.66
18.00
17.05
15.70
13.98
12.00
9.98
8.17
6.74
5.68
4.78
3.69
2.10
-0.17
-3.06
-6.29
-9.50
-12.41
-14.90
-17.08
-19.23
-21.71
-24.91
-28.98
-33.72
-38.48
-42.29
-44.07
-43.07
-39.14
-32.79
-25.04
-17.01
-9.55
-3.08
2.41
7.10
11.14
14.49
16.96
18.30
18.44
17.52
15.89
14.02
12.33
11.06
10.25
9.83
9.62
9.56
9.54
9.44
9.02
8.02
6.23
3.68
0.59
-2.67
-5.74
-8.40
-10.67
-12.76
-14.90
-17.39
-20.42
-24.07
-28.23
-32.50
-36.19
-38.43
-38.40
-35.62
-30.18
-22.75
-14.36
-6.13
1.06
6.76
10.88
13.66
15.44
16.56
17.27
17.74
18.06
18.27
18.40
18.49
18.54
18.53
18.40
18.12
17.66
17.03
16.24
15.26
13.95
12.14
9.67
6.57
3.06
-0.52
-3.80
-6.59
-8.92
-11.04
-13.34
-16.19
-19.80
-24.07
-28.60
-32.64
-35.31
-35.78
-33.55
-28.63
-21.58
-13.35
-5.00
2.58
8.90
13.84
17.49
20.03
21.62
22.35
22.33
21.74
20.80
19.75
18.69
17.60
16.42
15.09
13.61
12.08
10.56
9.06
7.51
5.78
3.76
1.34
-1.50
-4.74
-8.26
-11.89
-15.51
-19.15
-23.03
-27.46
-32.62
-38.33
-43.94
-48.46
-50.85
-50.35
-46.71
-40.30
-31.88
-22.45
-12.98
-4.25
3.23
9.20
13.61
16.52
18.09
18.51
18.04
16.97
15.64
14.40
13.47
12.92
12.61
12.33
11.86
11.12
10.15
9.03
7.78
6.35
4.56
2.30
-0.46
-3.64
-7.05
-10.56
-14.09
-17.77
-21.79
-26.34
-31.43
-36.78
-41.75
-45.41
-46.82
-45.31
-40.75
-33.57
-24.64
-14.97
-5.54
2.92
9.93
15.30
19.05
21.42
22.81
23.64
24.25
24.78
25.16
25.26
24.97
24.33
23.54
22.79
22.18
21.63
20.95
19.95
18.51
16.60
14.32
11.73
8.90
5.90
2.77
-0.38
-3.50
-6.68
-10.18
-14.34
-19.45
-25.46
-31.83
-37.54
-41.39
-42.34
-39.86
-34.12
-25.92
-16.38
-6.60
2.58
10.67
17.41
22.75
26.66
29.24
30.73
31.45
31.79
32.03
32.28
32.45
32.29
31.59
30.24
28.36
26.24
24.22
22.53
21.12
19.73
17.98
15.56
12.36
8.55
4.44
0.34
-3.56
-7.23
-10.75
-14.28
-18.00
-22.16
-26.94
-32.32
-37.92
-42.91
-46.19
-46.71
-43.87
-37.80
-29.28
-19.50
-9.62
-0.51
7.41
14.11
19.70
24.33
28.13
31.13
33.40
34.93
35.77
35.95
35.50
34.52
33.11
31.44
29.62
27.75
25.92
24.17
22.45
20.68
18.63
16.09
12.89
9.07
4.90
0.70
-3.22
-6.77
-10.11
-13.55
-17.49
-22.22
-27.79
-33.88
-39.84
-44.68
-47.35
-47.03
-43.40
-36.79
-28.02
-18.15
-8.18
1.19
9.51
16.58
22.33
26.75
29.84
31.64
32.27
31.92
30.85
29.47
28.14
27.14
26.50
26.08
25.61
24.91
23.98
23.01
22.15
21.39
20.47
18.92
16.36
12.70
8.21
3.50
-0.79
-4.19
-6.67
-8.65
-10.82
-13.86
-18.11
-23.43
-29.22
-34.56
-38.48
-40.21
-39.36
-35.96
-30.42
-23.38
-15.59
-7.72
-0.29
6.39
12.12
16.83
20.39
22.62
23.35
22.50
20.28
17.14
13.75
10.77
8.74
7.89
8.12
9.15
10.63
12.28
13.85
15.13
15.81
15.55
14.11
11.43
7.79
3.69
-0.22
-3.48
-5.87
-7.55
-8.99
-10.74
-13.32
-16.99
-21.69
-26.94
-31.91
-35.57
-36.90
-35.26
-30.55
-23.32
-14.56
-5.43
3.06
10.34
16.15
20.52
23.59
25.54
26.52
26.76
26.54
26.11
25.62
25.09
24.42
23.51
22.32
20.95
19.56
18.26
17.13
16.07
14.94
13.53
11.70
9.39
6.62
3.53
0.26
-3.04
-6.28
-9.45
-12.55
-15.72
-19.15
-23.09
-27.69
-32.80
-37.80
-41.69
-43.29
-41.76
-36.88
-29.30
-20.21
-10.99
-2.68
4.24
9.81
14.31
17.97
20.78
22.58
23.16
22.56
21.08
19.19
17.33
15.75
14.42
13.17
11.91
10.69
9.67
8.95
8.36
7.59
6.26
4.19
1.48
-1.52
-4.43
-7.00
-9.19
-11.11
-12.96
-14.97
-17.36
-20.30
-23.84
-27.79
-31.56
-34.31
-35.12
-33.36
-28.95
-22.41
-14.66
-6.74
0.54
6.71
11.68
15.52
18.41
20.50
21.88
22.63
22.79
22.41
21.60
20.52
19.37
18.35
17.53
16.82
16.03
14.96
13.56
11.90
10.14
8.34
6.42
4.19
1.47
-1.64
-4.90
-7.84
-10.15
-11.77
-13.01
-14.42
-16.62
-19.89
-24.06
-28.37
-31.64
-32.67
-30.59
-25.21
-17.08
-7.30
2.84
12.20
20.04
26.17
30.82
34.54
38.01
41.72
45.76
49.65
52.44
52.95
50.17
43.58
33.22
19.68
3.70
-13.98
-32.72
-51.90
-70.82
-88.53
-103.87
-115.49
-122.04
-122.38
-115.71
-101.94
-81.85
-57.19
-30.56
-5.00
16.58
31.99
40.18
41.43
37.06
29.11
19.86
11.45
5.50
3.08
4.51
9.40
16.75
25.10
32.90
38.90
42.43
43.50
42.65
40.73
38.59
36.80
35.67
35.21
35.26
35.49
35.51
34.92
33.39
30.78
27.20
22.91
18.23
13.40
8.50
3.49
-1.63
-6.74
-11.60
-15.94
-19.65
-22.89
-25.94
-29.19
-32.89
-37.10
-41.74
-46.62
-51.41
-55.61
-58.51
-59.33
-57.44
-52.64
-45.34
-36.39
-26.93
-17.90
-9.87
-2.98
2.86
7.73
11.58
14.32
15.88
16.42
16.30
15.96
15.70
15.61
15.50
15.17
14.47
13.51
12.57
11.92
11.67
11.62
11.36
10.42
8.48
5.55
1.90
-1.96
-5.57
-8.67
-11.31
-13.88
-16.92
-20.92
-26.05
-31.99
-37.97
-42.88
-45.66
-45.55
-42.33
-36.33
-28.32
-19.25
-10.04
-1.42
6.11
12.31
17.15
20.76
23.37
25.25
26.60
27.55
28.14
28.32
28.05
27.39
26.44
25.39
24.40
23.50
22.64
21.64
20.29
18.43
16.01
13.08
9.69
5.97
2.00
-2.13
-6.25
-10.26
-14.12
-17.98
-22.18
-27.07
-32.79
-39.00
-44.79
-48.82
-49.83
-47.03
-40.52
-31.24
-20.66
-10.26
-1.12
6.31
12.06
16.41
19.59
21.74
22.90
23.15
22.69
21.78
20.70
19.62
18.63
17.77
17.01
16.32
15.68
15.07
14.45
13.74
12.77
11.36
9.37
6.75
3.62
0.20
-3.34
-6.91
-10.61
-14.71
-19.48
-25.07
-31.29
-37.61
-43.12
-46.82
-47.77
-45.45
-39.88
-31.71
-21.98
-11.94
-2.66
5.17
11.27
15.73
18.86
20.97
22.32
23.05
23.21
22.85
22.05
20.99
19.88
18.91
18.17
17.60
17.07
16.41
15.50
14.31
12.83
11.07
8.97
6.43
3.44
0.10
-3.40
-6.88
-10.33
-14.00
-18.34
-23.72
-30.19
-37.21
-43.66
-48.19
-49.55
-47.15
-41.17
-32.58
-22.67
-12.71
-3.61
4.18
10.56
15.67
19.69
22.80
25.19
27.02
28.38
29.28
29.67
29.46
28.64
27.30
25.65
23.91
22.26
20.73
19.26
17.63
15.61
13.05
9.93
6.37
2.58
-1.20
-4.85
-8.36
-11.89
-15.70
-20.04
-25.08
-30.80
-36.77
-42.18
-45.90
-46.77
-44.04
-37.70
-28.54
-17.92
-7.26
2.35
10.39
16.92
22.27
26.75
30.49
33.41
35.32
36.11
35.83
34.63
32.81
30.70
28.58
26.68
25.17
24.05
23.21
22.42
21.37
19.80
17.59
14.75
11.43
7.82
4.09
0.28
-3.63
-7.79
-12.40
-17.65
-23.73
-30.54
-37.66
-44.27
-49.20
-51.33
-49.84
-44.59
-36.16
-25.71
-14.58
-3.99
5.31
12.99
19.04
23.55
26.65
28.45
29.13
28.97
28.31
27.50
26.81
26.36
26.15
26.11
26.11
26.01
25.74
25.17
24.18
22.68
20.58
17.91
14.80
11.46
8.13
5.00
2.09
-0.74
-3.82
-7.56
-12.34
-18.39
-25.62
-33.47
-40.89
-46.55
-49.15
-47.83
-42.57
-34.07
-23.64
-12.71
-2.44
6.45
13.73
19.50
24.00
27.43
29.92
31.56
32.40
32.54
32.13
31.35
30.40
29.48
28.64
27.84
26.99
25.99
24.82
23.44
21.84
19.93
17.55
14.57
10.94
6.79
2.35
-2.06
-6.20
-9.96
-13.38
-16.70
-20.28
-24.51
-29.69
-35.78
-42.16
-47.71
-50.99
-50.79
-46.59
-38.79
-28.66
-17.82
-7.67
1.00
8.09
13.94
18.95
23.32
26.95
29.64
31.29
32.00
32.05
31.78
31.34
30.74
29.79
28.31
26.33
24.06
21.87
20.09
18.75
17.55
15.94
13.42
9.79
5.32
0.57
-3.81
-7.40
-10.17
-12.41
-14.66
-17.42
-20.99
-25.38
-30.18
-34.61
-37.60
-38.12
-35.53
-29.85
-21.81
-12.68
-3.78
3.91
9.97
14.45
17.62
19.74
20.95
21.31
20.91
19.99
18.86
17.77
16.89
16.25
15.80
15.48
15.21
14.92
14.45
13.64
12.33
10.54
8.36
6.01
3.69
1.53
-0.51
-2.55
-4.73
-7.22
-10.17
-13.69
-17.84
-22.51
-27.26
-31.33
-33.69
-33.33
-29.69
-22.89
-13.86
-4.04
5.07
12.44
17.74
21.32
23.83
25.83
27.50
28.70
29.11
28.52
27.03
25.02
23.09
21.91
22.08
23.86
26.97
30.34
32.31
31.04
25.25
14.82
1.03
-13.76
-26.90
-36.28
-40.87
-40.84
-37.30
-31.93
-26.67
-23.45
-23.76
-28.29
-36.60
-47.00
-56.90
-63.66
-65.37
-61.36
-52.26
-39.64
-25.37
-11.14
1.70
12.15
19.53
23.50
24.17
22.22
18.74
14.93
11.78
9.78
8.93
8.85
9.09
9.29
9.30
9.14
8.93
8.82
8.80
8.71
8.23
7.07
5.01
2.10
-1.42
-5.19
-8.93
-12.55
-16.24
-20.28
-24.89
-30.05
-35.32
-39.92
-42.79
-43.03
-40.18
-34.42
-26.58
-17.78
-9.06
-1.09
5.87
11.89
17.03
21.31
24.63
26.91
28.26
28.95
29.39
29.91
30.64
31.43
31.88
31.53
30.00
27.23
23.48
19.25
15.00
11.00
7.26
3.65
0.06
-3.48
-6.80
-9.73
-12.13
-14.07
-15.81
-17.74
-20.27
-23.67
-27.91
-32.49
-36.50
-38.77
-38.30
-34.61
-27.94
-19.26
-9.89
-1.02
6.57
12.68
17.51
21.46
24.77
27.49
29.48
30.56
30.68
30.00
28.77
27.25
25.63
24.02
22.48
21.11
20.01
19.23
18.65
17.95
16.68
14.52
11.36
7.44
3.21
-0.91
-4.60
-7.84
-10.83
-13.93
-17.49
-21.80
-26.93
-32.63
-38.27
-42.86
-45.21
-44.32
-39.74
-31.78
-21.52
-10.47
-0.08
8.65
15.46
20.68
24.91
28.71
32.29
35.48
37.88
39.13
39.14
38.21
36.97
36.17
36.45
38.06
40.76
43.83
46.37
47.55
47.03
45.09
42.53
40.47
39.91
41.45
44.92
49.30
52.79
53.14
48.30
37.15
20.18
-0.30
-20.69
-37.38
-48.29
-53.97
-57.43
-62.72
-72.86
-88.28
-106.53
-123.40
-134.96
-139.09
-135.90
-126.94
-113.78
-97.25
-77.42
-54.53
-29.73
-5.23
16.38
33.04
43.86
49.19
49.97
47.22
41.75
34.15
25.12
15.64
6.83
-0.31
-5.16
-7.61
-7.96
-6.85
-5.06
-3.51
-3.03
-4.33
-7.72
-12.93
-19.08
-24.86
-28.83
-29.86
-27.46
-21.88
-13.97
-4.92
4.07
12.04
18.48
23.22
26.41
28.30
29.11
28.95
27.87
25.85
23.07
19.84
16.68
14.13
12.51
11.82
11.74
11.75
11.40
10.41
8.75
6.49
3.69
0.35
-3.52
-7.85
-12.35
-16.65
-20.47
-23.86
-27.17
-30.96
-35.58
-40.91
-46.17
-50.10
-51.38
-49.16
-43.37
-34.76
-24.62
-14.30
-4.83
3.31
10.08
15.68
20.28
23.81
26.08
26.95
26.49
25.06
23.18
21.33
19.78
18.54
17.46
16.41
15.37
14.40
13.56
12.76
11.70
10.04
7.52
4.16
0.21
-3.95
-8.05
-12.01
-16.05
-20.54
-25.84
-32.02
-38.81
-45.44
-50.84
-53.83
-53.48
-49.43
-42.00
-32.17
-21.27
-10.63
-1.21
6.58
12.84
17.95
22.31
26.07
29.09
31.06
31.71
30.98
29.10
26.58
23.95
21.64
19.87
18.65
17.84
17.18
16.36
15.03
12.90
9.90
6.14
1.94
-2.35
-6.50
-10.52
-14.63
-19.20
-24.61
-31.03
-38.29
-45.72
-52.24
-56.46
-57.14
-53.52
-45.66
-34.49
-21.56
-8.61
2.93
12.27
19.33
24.56
28.60
32.01
34.99
37.42
38.97
39.42
38.70
36.99
34.62
31.92
29.16
26.57
24.30
22.48
21.10
19.98
18.75
16.97
14.41
11.11
7.38
3.63
0.13
-3.11
-6.38
-10.10
-14.64
-20.22
-26.70
-33.44
-39.38
-43.18
-43.65
-40.27
-33.41
-24.33
-14.77
-6.32
0.13
4.57
7.70
10.47
13.57
17.19
21.01
24.46
26.98
28.23
28.24
27.32
25.93
24.54
23.53
23.06
23.13
23.65
24.40
25.07
25.26
24.59
22.76
19.69
15.59
10.88
6.10
1.74
-2.04
-5.51
-9.25
-13.89
-19.67
-26.14
-32.16
-36.25
-37.10
-34.06
-27.36
-17.95
-7.19
3.65
13.56
21.89
28.29
32.69
35.22
36.21
36.09
35.32
34.18
32.82
31.20
29.28
27.01
24.47
21.86
19.40
17.31
15.60
14.14
12.59
10.63
8.07
5.02
1.76
-1.33
-4.02
-6.38
-8.72
-11.57
-15.43
-20.66
-27.16
-34.36
-41.18
-46.20
-48.09
-45.97
-39.80
-30.39
-19.12
-7.57
3.05
12.10
19.52
25.52
30.31
33.91
36.17
37.02
36.60
35.36
33.93
32.89
32.53
32.75
33.14
33.27
32.90
32.15
31.46
31.32
32.04
33.43
34.80
35.17
33.69
30.11
24.95
19.44
15.06
12.92
13.33
15.58
18.18
19.46
18.34
14.92
10.90
9.07
12.45
22.75
39.11
57.63
72.21
76.39
65.24
36.88
-7.03
-61.46
-118.75
-169.85
-205.88
-220.13
-210.01
-178.16
-131.93
-81.06
-34.62
1.62
25.92
39.43
44.08
41.09
30.99
14.78
-4.86
-23.45
-36.06
-39.38
-33.23
-20.85
-7.45
1.97
4.52
0.24
-8.46
-18.10
-25.69
-29.48
-29.16
-25.37
-18.94
-10.56
-0.64
10.37
21.58
31.61
38.80
41.83
40.25
34.86
27.47
20.25
15.11
13.05
14.07
17.36
21.71
25.88
28.76
29.56
27.80
23.47
17.06
9.47
1.72
-5.41
-11.61
-17.12
-22.45
-28.06
-34.05
-40.18
-45.82
-50.23
-52.67
-52.47
-49.21
-42.80
-33.69
-22.79
-11.40
-0.83
7.95
14.67
19.75
24.09
28.54
33.44
38.33
42.09
43.43
41.62
36.80
30.03
22.88
16.69
12.20
9.39
7.80
6.91
6.38
6.02
5.65
4.88
3.22
0.31
-3.93
-9.14
-14.76
-20.31
-25.56
-30.58
-35.48
-40.10
-43.84
-45.79
-45.01
-41.00
-33.90
-24.58
-14.33
-4.49
3.96
10.58
15.48
19.02
21.65
23.65
25.11
26.00
26.27
25.93
25.06
23.81
22.33
20.74
19.13
17.54
15.93
14.17
12.07
9.48
6.38
2.92
-0.62
-3.95
-6.98
-9.80
-12.71
-16.05
-20.09
-24.92
-30.32
-35.73
-40.29
-42.97
-42.86
-39.53
-33.16
-24.62
-15.13
-5.86
2.33
9.15
14.64
18.96
22.24
24.48
25.62
25.69
24.89
23.47
21.73
19.83
17.88
15.88
13.86
11.89
10.02
8.31
6.71
5.09
3.25
1.04
-1.63
-4.69
-8.06
-11.61
-15.29
-19.18
-23.46
-28.34
-33.82
-39.59
-44.81
-48.28
-48.74
-45.33
-38.01
-27.65
-15.80
-4.18
5.82
13.48
18.74
21.96
23.65
24.16
23.73
22.56
20.82
18.77
16.68
14.78
13.23
12.09
11.30
10.69
10.05
9.13
7.73
5.80
3.37
0.58
-2.39
-5.43
-8.48
-11.53
-14.61
-17.84
-21.37
-25.37
-29.91
-34.70
-39.06
-41.96
-42.32
-39.45
-33.32
-24.67
-14.84
-5.22
3.12
9.68
14.53
18.02
20.45
21.96
22.51
22.01
20.56
18.45
16.12
14.01
12.41
11.36
10.71
10.15
9.38
8.14
6.34
3.96
1.11
-2.03
-5.28
-8.51
-11.68
-14.85
-18.15
-21.74
-25.80
-30.42
-35.48
-40.53
-44.76
-47.06
-46.38
-42.11
-34.32
-23.90
-12.26
-0.98
8.72
16.21
21.54
25.18
27.76
29.72
31.16
31.93
31.80
30.71
28.89
26.80
24.93
23.56
22.70
22.09
21.40
20.36
18.86
16.87
14.37
11.33
7.71
3.53
-1.09
-5.95
-10.89
-15.89
-21.11
-26.80
-33.01
-39.35
-44.85
-48.25
-48.34
-44.47
-36.89
-26.66
-15.32
-4.31
5.35
13.34
19.81
25.08
29.36
32.60
34.60
35.21
34.48
32.67
30.28
27.78
25.53
23.69
22.28
21.23
20.42
19.66
18.69
17.24
15.04
11.99
8.18
3.89
-0.58
-4.98
-9.24
-13.46
-17.81
-22.51
-27.65
-33.07
-38.31
-42.61
-44.99
-44.55
-40.79
-33.73
-24.04
-12.85
-1.40
9.16
18.08
25.00
29.97
33.30
35.37
36.56
37.16
37.29
36.93
36.02
34.49
32.48
30.26
28.21
26.67
25.73
25.16
24.47
23.10
20.66
17.03
12.45
7.36
2.28
-2.42
-6.54
-10.12
-13.43
-16.94
-21.17
-26.48
-32.72
-39.12
-44.31
-46.81
-45.49
-40.14
-31.49
-21.02
-10.29
-0.52
7.73
14.46
19.96
24.43
27.91
30.32
31.61
31.92
31.47
30.54
29.35
27.99
26.49
24.91
23.31
21.77
20.26
18.74
17.07
15.10
12.74
9.93
6.67
3.04
-0.89
-5.00
-9.22
-13.53
-18.02
-22.87
-28.20
-33.83
-39.20
-43.39
-45.29
-44.02
-39.29
-31.51
-21.72
-11.25
-1.32
7.19
13.94
19.03
22.73
25.34
27.09
28.06
28.30
27.77
26.49
24.52
22.09
19.55
17.32
15.71
14.75
14.15
13.40
12.01
9.72
6.62
3.09
-0.45
-3.69
-6.58
-9.26
-12.09
-15.42
-19.54
-24.57
-30.32
-36.18
-41.17
-44.16
-44.14
-40.66
-33.95
-24.93
-14.88
-5.09
3.49
10.36
15.51
19.12
21.48
22.73
22.96
22.22
20.72
18.80
16.94
15.53
14.75
14.51
14.48
14.25
13.52
12.22
10.43
8.34
6.09
3.61
0.78
-2.59
-6.58
-11.19
-16.25
-21.66
-27.33
-33.19
-39.05
-44.37
-48.30
-49.85
-48.20
-43.08
-34.88
-24.65
-13.73
-3.40
5.49
12.56
17.85
21.62
24.11
25.48
25.84
25.28
24.03
22.39
20.73
19.31
18.23
17.47
16.86
16.21
15.37
14.22
12.69
10.70
8.26
5.44
2.33
-0.92
-4.20
-7.49
-10.87
-14.49
-18.52
-23.09
-28.15
-33.34
-37.94
-40.95
-41.34
-38.47
-32.30
-23.52
-13.36
-3.20
5.86
13.23
18.90
23.19
26.43
28.82
30.31
30.79
30.16
28.56
26.29
23.79
21.47
19.61
18.27
17.33
16.53
15.61
14.30
12.38
9.77
6.46
2.63
-1.43
-5.39
-8.98
-12.10
-14.93
-17.88
-21.42
-25.84
-31.03
-36.31
-40.60
-42.64
-41.46
-36.71
-28.80
-18.79
-8.14
1.80
10.04
16.20
20.45
23.27
25.21
26.68
27.86
28.64
28.85
28.36
27.17
25.45
23.52
21.66
20.06
18.76
17.66
16.59
15.31
13.60
11.24
8.09
4.10
-0.57
-5.61
-10.60
-15.22
-19.40
-23.40
-27.65
-32.49
-37.80
-42.94
-46.80
-48.13
-46.07
-40.43
-31.81
-21.39
-10.50
-0.31
8.48
15.65
21.34
25.87
29.58
32.70
35.26
37.12
38.13
38.21
37.44
36.00
34.20
32.35
30.74
29.61
29.13
29.29
29.89
30.52
30.63
29.76
27.78
24.97
21.94
19.47
18.04
17.71
17.97
17.92
16.82
14.67
12.48
12.21
15.88
24.68
38.06
53.71
68.15
77.77
79.61
71.82
53.76
26.03
-9.31
-48.68
-87.41
-120.59
-144.37
-156.83
-158.08
-149.48
-132.66
-109.01
-79.90
-47.43
-15.00
12.95
32.00
39.16
33.93
18.55
-2.62
-24.33
-41.74
-51.59
-52.86
-46.75
-36.16
-24.61
-15.20
-9.72
-8.36
-9.97
-12.69
-14.66
-14.55
-11.76
-6.35
1.12
9.72
18.29
25.64
30.70
32.78
31.77
28.22
23.18
17.98
13.80
11.36
10.73
11.39
12.46
13.03
12.53
10.85
8.36
5.66
3.37
1.82
1.00
0.49
-0.26
-1.80
-4.46
-8.30
-13.22
-18.96
-25.20
-31.52
-37.30
-41.66
-43.66
-42.49
-37.90
-30.41
-21.19
-11.74
-3.39
3.17
7.93
11.38
14.08
16.35
18.11
19.12
19.11
18.09
16.40
14.51
12.90
11.84
11.36
11.22
11.08
10.53
9.23
7.10
4.25
1.05
-2.14
-5.11
-7.93
-10.93
-14.50
-18.94
-24.28
-30.28
-36.38
-41.88
-45.91
-47.62
-46.35
-41.92
-34.70
-25.62
-15.89
-6.64
1.37
7.91
13.15
17.46
21.14
24.31
26.82
28.42
28.94
28.40
27.14
25.64
24.32
23.35
22.55
21.53
19.87
17.38
14.16
10.51
6.76
3.07
-0.58
-4.36
-8.41
-12.81
-17.59
-22.78
-28.44
-34.45
-40.44
-45.60
-48.84
-49.05
-45.61
-38.57
-28.85
-17.87
-7.10
2.39
10.18
16.42
21.57
26.02
29.87
32.96
35.00
35.81
35.42
34.09
32.19
30.08
28.07
26.40
25.22
24.51
24.06
23.46
22.15
19.70
15.98
11.24
6.01
0.87
-3.87
-8.22
-12.51
-17.22
-22.70
-28.98
-35.61
-41.68
-46.01
-47.46
-45.28
-39.34
-30.29
-19.33
-7.86
2.85
12.03
19.41
25.16
29.56
32.85
35.12
36.32
36.38
35.35
33.43
30.94
28.22
25.55
23.08
20.86
18.87
17.12
15.56
14.14
12.66
10.86
8.48
5.32
1.47
-2.85
-7.29
-11.66
-15.95
-20.38
-25.18
-30.41
-35.77
-40.51
-43.64
-44.15
-41.40
-35.31
-26.45
-15.90
-4.96
5.19
13.79
20.58
25.69
29.48
32.26
34.14
35.08
35.06
34.15
32.68
30.98
29.42
28.23
27.40
26.78
26.19
25.45
24.44
23.09
21.28
18.90
15.87
12.19
7.99
3.49
-1.10
-5.62
-10.01
-14.34
-18.66
-22.92
-26.86
-29.93
-31.47
-30.89
-27.92
-22.75
-16.05
-8.70
-1.59
4.64
9.66
13.43
16.02
17.56
18.17
18.00
17.28
16.33
15.44
14.84
14.60
14.61
14.70
14.64
14.21
13.28
11.72
9.51
6.77
3.72
0.69
-2.03
-4.31
-6.20
-8.01
-10.16
-13.10
-17.15
-22.24
-27.90
-33.22
-37.00
-38.08
-35.77
-30.10
-21.86
-12.40
-3.18
4.71
10.76
15.05
17.97
19.93
21.15
21.60
21.18
19.82
17.63
14.91
11.95
9.05
6.33
3.82
1.52
-0.59
-2.48
-4.18
-5.76
-7.34
-9.10
-11.19
-13.69
-16.65
-20.14
-24.22
-28.95
-34.21
-39.61
-44.42
-47.72
-48.61
-46.54
-41.52
-34.10
-25.29
-16.17
-7.72
-0.50
5.24
9.58
12.72
14.87
16.19
16.71
16.43
15.39
13.77
11.87
10.06
8.67
7.81
7.38
7.05
6.46
5.38
3.83
2.02
0.24
-1.34
-2.77
-4.33
-6.40
-9.30
-13.22
-18.12
-23.70
-29.43
-34.54
-38.16
-39.45
-37.87
-33.34
-26.35
-17.79
-8.67
0.07
7.82
14.28
19.47
23.51
26.56
28.78
30.24
30.97
30.99
30.36
29.21
27.76
26.21
24.67
23.13
21.46
19.55
17.34
14.91
12.36
9.77
7.15
4.49
1.74
-1.14
-4.26
-7.84
-12.20
-17.52
-23.65
-29.94
-35.23
-38.29
-38.13
-34.43
-27.67
-18.91
-9.43
-0.37
7.60
14.24
19.68
24.10
27.63
30.24
31.93
32.79
33.17
33.56
34.40
35.83
37.62
39.18
39.80
38.99
36.60
32.84
28.20
23.21
18.23
13.47
8.93
4.58
0.36
-3.80
-7.98
-12.39
-17.25
-22.67
-28.43
-33.85
-37.88
-39.45
-37.85
-33.02
-25.61
-16.80
-7.83
0.33
7.16
12.68
17.23
21.19
24.84
28.22
31.18
33.50
35.04
35.77
35.87
35.61
35.33
35.27
35.57
36.14
36.75
37.12
37.00
36.26
34.94
33.23
31.37
29.58
28.07
27.03
26.66
26.99
27.73
28.09
27.03
23.68
17.71
9.37
-0.83
-12.70
-26.66
-43.43
-63.31
-85.52
-107.98
-127.74
-141.89
-148.36
-146.24
-135.75
-117.82
-93.98
-66.33
-37.49
-10.50
11.88
27.78
36.67
39.42
37.81
33.91
29.49
25.71
22.98
21.19
19.89
18.57
16.83
14.49
11.60
8.29
4.71
0.89
-3.29
-8.09
-13.65
-19.83
-26.08
-31.51
-35.07
-35.90
-33.58
-28.30
-20.84
-12.24
-3.63
4.10
10.46
15.30
18.76
21.05
22.34
22.73
22.22
20.83
18.69
16.06
13.28
10.74
8.75
7.51
7.06
7.26
7.78
8.22
8.17
7.37
5.77
3.57
1.10
-1.38
-3.71
-5.94
-8.17
-10.59
-13.36
-16.60
-20.36
-24.50
-28.60
-31.93
-33.46
-32.28
-27.87
-20.48
-11.11
-1.23
7.72
14.80
19.75
22.85
24.60
