1706882905.00
64.000000
-0.00
-0.00
-0.00
-0.00
-0.00
-0.00
-0.00
-0.00
-0.00
-0.00
0.00
0.01
0.01
-0.00
-0.03
-0.05
-0.05
0.00
0.13
0.36
0.66
1.01
1.37
1.72
2.06
2.40
2.79
3.24
3.80
4.42
5.06
5.66
6.20
6.68
7.15
7.68
8.31
9.14
10.09
11.04
11.88
12.56
13.14
13.76
14.65
15.96
17.91
20.32
22.90
25.38
27.58
29.57
31.68
34.32
37.81
42.54
48.15
54.10
59.83
64.97
69.58
74.14
79.34
85.71
93.76
103.00
112.62
121.73
129.77
136.75
143.30
150.75
157.77
166.64
177.95
191.79
206.97
220.57
228.25
225.36
208.53
176.87
132.76
80.05
23.07
-34.94
-92.44
-149.16
-205.23
-260.37
-313.74
-363.87
-409.83
-450.89
-486.47
-515.69
-537.16
-549.12
-549.83
-538.20
-513.99
-478.41
-433.56
-382.07
-326.57
-269.33
-212.05
-156.01
-102.23
-51.58
-5.03
36.54
72.47
102.49
126.74
145.73
160.17
170.76
178.14
182.69
184.70
184.41
182.08
178.08
172.79
166.64
159.97
153.03
145.96
138.83
131.69
124.58
117.56
110.71
104.09
97.76
91.75
86.07
80.75
75.78
71.18
66.95
63.11
59.65
56.57
53.88
51.58
49.67
48.12
46.93
46.04
45.40
44.91
44.43
43.81
42.87
41.44
39.35
36.51
32.85
28.38
23.15
17.31
11.05
4.64
-1.67
-7.61
-12.95
-17.48
-21.09
-23.70
-25.30
-25.97
-25.80
-24.94
-23.53
-21.72
-19.64
-17.40
-15.07
-12.68
-10.27
-7.86
-5.46
-3.03
-0.57
1.95
4.56
7.27
10.13
13.07
16.09
19.15
22.27
25.44
28.68
32.03
35.54
39.28
43.19
47.23
51.39
55.67
60.08
64.64
69.38
74.35
79.62
85.05
90.54
96.04
101.53
106.99
112.46
117.96
123.52
129.22
134.80
140.03
144.71
148.60
151.41
152.76
152.14
148.82
144.12
138.49
132.23
125.53
118.52
111.33
104.08
96.89
89.92
83.34
77.04
70.98
65.16
59.60
54.33
49.37
44.78
40.59
36.89
33.51
30.33
27.30
24.38
21.58
18.89
16.37
14.07
12.06
10.26
8.64
7.18
5.86
4.66
3.61
2.70
1.94
1.37
0.94
0.63
0.43
0.31
0.25
0.22
0.22
0.19
0.14
0.02
-0.18
-0.48
-0.85
-1.29
-1.77
-2.27
-2.76
-3.24
-3.68
-4.10
-4.53
-4.98
-5.48
-6.01
-6.55
-7.06
-7.50
-7.86
-8.14
-8.37
-8.56
-8.76
-8.97
-9.20
-9.44
-9.69
-9.98
-10.38
-10.94
-11.73
-12.76
-14.00
-15.34
-16.67
-17.89
-18.97
-19.98
-21.08
-22.42
-24.10
-26.09
-28.25
-30.40
-32.39
-34.24
-36.16
-38.52
-41.66
-45.80
-50.91
-56.68
-62.73
-68.74
-74.68
-80.85
-87.76
-95.90
-105.51
-116.40
-128.06
-139.87
-151.39
-162.51
-173.56
-185.06
-197.67
-212.00
-228.65
-247.98
-269.71
-292.59
-314.19
-331.40
-341.33
-342.30
-334.42
-319.38
-299.55
-277.01
-252.93
-227.77
-201.94
-176.51
-153.34
-134.58
-121.73
-114.92
-112.65
-112.41
-111.55
-108.18
-101.75
-93.01
-83.48
-74.78
-68.02
-63.65
-61.44
-60.84
-61.22
-62.06
-63.01
-63.95
-65.04
-66.79
-69.98
-75.41
-83.28
-92.78
-101.73
-106.86
-104.66
-92.42
-69.29
-36.66
2.13
42.66
80.61
112.70
137.04
153.20
161.78
163.95
161.08
154.55
145.55
135.14
124.19
113.49
103.63
95.09
88.17
82.98
79.50
77.61
77.09
77.59
78.53
79.19
78.68
76.18
71.14
63.46
53.58
42.31
30.65
19.48
9.31
0.17
-8.26
-16.51
-25.07
-34.13
-43.59
-53.11
-62.28
-70.80
-78.62
-86.00
-93.55
-102.06
-112.32
-124.67
-138.50
-151.95
-161.88
-164.55
-156.62
-136.36
-104.42
-63.81
-19.17
24.47
62.97
93.76
115.96
130.03
137.16
138.79
136.38
131.25
124.59
117.31
110.13
103.52
97.79
93.12
89.63
87.36
86.25
86.07
86.47
86.98
87.07
86.27
84.15
80.34
74.63
66.93
57.40
46.49
34.88
23.35
12.58
2.94
-5.68
-13.75
-21.89
-30.60
-40.04
-49.90
-59.59
-68.47
-75.97
-81.87
-86.44
-90.49
-95.32
-102.44
-113.12
-127.57
-144.33
-160.11
-170.29
-170.17
-156.47
-128.60
-88.95
-42.34
5.34
48.72
84.14
110.03
126.63
135.27
137.63
135.29
129.58
121.68
112.69
103.65
95.39
88.41
82.77
78.23
74.48
71.32
68.78
66.99
66.10
66.02
66.42
66.65
65.89
63.39
58.60
51.44
42.38
32.33
22.42
13.52
5.98
-0.53
-6.91
-14.07
-22.57
-32.28
-42.40
-51.92
-60.00
-66.33
-71.26
-75.61
-80.49
-87.05
-96.23
-108.49
-123.29
-138.75
-151.66
-157.99
-153.99
-137.48
-108.74
-70.56
-27.51
15.36
53.71
84.68
106.96
120.43
125.79
124.24
117.25
106.54
93.92
81.05
69.26
59.35
51.73
46.35
43.09
41.71
42.09
44.01
47.11
50.68
53.71
55.02
53.64
49.15
41.89
32.89
23.51
14.87
7.43
0.89
-5.60
-12.98
-21.74
-31.68
-42.00
-51.66
-59.83
-66.17
-70.98
-75.08
-79.71
-86.22
-95.74
-108.64
-123.96
-139.13
-150.25
-153.02
-144.10
-122.31
-89.22
-48.73
-5.89
34.44
68.72
95.04
112.99
123.09
126.32
123.86
116.99
107.16
95.85
84.59
74.61
66.82
61.56
58.69
57.71
57.95
58.74
59.58
60.17
60.42
60.37
60.00
59.11
57.28
53.93
48.56
41.03
31.77
21.73
12.10
3.79
-2.89
-8.37
-13.60
-19.60
-27.02
-35.84
-45.46
-54.99
-63.62
-70.89
-76.88
-82.17
-87.68
-94.66
-104.17
-116.77
-131.85
-147.31
-159.61
-164.52
-158.34
-139.15
-107.69
-67.25
-22.82
20.31
57.80
87.05
107.26
119.02
123.74
123.02
118.40
111.27
102.82
94.08
85.91
78.95
73.53
69.77
67.48
66.44
66.35
66.86
67.63
68.20
68.11
66.93
64.42
60.50
55.30
49.00
41.77
33.78
25.20
16.28
7.37
-1.11
-8.92
-15.96
-22.42
-28.69
-35.27
-42.54
-50.63
-59.38
-68.30
-76.85
-84.51
-91.07
-96.69
-101.92
-107.71
-115.09
-124.85
-136.93
-150.01
-161.26
-166.89
-163.04
-147.11
-118.81
-80.45
-36.46
7.94
47.96
80.40
103.84
118.43
125.28
125.93
122.02
115.11
106.69
97.98
89.91
82.98
77.34
72.92
69.58
67.30
66.10
66.07
67.15
69.06
71.31
73.20
74.07
73.28
70.42
65.28
57.96
48.89
38.88
28.90
19.95
12.68
7.18
2.96
-1.00
-5.68
-11.74
-19.19
-27.35
-35.07
-41.18
-44.82
-45.91
-45.35
-44.85
-46.62
-52.50
-63.00
-76.55
-89.38
-96.39
-92.78
-75.84
-46.07
-7.15
35.33
75.57
108.95
132.46
144.45
144.09
131.00
105.59
69.24
24.13
-27.29
-82.80
-140.11
-196.00
-245.59
-282.49
-300.57
-296.23
-270.16
-227.15
-174.06
-117.07
-59.87
-3.81
50.52
101.45
145.60
179.01
199.11
206.19
203.50
195.70
186.77
178.65
170.90
161.60
148.94
132.43
113.24
93.80
76.77
63.92
55.43
49.61
43.18
32.20
13.21
-15.54
-53.25
-96.40
-139.50
-176.52
-202.47
-214.77
-213.72
-202.28
-184.95
-166.36
-149.92
-137.16
-127.87
-120.76
-114.31
-107.12
-97.97
-85.48
-68.23
-45.27
-16.86
15.12
47.53
76.96
100.93
118.38
129.45
134.83
135.17
131.07
123.39
113.44
102.81
92.76
83.73
75.31
66.71
57.43
47.64
38.07
29.59
22.64
17.09
12.30
7.42
1.77
-4.94
-12.50
-20.34
-27.72
-34.14
-39.49
-44.52
-50.50
-59.11
-71.85
-89.28
-110.58
-133.10
-152.69
-164.57
-164.69
-151.07
-124.52
-88.52
-48.04
-8.22
27.01
55.38
76.21
89.81
96.98
98.69
96.04
90.29
82.79
74.88
67.56
61.44
56.70
53.18
50.65
48.88
47.91
47.90
49.04
51.34
54.35
57.19
58.69
57.77
53.83
46.91
37.69
27.32
16.97
7.53
-0.65
-7.79
-14.53
-21.52
-29.15
-37.32
-45.55
-53.22
-59.95
-65.78
-71.34
-77.52
-85.27
-95.37
-108.22
-123.57
-140.35
-156.47
-168.98
-174.54
-170.37
-155.02
-129.02
-94.79
-56.03
-16.77
19.45
50.03
73.33
88.49
95.19
93.76
85.47
72.94
60.11
51.59
51.34
61.11
79.54
102.29
123.64
138.67
145.08
143.64
137.36
129.58
122.31
115.70
108.57
99.77
89.08
77.51
66.62
57.61
50.63
44.72
38.29
29.70
17.95
2.92
-14.62
-33.27
-51.36
-67.52
-81.02
-92.06
-101.58
-110.84
-120.94
-132.43
-145.19
-158.62
-171.64
-182.66
-189.51
-189.44
-179.86
-159.17
-127.75
-88.20
-44.82
-2.41
35.08
65.40
88.15
104.14
114.64
120.78
123.38
123.03
120.30
115.79
110.07
103.63
96.84
90.05
83.69
78.21
74.00
71.18
69.56
68.72
68.12
67.24
65.61
62.78
58.35
52.00
43.73
33.89
23.22
12.54
2.58
-6.33
-14.16
-21.31
-28.26
-35.44
-43.11
-51.24
-59.56
-67.67
-75.13
-81.62
-87.13
-92.06
-97.22
-103.65
-112.15
-122.58
-133.38
-141.50
-143.08
-134.75
-114.87
-84.28
-46.16
-4.92
35.09
70.56
99.61
121.51
136.14
143.71
144.70
139.98
130.89
118.99
105.81
92.62
80.38
69.80
61.54
56.13
53.69
53.92
55.81
57.83
58.24
55.55
48.98
38.66
25.65
11.58
-1.91
-13.70
-23.49
-31.70
-39.14
-46.48
-53.82
-60.72
-66.42
-70.22
-71.98
-72.33
-72.54
-74.21
-78.69
-86.32
-95.99
-105.08
-110.03
-107.48
-95.38
-73.86
-45.15
-13.02
18.50
46.18
68.12
83.89
94.01
99.33
100.64
98.47
93.30
85.67
76.40
66.49
56.83
47.94
39.80
31.90
23.60
14.48
4.73
-4.86
-13.09
-18.92
-22.01
-22.89
-22.95
-23.82
-26.67
-31.67
-37.85
-43.62
-47.52
-48.98
-48.61
-48.04
-49.48
-54.96
-65.73
-81.55
-100.43
-118.58
-131.12
-133.32
-122.10
-97.14
-61.25
-19.53
22.10
58.48
86.34
104.55
113.85
116.00
113.09
107.05
99.25
90.54
81.36
71.99
62.77
54.16
46.67
40.87
37.33
36.63
39.32
45.65
55.10
66.09
76.01
81.97
81.74
74.74
62.23
46.51
29.55
11.74
-8.52
-34.10
-67.40
-108.61
-154.73
-199.90
-236.97
-259.50
-263.68
-249.26
-219.46
-179.71
-136.10
-93.69
-55.61
-22.82
5.37
30.40
53.76
76.33
98.39
119.71
139.61
157.06
170.79
179.60
182.78
180.61
174.53
166.99
160.68
157.71
158.86
163.29
168.75
172.34
171.42
164.40
151.20
133.02
111.84
89.60
67.58
46.03
24.24
0.87
-25.40
-55.01
-86.80
-117.65
-142.75
-156.77
-155.53
-137.43
-104.38
-61.47
-15.80
25.15
54.95
69.46
67.24
49.52
19.97
-16.25
-53.76
-88.26
-117.45
-140.92
-159.28
-172.77
-180.34
-179.69
-168.28
-144.90
-110.66
-69.06
-25.05
16.46
51.68
78.52
96.23
104.84
104.58
95.91
79.66
57.40
31.29
3.70
-23.53
-49.50
-74.45
-99.01
-123.16
-145.34
-162.12
-168.99
-161.95
-139.32
-102.82
-57.30
-9.36
34.76
70.80
97.15
114.36
124.11
128.26
128.30
125.45
120.80
115.33
109.64
103.68
96.93
88.76
79.13
68.89
59.47
52.23
47.60
44.83
42.43
39.04
34.17
28.23
22.01
15.90
9.65
2.73
-5.13
-13.77
-23.03
-33.58
-47.11
-65.87
-91.37
-123.32
-159.31
-195.60
-228.35
-254.58
-272.26
-279.80
-275.58
-258.09
-226.67
-182.36
-128.31
-69.23
-10.40
43.50
89.07
124.61
149.89
165.90
174.27
176.72
174.63
168.87
159.92
148.26
134.73
120.63
107.39
96.20
87.64
81.58
77.45
74.57
72.45
70.87
69.72
68.77
67.46
64.98
60.46
53.32
43.53
31.73
19.00
6.63
-4.38
-13.57
-21.15
-27.79
-34.43
-41.79
-50.19
-59.39
-68.75
-77.52
-85.19
-91.68
-97.42
-103.27
-110.34
-119.74
-132.18
-147.44
-163.95
-178.62
-187.23
-185.49
-170.51
-141.84
-101.93
-55.39
-7.68
36.33
73.31
101.71
121.50
133.45
138.77
138.77
134.78
128.03
119.63
110.49
101.26
92.38
84.15
76.65
69.95
64.07
59.14
55.29
52.70
51.33
50.88
50.75
50.15
48.34
44.84
39.51
32.58
24.52
15.90
7.27
-0.91
-8.36
-15.05
-21.35
-27.83
-35.13
-43.57
-52.92
-62.38
-70.87
-77.56
-82.30
-85.83
-89.50
-94.87
-103.07
-114.47
-128.32
-142.76
-154.95
-161.55
-159.52
-146.91
-123.50
-90.87
-52.02
-10.52
30.15
67.08
98.04
121.45
136.19
141.64
137.82
125.51
106.84
85.61
67.32
57.72
60.54
75.39
97.22
118.26
131.47
133.91
127.72
118.47
111.79
110.62
114.59
121.29
128.57
135.58
142.38
148.59
152.60
151.98
144.99
131.77
114.52
96.37
79.82
65.84
53.78
42.28
30.52
18.89
8.96
2.71
1.40
4.89
11.44
18.36
22.89
22.98
17.44
5.73
-12.44
-36.94
-66.73
-99.34
-130.99
-157.30
-174.67
-181.25
-177.36
-165.03
-147.07
-126.10
-104.17
-82.68
-62.68
-45.07
-30.64
-20.04
-13.57
-11.08
-11.82
-14.62
-18.05
-20.78
-21.99
-21.49
-19.65
-17.11
-14.47
-12.27
-10.94
-10.83
-12.20
-14.85
-18.05
-20.50
-20.74
-17.79
-11.54
-3.02
6.04
13.71
18.40
19.31
16.47
10.47
2.24
-7.14
-16.73
-25.77
-34.02
-41.99
-51.01
-62.89
-78.96
-98.97
-120.25
-137.98
-146.47
-141.33
-121.20
-88.46
-48.42
-7.34
29.53
59.19
80.86
95.10
102.78
104.73
101.80
95.34
87.21
79.36
73.01
68.11
63.57
57.89
50.24
40.97
31.46
23.50
18.36
16.31
16.64
18.03
19.06
18.73
16.54
12.57
7.26
1.12
-5.56
-12.88
-21.32
-31.40
-43.22
-56.17
-68.95
-80.04
-88.29
-93.46
-96.34
-98.49
-101.62
-107.10
-115.56
-126.60
-138.61
-148.84
-153.78
-150.06
-135.49
-110.05
-76.17
-38.16
-0.87
31.63
57.00
74.81
86.02
92.06
94.17
93.15
89.38
83.18
75.03
65.64
55.97
46.95
39.28
33.29
28.86
25.58
22.99
20.71
18.58
16.62
14.83
13.11
11.10
8.27
4.00
-2.12
-10.21
-19.90
-30.39
-40.75
-50.16
-58.16
-64.85
-70.77
-76.85
-84.15
-93.61
-105.71
-120.03
-134.83
-147.10
-153.08
-149.36
-134.09
-107.96
-74.19
-37.64
-3.26
25.42
47.08
62.46
73.48
82.06
89.50
96.23
102.12
106.75
109.68
110.44
108.48
103.24
94.43
82.32
68.05
53.55
41.14
32.90
29.90
31.85
36.97
42.57
45.91
45.07
39.56
30.22
18.74
6.59
-5.41
-17.46
-30.24
-44.43
-60.34
-77.81
-96.45
-115.87
-135.52
-154.13
-169.37
-177.88
-176.13
-161.85
-135.15
-98.88
-57.79
-17.11
19.13
48.72
71.26
87.43
98.09
103.82
104.96
101.87
95.11
85.64
74.60
63.24
52.64
43.54
36.23
30.58
26.17
22.55
19.51
17.08
15.42
14.61
14.33
13.85
12.27
8.78
2.93
-5.08
-14.56
-24.56
-34.12
-42.60
-49.74
-55.78
-61.35
-67.36
-74.83
-84.61
-96.92
-110.92
-124.43
-134.11
-136.27
-127.99
-108.31
-78.68
-42.70
-5.03
29.95
59.20
81.41
96.89
106.76
112.30
114.56
114.23
111.78
107.62
102.14
95.68
88.46
80.59
72.22
63.62
55.35
48.15
42.65
39.07
37.00
35.46
33.37
29.98
25.16
19.39
13.37
7.65
2.31
-3.02
-8.84
-15.50
-23.02
-31.03
-38.97
-46.31
-52.86
-58.84
-65.06
-72.73
-83.12
-96.94
-113.68
-131.13
-145.56
-152.52
-148.30
-131.27
-102.63
-66.12
-26.87
10.22
41.79
66.38
84.19
96.16
103.16
105.70
104.10
98.88
90.99
81.78
72.60
64.36
57.35
51.24
45.51
39.76
33.99
28.58
24.16
21.14
19.59
19.08
18.70
17.43
14.34
8.92
1.24
-7.99
-17.77
-27.03
-35.08
-41.75
-47.45
-52.98
-59.32
-67.42
-77.96
-91.16
-106.26
-121.28
-132.96
-137.37
-131.11
-112.63
-83.08
-46.18
-7.11
29.13
59.10
81.42
96.45
105.34
109.30
109.21
105.70
99.52
91.65
83.19
75.11
67.93
61.66
55.99
50.49
44.95
39.36
33.98
29.10
24.87
21.25
18.03
14.95
11.77
8.20
3.98
-1.15
-7.34
-14.54
-22.37
-30.34
-37.98
-45.19
-52.28
-59.95
-69.03
-80.33
-94.34
-110.98
-129.11
-146.23
-158.66
-162.32
-154.06
-132.98
-100.99
-62.29
-21.95
15.55
47.50
73.01
92.46
106.62
116.08
121.20
122.28
119.75
114.19
106.24
96.57
85.90
75.18
65.56
58.05
53.27
51.12
50.80
51.16
51.22
50.43
48.74
46.34
43.28
39.33
34.09
27.21
18.56
8.43
-2.57
-13.74
-24.31
-33.77
-41.77
-48.32
-53.77
-58.97
-65.11
-73.46
-84.84
-98.98
-114.16
-127.26
-134.64
-133.28
-122.01
-101.98
-76.12
-47.91
-20.20
5.40
28.30
48.26
64.88
77.52
85.72
89.58
89.74
87.14
82.45
76.11
68.44
59.68
50.04
39.41
27.42
13.85
-0.38
-13.19
-21.86
-24.66
-22.24
-18.01
-16.87
-22.90
-37.36
-58.07
-80.78
-101.26
-117.49
-130.40
-143.08
-159.13
-181.29
-210.75
-247.30
-289.48
-334.56
-378.49
-416.02
-441.67
-451.34
-443.78
-421.24
-388.74
-352.31
-317.07
-285.96
-259.80
-238.02
-219.74
-204.29
-191.09
-179.45
-168.36
-156.83
-144.33
-131.01
-117.58
-105.02
-94.06
-84.83
-76.87
-69.36
-61.49
-52.82
-43.41
-33.75
-24.50
-16.17
-8.99
-2.79
2.87
8.49
14.42
20.78
27.43
34.06
40.34
46.02
50.95
55.16
58.82
62.22
65.65
69.46
73.79
78.56
83.50
88.11
91.96
94.82
96.93
98.98
101.84
106.25
112.45
119.94
127.68
134.48
139.58
143.13
146.19
150.37
157.11
166.92
179.09
191.89
203.27
211.87
217.71
222.35
228.48
239.03
256.07
280.00
308.99
339.22
365.66
383.42
389.14
382.06
364.03
338.85
310.64
282.20
253.89
223.72
188.54
145.84
95.62
41.30
-10.82
-53.48
-80.97
-91.22
-86.54
-72.66
-56.31
-42.72
-34.13
-29.77
-27.33
-24.84
-22.05
-20.63
-23.08
-30.84
-42.56
-53.39
-56.16
-43.95
-13.28
33.90
90.20
145.24
189.60
218.10
230.81
231.78
226.15
217.70
208.01
197.55
187.23
179.10
175.58
177.56
183.15
187.86
186.39
175.11
153.69
125.06
93.96
65.18
42.10
26.30
17.69
14.99
16.11
18.65
20.25
19.25
15.20
8.77
1.46
-5.49
-12.10
-20.02
-32.23
-52.04
-81.77
-121.51
-168.37
-216.58
-258.79
-288.15
-300.40
-295.08
-275.23
-245.74
-211.24
-174.68
-137.10
-98.75
-60.40
-24.14
7.14
30.99
46.69
55.45
59.47
60.59
59.22
54.61
46.05
33.98
20.45
8.57
1.17
-0.42
3.29
10.40
18.54
25.76
30.94
33.86
35.01
35.16
35.07
35.03
34.74
33.44
30.35
25.32
19.04
12.82
7.81
4.26
1.22
-3.22
-11.15
-24.05
-42.12
-63.91
-86.45
-105.68
-117.39
-118.51
-108.09
-87.76
-61.11
-32.44
-5.29
18.33
37.91
53.74
66.12
75.21
81.17
84.54
86.14
86.67
86.18
84.04
79.36
71.75
61.83
51.15
41.58
34.59
30.75
29.77
30.73
32.41
33.51
32.88
29.68
23.71
15.66
6.88
-1.04
-7.02
-11.02
-14.08
-17.84
-23.76
-32.50
-43.55
-55.63
-67.16
-76.94
-84.66
-91.09
-97.93
-107.14
-119.95
-135.81
-151.91
-163.78
-166.69
-157.54
-136.02
-104.71
-67.93
-30.09
5.49
36.92
63.27
83.96
98.48
106.65
109.05
107.17
103.13
99.07
96.36
95.33
95.23
94.76
92.65
88.34
82.18
75.38
69.54
65.95
65.09
66.49
68.93
70.89
71.03
68.43
62.77
54.39
44.21
33.66
24.06
16.22
10.02
4.45
-1.88
-10.07
-20.47
-32.55
-45.15
-56.95
-66.84
-74.22
-79.09
-82.11
-84.66
-88.62
-95.94
-107.71
-123.32
-140.02
-153.39
-158.49
-151.73
-132.15
-101.86
-65.28
-27.39
7.82
38.34
63.92
85.13
102.13
114.17
120.03
118.92
111.38
99.54
86.40
74.68
65.80
59.52
54.52
49.52
44.14
39.11
35.70
34.83
36.29
38.83
40.67
40.34
37.30
32.02
25.62
19.31
13.83
9.25
4.97
0.10
-6.16
-14.13
-23.53
-33.62
-43.49
-52.50
-60.40
-67.30
-73.45
-79.20
-85.02
-91.64
-100.08
-111.18
-125.01
-140.17
-153.68
-161.61
-160.34
-147.77
-124.14
-91.96
-55.13
-17.77
16.84
46.67
70.89
89.39
102.35
110.03
112.77
111.24
106.40
99.48
91.65
83.73
76.14
69.02
62.49
56.88
52.74
50.55
50.44
51.94
54.07
55.64
55.56
53.23
48.59
42.07
34.43
26.43
18.72
11.72
5.44
-0.44
-6.63
-13.93
-22.93
-33.65
-45.44
-57.11
-67.42
-75.70
-82.31
-88.71
-96.92
-108.67
-124.40
-142.66
-160.19
-172.65
-175.96
-167.65
-147.73
-118.79
-85.05
-50.88
-19.50
7.76
31.28
52.18
71.26
88.36
102.45
112.23
116.95
116.75
112.56
105.69
97.29
88.19
78.93
69.97
61.79
54.92
49.76
46.34
44.33
43.03
41.54
39.01
34.79
28.67
20.92
12.22
3.36
-5.06
-12.84
-20.11
-27.17
-34.24
-41.38
-48.53
-55.70
-63.01
-70.55
-78.27
-85.86
-92.75
-98.43
-102.74
-106.18
-109.86
-115.33
-124.04
-136.71
-152.78
-170.03
-184.78
-192.62
-189.54
-173.14
-143.49
-103.31
-57.28
-10.84
31.08
65.00
89.13
103.10
107.60
104.02
94.36
81.22
67.54
55.96
48.05
43.81
41.75
39.68
35.82
29.51
21.22
11.97
2.46
-7.25
-17.58
-28.77
-40.32
-51.02
-59.44
-64.43
-65.31
-61.60
-52.50
-36.71
-12.86
19.75
60.26
106.12
153.58
198.65
238.00
269.58
292.57
307.15
314.09
314.57
310.02
302.09
292.57
283.06
274.86
268.72
264.75
262.34
260.18
256.45
249.10
236.39
217.43
192.48
162.85
130.42
96.80
62.73
27.87
-8.70
-47.59
-88.04
-127.53
-162.12
-187.73
-201.65
-203.63
-196.25
-183.89
-171.21
-161.50
-155.66
-152.42
-149.37
-144.41
-136.71
-126.94
-116.71
-107.65
-100.79
-96.29
-93.73
-92.41
-91.68
-91.10
-90.36
-89.31
-87.90
-86.29
-84.74
-83.69
-83.62
-84.92
-87.80
-92.26
-98.10
-105.03
-112.88
-121.69
-131.68
-142.99
-155.18
-166.92
-176.03
-179.97
-176.59
-164.78
-144.66
-117.44
-85.11
-50.12
-15.20
16.94
43.97
64.55
78.57
87.01
91.46
93.36
93.55
92.28
89.52
85.36
80.14
74.18
67.55
60.07
51.60
42.41
33.34
25.50
19.73
16.26
14.57
13.77
13.10
12.20
11.11
9.80
7.87
4.42
-1.53
-10.50
-22.14
-35.17
-47.78
-58.36
-66.11
-71.43
-75.69
-80.88
-88.85
-100.73
-116.49
-134.70
-152.67
-166.87
-173.75
-170.70
-156.72
-132.85
-101.78
-67.14
-32.63
-1.20
25.22
45.69
59.97
68.21
70.79
68.53
62.81
55.60
49.01
44.74
43.43
44.37
45.87
46.06
43.84
39.34
33.74
28.46
24.22
20.63
16.28
9.64
-0.11
-12.38
-25.11
-35.33
-40.00
-36.89
-25.42
-6.95
15.45
37.69
55.78
66.83
69.78
65.35
55.50
42.39
27.47
11.02
-7.69
-29.61
-54.84
-81.82
-107.25
-126.75
-136.13
-132.59
-115.55
-86.70
-49.42
-7.92
33.51
71.11
102.00
124.49
138.19
144.04
143.91
140.11
134.71
129.04
123.66
118.40
112.66
105.61
96.57
85.33
72.53
59.83
49.45
43.43
42.64
46.23
51.73
55.99
56.37
51.81
43.07
32.28
21.89
13.61
7.78
3.40
-1.22
-7.67
-16.71
-27.95
-40.16
-51.80
-61.75
-69.80
-76.66
-83.77
-92.75
-104.86
-120.54
-138.99
-158.03
-174.32
-183.95
-183.56
-171.32
-147.72
-115.48
-78.89
-42.59
-10.39
15.41
34.06
45.89
51.72
52.42
48.86
42.02
33.11
23.43
14.00
5.30
-2.85
-11.06
-19.87
-29.33
-38.91
-47.68
-54.79
-59.82
-62.97
-64.80
-65.89
-66.48
-66.29
-64.56
-60.22
-52.33
-40.24
-23.84
-3.56
19.87
45.73
73.75
104.15
137.42
173.70
212.17
250.66
285.92
314.40
333.39
341.83
340.60
332.07
319.04
303.97
288.53
273.67
259.96
247.75
236.87
226.34
214.29
198.33
176.51
148.08
113.83
75.59
35.20
-6.31
-48.76
-91.93
-134.46
-173.24
-203.99
-222.73
-227.49
-219.26
-201.66
-179.57
-157.48
-138.36
-123.35
-112.33
-104.55
-99.07
-94.87
-90.92
-86.27
-80.51
-74.00
-67.95
-64.01
-63.75
-67.99
-76.44
-87.79
-100.01
-110.98
-119.23
-124.56
-128.26
-132.89
-141.34
-155.45
-174.87
-196.46
-214.97
-224.66
-221.25
-203.41
-173.15
-134.88
-93.79
-54.28
-19.03
10.87
35.34
54.60
68.82
78.28
83.59
85.86
86.37
86.24
85.98
85.50
84.35
82.13
78.84
75.01
71.54
69.30
68.69
69.36
70.18
69.71
66.69
60.58
51.69
41.05
29.91
19.29
9.67
0.92
-7.51
-16.30
-25.91
-36.31
-46.93
-56.86
-65.23
-71.71
-76.90
-82.17
-89.27
-99.49
-113.01
-128.50
-143.31
-153.94
-156.98
-149.84
-131.65
-103.50
-68.42
-30.69
5.27
35.97
59.59
76.04
86.46
92.45
95.55
96.94
97.55
98.14
99.33
101.40
104.20
107.03
108.95
109.20
107.57
104.49
100.88
97.68
95.39
93.82
92.07
88.92
83.29
74.75
63.64
50.93
37.74
24.86
12.44
0.28
-11.71
-23.09
-32.72
-39.24
-41.78
-40.70
-37.75
-35.49
-36.45
-42.18
-53.03
-68.37
-87.09
-107.83
-128.87
-147.77
-161.23
-165.61
-158.11
-137.95
-107.06
-69.76
-31.38
3.34
31.56
52.58
67.29
77.04
82.83
85.04
83.81
79.56
73.30
66.42
60.02
54.49
49.34
43.73
37.18
30.01
23.26
18.15
15.38
14.88
16.03
18.14
20.90
24.26
27.98
31.13
32.14
29.35
21.90
10.24
-3.94
-18.44
-31.37
-41.76
-49.71
-56.08
-62.08
-69.07
-78.29
-90.55
-105.72
-122.29
-137.41
-147.36
-148.76
-139.64
-120.26
-93.00
-61.62
-30.07
-1.49
22.42
41.26
55.48
65.65
72.04
74.55
73.07
67.91
60.00
50.77
41.59
33.29
25.85
18.75
11.52
4.18
-2.71
-8.41
-12.67
-16.01
-19.65
-25.01
-32.94
-43.41
-55.40
-67.39
-77.90
-86.05
-91.89
-96.36
-100.80
-106.40
-113.52
-121.35
-127.93
-130.68
-127.26
-116.31
-97.86
-73.36
-45.07
-15.42
13.87
42.33
70.92
101.65
136.59
176.91
222.07
269.77
316.60
359.00
394.05
420.00
436.21
442.86
440.78
431.20
415.60
395.44
371.76
345.00
315.07
281.85
245.66
207.56
169.13
132.03
97.32
65.27
35.37
6.60
-22.34
-52.89
-86.25
-122.83
-161.56
-199.58
-232.70
-256.61
-268.60
-268.65
-259.57
-245.91
-232.20
-221.48
-214.65
-210.81
-208.37
-205.94
-202.83
-198.96
-194.54
-189.82
-185.14
-180.96
-178.05
-177.37
-179.79
-185.47
-193.41
-201.23
-205.40
-202.20
-188.75
-164.06
-129.43
-88.23
-44.87
-3.65
32.17
60.87
81.92
95.60
102.42
103.14
99.04
92.06
84.70
79.24
76.99
77.63
79.52
80.58
79.47
76.21
72.02
68.52
66.63
66.07
65.44
63.00
57.54
48.77
37.40
24.61
11.68
-0.41
-11.04
-19.92
-26.98
-32.44
-36.79
-40.67
-44.71
-49.23
-54.10
-58.92
-63.33
-67.46
-72.16
-78.77
-88.53
-101.82
-117.64
-133.54
-146.18
-152.17
-149.02
-135.75
-113.08
-83.13
-48.92
-13.66
19.80
49.23
73.23
91.22
103.30
110.14
112.75
112.24
109.53
105.24
99.60
92.71
84.76
76.22
67.86
60.60
55.27
52.36
51.89
53.45
56.34
59.70
62.69
64.48
64.39
61.99
57.07
49.80
40.52
29.66
17.58
4.61
-8.84
-22.18
-34.77
-46.02
-55.78
-64.43
-72.86
-82.17
-93.16
-105.86
-119.14
-130.80
-137.97
-137.95
-128.98
-110.95
-85.53
-55.67
-24.80
4.11
29.16
49.70
65.94
78.43
87.57
93.43
95.92
95.09
91.51
86.23
80.53
75.42
71.30
67.96
64.84
61.49
57.90
54.49
51.87
50.40
49.89
49.72
49.00
46.94
43.16
37.71
31.15
24.23
17.63
11.69
6.28
0.83
-5.36
-12.83
-21.70
-31.68
-42.15
-52.38
-61.73
-69.87
-77.00
-83.95
-92.04
-102.69
-116.81
-134.07
-152.49
-168.66
-178.59
-178.84
-167.67
-145.51
-114.90
-79.59
-43.57
-10.13
18.62
41.72
59.10
71.24
79.04
83.71
86.72
89.53
93.18
97.91
103.03
107.30
109.40
108.61
105.05
99.66
93.75
88.54
84.77
82.62
81.77
81.58
81.21
79.77
76.45
70.74
62.57
52.46
41.39
30.47
20.54
11.93
4.47
-2.35
-9.08
-16.10
-23.64
-31.71
-40.22
-48.93
-57.43
-65.29
-72.23
-78.45
-84.68
-91.90
-100.87
-111.39
-121.93
-129.74
-131.57
-124.76
-108.11
-82.36
-49.88
-14.05
21.49
53.15
77.51
91.61
93.80
84.95
69.02
52.19
40.59
37.65
42.54
50.88
57.10
57.25
50.28
37.69
22.10
6.11
-7.71
-16.45
-16.98
-7.14
12.49
37.77
61.99
78.41
82.97
75.85
60.76
42.96
26.85
14.44
5.29
-2.59
-11.20
-21.38
-32.51
-42.90
-50.93
-56.20
-60.21
-65.73
-75.75
-92.11
-114.70
-141.46
-169.12
-193.79
-211.65
-219.69
-216.41
-202.80
-182.77
-162.69
-149.57
-148.48
-160.19
-180.45
-201.33
-214.11
-212.54
-194.84
-163.61
-123.91
-80.70
-36.96
6.70
50.84
95.56
139.18
178.50
210.02
231.53
243.09
246.73
245.16
240.40
233.09
222.46
207.42
187.60
163.89
138.22
112.81
89.16
67.62
47.45
27.30
5.73
-18.53
-46.40
-78.05
-112.39
-146.82
-177.68
-201.53
-216.71
-224.34
-227.82
-230.89
-235.20
-238.81
-236.72
-223.25
-194.92
-152.31
-99.81
-43.63
10.63
59.45
101.51
136.53
164.39
184.45
195.95
198.58
192.84
180.01
161.76
139.96
116.73
94.53
76.10
63.86
59.11
61.36
68.37
76.88
83.89
87.67
88.10
86.17
83.05
79.29
74.67
68.65
61.05
52.43
43.84
36.20
29.68
23.43
15.99
6.03
-6.78
-21.55
-36.37
-49.21
-58.84
-65.45
-70.61
-76.55
-85.13
-96.82
-110.29
-122.43
-129.34
-127.32
-114.20
-90.04
-57.38
-20.66
14.99
45.10
67.07
80.61
87.31
89.63
89.83
89.23
88.10
86.08
82.81
78.25
72.80
67.01
61.47
56.62
52.87
50.75
50.78
53.18
57.47
62.33
65.87
66.24
62.45
54.96
45.59
36.92
31.21
29.42
30.84
33.37
34.40
31.90
25.07
14.47
1.60
-11.88
-24.79
-36.79
-48.35
-60.38
-73.69
-88.39
-103.52
-117.07
-126.34
-128.70
-122.38
-107.03
-83.81
-55.07
-23.77
7.15
35.38
59.47
79.06
94.72
107.57
118.76
128.91
137.85
144.58
147.58
145.31
136.75
121.79
101.51
78.04
54.20
32.86
16.23
5.31
-0.24
-1.85
-1.55
-1.46
-3.43
-8.90
-18.78
-33.25
-51.66
-72.47
-93.55
-112.70
-128.33
-140.02
-148.66
-156.00
-163.94
-173.37
-183.49
-192.06
-195.94
-192.10
-178.34
-153.71
-118.62
-74.73
-24.85
27.10
76.16
117.01
144.99
157.32
154.00
138.04
114.59
89.53
67.83
52.50
44.28
42.12
44.17
48.67
54.51
61.02
67.70
73.76
78.09
79.85
78.43
73.75
65.99
55.23
41.39
24.55
5.39
-14.51
-33.14
-48.90
-61.45
-71.98
-82.74
-95.98
-112.76
-132.47
-152.89
-170.74
-182.61
-185.89
-179.74
-165.75
-147.68
-130.25
-117.05
-108.80
-102.78
-94.03
-77.58
-50.51
-13.07
32.01
80.74
129.24
174.30
213.17
243.31
262.51
269.66
265.52
253.05
236.75
221.36
210.43
205.28
204.85
206.36
206.43
202.18
192.01
175.68
153.99
128.21
99.63
69.41
38.48
7.48
-23.56
-55.38
-89.41
-127.36
-170.21
-217.25
-265.32
-309.05
-341.75
-357.20
-351.46
-324.10
-278.48
-220.76
-158.34
-98.09
-45.20
-2.73
28.10
47.41
56.23
56.38
50.57
42.26
35.17
32.33
35.15
43.01
53.64
64.16
72.38
77.70
80.98
83.85
87.57
92.21
96.59
98.94
97.79
92.71
84.41
74.30
63.83
53.84
44.52
35.50
26.25
16.35
5.66
-5.59
-16.94
-27.76
-37.48
-45.77
-52.80
-59.35
-66.74
-76.34
-89.01
-104.44
-120.81
-135.11
-143.79
-143.96
-134.28
-115.37
-89.59
-60.19
-30.32
-2.39
22.12
42.44
58.17
69.04
74.93
76.08
73.16
67.35
59.99
52.32
45.11
38.59
32.56
26.77
21.18
16.16
12.35
10.38
10.53
12.52
15.54
18.50
20.35
20.41
18.43
14.57
9.18
2.74
-4.41
-12.21
-21.06
-31.79
-45.39
-62.38
-82.06
-102.19
-119.18
-129.05
-128.67
-116.98
-95.26
-66.64
-35.06
-3.97
24.67
50.72
75.46
100.48
126.21
150.67
169.36
176.56
167.75
141.94
102.72
57.19
13.45
-22.19
-46.76
-60.40
-64.88
-62.05
-53.22
-39.61
-23.15
-6.81
5.98
12.45
11.48
3.91
-8.03
-21.64
-34.67
-45.86
-54.99
-62.59
-69.43
-76.10
-82.78
-89.39
-95.80
-102.23
-109.07
-116.49
-123.91
-129.73
-131.54
-126.90
-114.35
-93.99
-67.54
-37.70
-7.26
21.54
47.34
69.43
87.41
101.01
110.02
114.40
114.51
111.11
105.27
98.21
90.94
84.17
78.19
72.98
68.37
64.21
60.48
57.28
54.78
52.98
51.71
50.51
48.72
45.57
40.40
32.83
22.91
11.27
-1.13
-13.33
-24.74
-35.46
-46.17
-57.70
-70.60
-84.68
-98.90
-111.83
-122.16
-129.31
-133.56
-135.73
-136.29
-134.68
-129.07
-117.02
-96.64
-67.72
-32.30
5.68
41.50
70.68
89.43
94.80
84.90
59.90
23.33
-17.35
-51.99
-70.95
-68.81
-46.90
-12.79
22.88
50.75
66.03
69.02
63.14
52.00
37.38
19.35
-2.06
-25.07
-45.54
-57.95
-57.50
-42.07
-13.11
24.92
66.37
106.32
141.54
170.31
191.42
203.11
203.19
190.32
165.82
134.44
103.36
79.25
65.16
58.61
52.48
37.97
8.53
-37.57
-96.84
-162.23
-225.69
-280.04
-320.01
-342.31
-345.39
-329.58
-297.35
-252.93
-201.70
-148.68
-97.17
-47.90
0.50
49.77
99.64
146.31
182.98
202.38
200.28
177.96
142.16
102.42
67.18
40.83
23.12
11.12
2.07
-4.64
-7.48
-4.63
3.96
15.52
25.42
29.42
25.84
16.20
4.09
-7.50
-18.16
-30.25
-46.91
-69.13
-93.94
-115.00
-125.61
-122.18
-106.12
-82.95
-59.22
-39.38
-24.07
-10.79
4.05
23.09
47.06
75.10
105.46
136.12
165.05
190.39
210.47
224.16
230.95
231.04
225.37
215.44
203.19
190.64
179.45
170.33
162.63
154.31
142.42
124.17
98.02
64.68
27.00
-10.83
-44.93
-73.20
-96.00
-115.45
-133.92
-152.56
-170.40
-185.23
-194.94
-198.76
-197.64
-193.47
-188.16
-183.11
-179.57
-179.22
-184.26
-196.47
-215.60
-238.34
-258.47
-268.79
-263.72
-241.48
-204.52
-158.32
-109.01
-61.03
-16.13
26.42
68.28
110.38
151.94
190.56
223.17
247.23
261.65
266.87
264.52
256.65
245.30
232.23
218.89
206.12
193.76
180.15
162.37
137.07
101.96
57.40
6.96
-43.33
-86.98
-119.59
-140.55
-153.09
-162.41
-173.27
-187.86
-205.14
-221.70
-233.24
-236.14
-228.40
-210.07
-183.09
-150.88
-117.50
-86.50
-59.69
-36.62
-15.02
7.78
33.47
62.11
92.33
122.03
148.74
169.62
181.27
180.40
165.25
137.09
100.75
63.58
32.86
13.09
4.18
1.75
-0.99
-10.45
-30.32
-60.21
-95.74
-129.76
-154.33
-163.10
-153.02
-125.22
-84.38
-37.13
9.92
51.85
86.28
113.14
133.77
149.85
162.54
172.30
179.29
184.10
187.64
190.77
193.30
193.16
186.51
168.87
136.86
89.88
31.06
-33.07
-93.68
-141.71
-169.94
-174.71
-156.67
-120.34
-72.87
-22.14
24.52
61.32
84.44
92.16
85.15
66.53
41.49
15.99
-4.93
-18.70
-25.58
-27.80
-28.05
-27.97
-27.84
-27.08
-25.24
-22.58
-19.94
-18.13
-17.40
-17.27
-16.92
-15.71
-13.59
-11.09
-8.97
-7.89
-8.12
-9.53
-11.75
-14.37
-17.16
-19.98
-22.88
-25.94
-29.32
-33.16
-37.61
-42.76
-48.62
-55.19
-62.40
-70.04
-77.40
-83.29
-85.99
-83.72
-75.27
-60.54
-40.73
-18.06
4.96
26.28
44.65
59.59
71.03
78.89
82.96
83.06
79.43
72.88
64.79
56.68
49.73
44.40
40.25
36.34
31.65
25.72
18.80
11.70
5.22
-0.38
-5.53
-11.11
-17.84
-25.77
-34.13
-41.82
-48.05
-52.81
-56.90
-61.48
-67.51
-75.31
-84.61
-94.63
-104.25
-112.02
-116.21
-115.02
-107.10
-92.06
-70.67
-44.71
-16.45
11.93
38.59
62.13
81.46
95.83
105.04
109.66
111.03
110.81
110.46
110.67
111.29
111.60
110.90
108.98
106.26
103.66
102.09
102.08
103.42
105.21
106.01
104.28
98.74
88.72
74.05
55.13
32.81
8.43
-16.17
-38.95
-58.19
-73.22
-84.92
-95.35
-106.92
-121.19
-138.10
-155.89
-171.91
-183.65
-189.42
-188.46
-180.52
-165.48
-143.41
-114.99
-82.01
-47.38
-14.57
13.43
34.94
50.02
60.02
66.94
72.57
78.08
83.87
89.90
95.87
101.44
106.35
110.33
113.12
114.53
114.41
112.73
109.48
104.72
98.62
91.54
84.04
76.79
70.36
64.96
60.52
56.74
53.44
50.70
48.89
48.43
49.50
51.83
54.84
57.76
59.84
60.48
59.16
55.41
48.90
39.63
28.18
15.67
3.78
-5.67
-10.83
-10.08
-2.21
13.39
36.51
65.97
99.50
133.96
165.56
190.50
205.62
209.19
201.46
184.83
163.01
139.68
117.20
95.86
74.43
51.38
26.20
-0.08
-25.27
-47.05
-63.91
-75.50
-82.36
-85.34
-85.29
-83.01
-79.45
-75.79
-73.33
-73.18
-76.11
-82.49
-92.29
-105.00
-119.46
-133.95
-146.59
-156.05
-162.18
-166.08
-169.71
-174.93
-182.73
-192.81
-203.95
-214.68
-223.97
-231.31
-236.24
-237.90
-234.66
-224.60
-206.48
-180.53
-148.78
-114.66
-81.98
-53.70
-31.14
-13.70
0.65
14.41
29.39
46.03
63.26
79.20
92.17
101.40
107.39
111.45
114.97
118.78
122.91
126.78
129.61
130.66
129.39
125.42
118.68
109.59
99.15
88.59
79.02
70.88
63.98
57.80
51.96
46.60
42.19
39.20
37.62
36.73
35.29
31.95
25.65
15.93
3.10
-11.78
-26.80
-39.36
-46.61
-46.14
-36.89
-19.65
2.84
26.65
47.78
63.42
72.67
76.59
77.59
78.39
81.06
86.36
93.67
101.18
106.55
107.68
103.32
93.42
79.10
62.32
45.39
30.54
19.66
13.97
13.67
17.60
23.33
27.71
27.85
22.16
10.69
-5.28
-24.19
-45.17
-68.34
-94.41
-123.87
-156.45
-191.02
-225.98
-259.71
-290.90
-318.60
-342.20
-361.55
-377.08
-390.02
-402.17
-415.61
-431.91
-451.31
-472.12
-490.63
-501.94
-501.47
-486.55
-457.50
-417.73
-372.34
-326.47
-283.64
-245.08
-210.12
-177.31
-145.33
-113.45
-81.54
-49.79
-18.57
11.47
39.38
64.01
84.46
100.61
113.31
124.29
135.53
148.47
163.45
179.70
195.82
210.49
223.03
233.50
242.34
249.81
255.43
257.88
255.40
246.55
231.01
209.98
185.96
161.96
140.57
123.18
109.82
99.41
90.40
81.24
70.57
57.25
40.17
18.60
-7.47
-36.72
-66.29
-92.15
-109.93
-116.15
-109.25
-90.09
-61.78
-28.75
4.44
34.22
58.64
77.33
90.95
100.21
105.22
105.26
99.29
86.79
68.43
46.20
22.91
1.24
-17.04
-31.29
-41.55
-47.91
-50.07
-47.55
-40.22
-28.90
-15.33
-1.63
10.58
20.58
28.45
34.40
38.26
39.39
37.10
31.27
22.65
12.67
2.87
-5.71
-12.69
-18.11
-21.93
-23.84
-23.56
-21.32
-18.26
-15.91
-15.28
-15.94
-15.71
-11.49
-0.74
17.09
40.19
65.05
88.17
107.40
122.53
134.66
144.99
153.81
160.34
163.18
161.07
153.56
141.10
124.91
106.71
88.30
71.41
57.43
47.30
41.43
39.74
41.79
46.90
54.15
62.26
69.51
73.87
73.35
66.46
52.74
33.10
9.76
-13.96
-34.22
-47.37
-50.80
-43.46
-26.01
-0.43
30.58
64.00
96.47
123.85
141.41
144.59
130.60
99.72
55.92
6.05
-41.88
-80.36
-103.67
-108.63
-95.10
-66.39
-29.37
6.66
32.41
42.02
35.68
19.95
5.16
0.99
12.35
37.57
69.77
100.18
121.84
131.76
130.99
123.00
111.39
98.41
84.64
69.75
53.54
36.62
20.37
6.22
-5.20
-14.52
-23.44
-33.95
-47.39
-63.77
-81.93
-100.03
-116.40
-130.01
-140.52
-148.06
-152.99
-155.92
-157.73
-159.59
-162.61
-167.24
-172.77
-177.26
-178.05
-172.69
-159.83
-139.68
-113.92
-85.04
-55.61
-27.71
-2.69
18.70
36.10
49.36
58.58
64.16
66.96
68.10
68.71
69.55
70.75
71.93
72.43
71.88
70.35
68.33
66.45
65.05
63.87
62.06
58.44
51.93
42.21
29.98
16.99
5.59
-2.14
-5.22
-4.32
-1.75
-0.77
-4.71
-15.98
-35.49
-62.30
-93.67
-125.40
-152.46
-170.08
-174.94
-166.17
-145.67
-117.43
-86.26
-56.42
-30.64
-10.00
5.62
16.83
24.34
28.74
30.57
30.29
28.28
24.72
19.79
13.78
7.29
1.07
-4.28
-8.57
-11.97
-14.54
-15.66
-13.58
-6.03
8.60
29.56
52.99
72.66
82.17
77.44
58.25
28.02
-7.83
-43.60
-74.40
-96.33
-106.53
-103.43
-87.78
-63.29
-36.22
-13.36
0.53
4.63
2.00
-2.35
-4.03
-1.19
5.33
13.13
19.84
24.32
26.74
27.98
28.79
29.21
28.63
26.26
21.72
15.42
8.37
1.69
-4.14
-9.39
-15.01
-21.94
-30.66
-40.87
-51.77
-62.20
-70.67
-75.28
-73.62
-63.25
-42.40
-10.81
29.75
75.69
122.34
165.13
200.38
225.88
240.95
246.28
243.67
235.80
225.65
215.80
207.63
200.68
192.81
180.86
161.91
134.30
98.28
55.79
9.67
-37.12
-82.24
-123.94
-160.86
-191.64
-214.91
-229.35
-234.16
-229.28
-215.46
-194.11
-167.02
-136.09
-103.10
-69.73
-37.57
-8.24
16.64
35.78
48.46
54.68
55.04
50.41
41.75
29.99
16.44
2.84
-8.73
-16.57
-19.99
-19.76
-17.82
-16.42
-17.16
-20.39
-25.29
-30.32
-33.93
-34.98
-32.97
-28.14
-21.35
-14.01
-7.69
-3.71
-2.59
-3.80
-5.83
-6.62
-4.12
3.07
15.35
32.06
51.51
71.48
89.62
104.10
114.01
119.54
121.75
121.94
121.09
119.45
116.48
111.23
102.90
91.25
76.80
60.67
44.19
28.55
14.65
3.02
-6.12
-12.80
-17.39
-20.57
-23.18
-26.04
-29.65
-34.11
-39.16
-44.37
-49.35
-53.99
-58.45
-63.09
-68.30
-74.21
-80.54
-86.31
-89.98
-89.71
-83.95
-72.10
-54.94
-34.64
-14.18
3.62
16.91
25.30
29.63
31.39
31.94
32.01
31.64
30.59
28.69
26.18
23.57
21.26
19.35
17.58
15.58
13.18
10.65
8.52
7.33
7.20
7.66
7.81
6.64
3.51
-1.67
-8.34
-15.64
-22.66
-28.83
-34.10
-39.02
-44.54
-51.60
-60.74
-71.57
-82.66
-91.70
-96.12
-93.87
-84.06
-67.34
-45.68
-21.78
1.75
22.92
40.76
55.13
66.35
74.79
80.60
83.82
84.48
82.95
79.93
76.30
72.84
70.01
67.84
66.17
64.94
64.30
64.55
65.94
68.37
71.37
74.12
75.76
75.70
73.77
70.33
66.13
62.23
59.68
59.24
60.96
63.83
65.72
63.72
54.88
36.98
9.10
-28.17
-72.91
-122.18
-172.31
-219.29
-259.04
-288.01
-303.73
-305.21
-293.07
-269.25
-236.53
-197.93
-156.41
-114.67
-75.08
-39.42
-8.83
16.30
36.16
51.24
62.11
69.33
73.48
75.13
74.89
73.32
70.83
67.66
63.90
59.66
55.10
50.48
46.08
42.19
38.96
36.36
34.30
32.57
31.05
29.81
29.17
29.60
31.43
34.55
38.16
40.93
41.37
38.34
31.69
22.26
11.58
1.35
-7.24
-13.75
-18.40
-21.70
-24.12
-25.95
-27.40
-28.82
-30.85
-34.30
-39.95
-48.09
-58.21
-68.91
-78.01
-83.03
-81.84
-73.31
-57.82
-37.20
-14.37
7.58
26.15
40.00
49.13
54.43
57.15
58.28
58.37
57.51
55.63
52.80
49.32
45.73
42.54
40.04
38.15
36.45
34.37
31.46
27.55
22.82
17.72
12.87
8.92
6.45
5.83
7.06
9.78
13.25
16.46
18.52
18.83
17.24
14.00
9.56
4.29
-1.55
-7.79
-14.20
-20.50
-26.33
-31.51
-35.99
-40.06
-44.14
-48.72
-54.26
-61.10
-69.47
-79.29
-90.00
-100.38
-108.66
-112.81
-111.12
-102.67
-87.68
-67.42
-43.92
-19.46
3.89
24.50
41.41
54.26
63.20
68.67
71.28
71.63
70.25
67.60
64.06
60.03
55.96
52.31
49.51
47.81
47.27
47.74
48.88
50.25
51.36
51.82
51.27
49.48
46.29
41.62
35.56
28.35
20.36
12.02
3.56
-4.98
-13.78
-23.04
-32.70
-42.28
-50.85
-57.37
-61.17
-62.32
-61.75
-61.07
-61.93
-65.57
-72.37
-81.72
-92.23
-101.92
-108.64
-110.41
-105.74
-94.06
-75.88
-52.79
-27.01
-0.81
24.11
46.87
67.32
85.64
101.89
115.78
126.80
134.45
138.55
139.41
137.91
135.45
133.81
134.64
138.68
145.04
151.14
153.49
149.19
137.38
119.76
99.93
81.76
67.82
58.61
52.90
48.68
44.06
37.71
28.89
17.31
3.19
-12.58
-28.46
-42.66
-53.68
-60.81
-64.29
-65.26
-65.65
-67.98
-75.08
-89.35
-111.95
-142.02
-176.66
-211.56
-242.04
-264.07
-274.86
-272.93
-258.28
-232.36
-198.04
-159.18
-119.61
-82.13
-47.79
-16.14
13.77
42.35
68.97
92.45
111.89
127.42
139.97
150.58
159.55
166.17
169.26
168.00
162.61
154.30
144.68
135.05
125.92
117.12
108.19
98.93
89.58
80.72
72.85
66.10
60.08
54.10
47.53
40.07
32.05
24.18
17.23
11.54
6.68
1.58
-5.03
-13.95
-25.05
-37.21
-48.74
-57.98
-64.03
-67.17
-68.69
-70.70
-75.60
-85.76
-103.23
-129.19
-163.23
-202.69
-242.43
-275.66
-295.62
-297.86
-281.92
-251.78
-214.66
-178.45
-149.19
-129.34
-117.72
-110.80
-104.53
-95.91
-83.62
-67.83
-49.48
-29.64
-9.09
11.57
31.58
49.92
65.35
76.65
83.20
85.30
84.32
82.34
81.52
83.32
88.00
94.69
101.98
108.74
114.81
120.99
128.46
137.79
148.20
157.54
163.03
162.43
155.13
142.57
127.70
113.92
103.84
98.42
96.78
96.68
95.32
90.26
80.05
64.64
45.40
24.86
6.23
-7.33
-13.35
-10.70
0.20
17.38
37.79
58.05
75.31
87.83
95.13
97.64
96.00
90.69
81.92
70.02
55.82
40.82
26.91
15.79
8.54
5.51
6.60
11.65
20.51
32.80
47.50
62.66
75.62
83.53
83.99
75.74
58.88
35.04
7.26
-20.28
-43.01
-56.91
-59.72
-51.83
-36.35
-18.24
-2.78
6.06
6.53
-1.00
-14.84
-32.99
-53.79
-75.98
-98.26
-119.06
-136.54
-148.98
-155.27
-155.06
-148.74
-137.26
-121.94
-104.43
-86.56
-70.02
-56.03
-44.95
-36.21
-28.86
-22.21
-16.33
-12.14
-10.93
-13.64
-20.21
-29.37
-39.09
-47.19
-52.14
-53.36
-51.16
-46.38
-39.86
-32.18
-23.70
-14.83
-6.28
0.89
5.52
6.79
4.59
-0.32
-6.62
-12.94
-18.38
-22.69
-26.26
-29.72
-33.60
-38.11
-43.10
-48.27
-53.40
-58.43
-63.57
-69.09
-75.28
-82.30
-90.25
-99.24
-109.40
-120.73
-132.70
-144.00
-152.45
-155.47
-150.84
-137.51
-116.05
-88.57
-58.00
-27.28
1.26
26.25
47.14
63.97
77.05
86.87
93.95
98.82
101.92
103.65
104.35
104.34
103.94
103.41
102.85
102.27
101.63
100.89
100.09
99.30
98.58
97.95
97.26
96.35
94.99
92.90
89.71
85.03
78.62
70.59
61.49
52.19
43.54
35.89
28.80
21.03
10.97
-2.69
-20.30
-40.98
-62.85
-83.66
-101.58
-115.69
-126.24
-134.37
-141.68
-149.69
-159.27
-170.33
-181.60
-190.74
-194.86
-191.17
-177.96
-155.11
-124.23
-88.33
-50.97
-15.47
15.82
41.72
62.22
77.94
89.80
98.58
104.83
108.88
111.03
111.64
111.17
110.07
108.67
107.27
106.21
106.02
107.45
111.19
117.48
125.83
135.07
143.58
149.84
152.96
152.93
150.56
147.09
143.59
140.51
137.34
132.65
124.65
111.95
94.31
73.10
51.07
31.53
17.15
8.78
4.80
1.36
-6.66
-24.17
-54.23
-96.78
-148.22
-202.26
-251.70
-290.95
-317.67
-333.31
-341.82
-347.52
-353.06
-358.56
-361.76
-359.39
-348.42
-326.98
-295.20
-255.84
-214.63
-179.56
-158.54
-156.10
-170.57
-193.78
-213.71
-219.17
-204.18
-169.97
-123.84
-75.53
-33.20
-0.91
21.65
37.62
50.68
63.24
75.73
86.99
95.28
99.43
99.60
97.26
94.45
92.52
91.55
90.41
87.82
83.50
78.95
77.09
81.00
92.37
110.28
131.16
150.01
162.34
165.73
160.52
149.07
134.17
117.55
99.34
78.78
55.56
30.88
7.76
-9.80
-18.30
-16.10
-3.99
15.19
37.65
59.87
79.44
95.22
107.07
115.19
119.75
120.80
118.42
113.09
105.74
97.61
89.92
83.42
78.35
74.49
71.44
68.90
66.68
64.74
63.10
61.78
60.79
60.06
59.34
58.21
56.14
52.61
47.42
40.66
32.62
23.63
13.88
3.40
-7.71
-19.16
-30.36
-40.66
-49.64
-57.40
-64.71
-72.84
-83.15
-96.60
-113.12
-131.30
-148.37
-160.80
-165.24
-159.54
-143.40
-118.46
-87.64
-54.22
-21.09
9.74
37.12
60.54
79.82
94.93
105.90
112.83
115.92
115.65
112.72
108.10
102.82
97.73
93.29
89.58
86.45
83.70
81.34
79.36
77.73
76.10
73.94
70.62
65.81
59.59
52.41
44.90
37.55
30.53
23.58
16.25
8.02
-1.43
-12.02
-23.21
-34.06
-43.46
-50.60
-55.38
-58.61
-61.92
-67.23
-76.11
-89.22
-106.00
-124.64
-142.40
-156.04
-162.49
-159.50
-146.21
-123.45
-93.60
-59.97
-25.94
5.78
33.52
56.65
75.13
89.25
99.35
105.84
109.27
110.29
109.60
107.79
105.25
102.16
98.67
94.91
91.05
87.19
83.35
79.41
75.35
71.24
67.27
63.52
59.70
55.19
49.18
41.04
30.76
19.00
6.88
-4.49
-14.43
-22.89
-30.30
-37.24
-44.05
-50.77
-57.16
-62.98
-68.22
-73.21
-78.55
-84.87
-92.53
-101.43
-111.01
-120.68
-130.23
-139.87
-150.05
-160.73
-170.92
-178.56
-180.95
-175.52
-160.57
-135.76
-102.16
-62.08
-18.57
25.01
65.51
100.52
128.72
149.95
165.03
175.24
181.82
185.72
187.57
187.72
186.07
181.93
173.96
160.49
140.35
113.72
82.74
51.44
24.73
7.22
1.92
9.52
28.17
53.75
80.31
100.98
109.33
101.13
75.87
37.24
-7.83
-51.52
-87.66
-113.47
-129.47
-138.10
-141.84
-142.01
-138.81
-132.01
-121.59
-107.70
-90.34
-69.32
-44.87
-18.54
6.50
26.17
37.04
37.92
30.18
16.90
1.34
-14.23
-28.69
-41.25
-50.65
-55.07
-52.94
-44.01
-29.83
-13.21
3.01
17.09
28.79
38.86
48.22
57.17
65.15
71.05
73.69
72.34
66.96
58.12
46.83
34.23
21.33
8.77
-3.10
-14.21
-24.51
-33.86
-41.92
-48.31
-52.84
-55.77
-57.95
-60.61
-65.04
-72.04
-81.46
-92.03
-101.54
-107.47
-107.72
-101.19
-88.04
-69.47
-47.20
-23.04
1.37
24.61
45.43
62.77
75.81
84.26
88.37
88.85
86.60
82.49
77.16
71.15
64.92
58.91
53.53
49.02
45.38
42.48
40.07
37.95
35.95
33.93
31.69
28.91
25.20
20.19
13.69
5.83
-2.99
-12.15
-21.01
-29.09
-36.18
-42.40
-48.14
-53.99
-60.62
-68.56
-77.89
-87.97
-97.24
-103.36
-103.80
-96.63
-81.20
-58.49
-30.76
-0.96
27.95
53.45
73.67
87.30
93.71
93.04
86.30
75.23
61.91
48.23
35.52
24.51
15.55
8.95
5.01
3.99
5.67
9.24
13.38
16.66
18.08
17.41
15.23
12.55
10.25
8.60
7.18
5.03
1.10
-5.29
-14.22
-25.17
-37.22
-49.34
-60.63
-70.54
-79.02
-86.49
-93.78
-101.83
-111.22
-121.71
-131.93
-139.56
-141.86
-136.58
-122.84
-101.48
-74.83
-46.02
-18.00
7.13
28.33
45.42
58.64
68.36
74.86
78.53
79.91
79.70
78.61
77.09
75.25
72.91
69.85
66.11
62.07
58.39
55.71
54.40
54.39
55.14
55.86
55.70
54.00
50.39
44.87
37.82
29.93
21.99
14.68
8.34
2.83
-2.38
-7.94
-14.37
-21.79
-29.92
-38.23
-46.24
-53.66
-60.63
-67.69
-75.63
-85.24
-96.96
-110.49
-124.47
-136.50
-143.56
-142.81
-132.58
-112.98
-85.98
-54.86
-23.28
5.79
30.57
50.52
65.91
77.32
85.17
89.66
90.93
89.34
85.54
80.45
75.03
70.01
65.76
62.31
59.54
57.37
55.85
55.10
55.10
55.61
56.11
55.97
54.67
51.97
47.97
43.05
37.64
32.08
26.60
21.26
15.95
10.52
4.75
-1.58
-8.62
-16.33
-24.50
-32.75
-40.65
-47.83
-54.08
-59.44
-64.26
-69.16
-74.97
-82.53
-92.38
-104.42
-117.60
-129.94
-138.73
-141.23
-135.39
-120.50
-97.41
-68.40
-36.52
-4.93
23.75
47.80
66.48
79.81
88.32
92.80
94.14
93.24
90.92
87.80
84.32
80.72
77.18
73.86
70.97
68.68
67.10
66.16
65.72
65.58
65.64
65.73
65.49
64.20
60.89
54.61
44.98
32.43
18.27
4.22
-8.15
-18.02
-25.43
-31.17
-36.22
-41.36
-46.91
-52.67
-58.19
-63.03
-66.96
-70.12
-72.99
-76.20
-80.48
-86.49
-94.67
-105.07
-117.04
-128.93
-138.10
-141.51
-136.48
-121.86
-98.52
-69.18
-37.43
-6.57
21.35
45.57
66.19
83.39
97.03
106.63
111.84
112.83
110.34
105.47
99.22
92.24
84.82
77.12
69.55
62.79
57.67
54.81
54.24
55.27
56.71
57.23
55.86
52.24
46.59
39.40
31.20
22.39
13.24
4.04
-4.89
-13.27
-20.91
-27.66
-33.35
-37.72
-40.43
-41.32
-40.65
-39.29
-38.64
-40.24
-45.45
-54.89
-68.19
-83.83
-99.27
-111.27
-116.66
-113.09
-99.74
-77.69
-49.70
-19.48
9.19
33.38
51.45
63.18
69.45
71.71
71.44
69.78
67.39
64.52
61.21
57.59
53.91
50.57
47.94
46.13
45.13
44.77
44.88
45.39
46.18
46.98
47.27
46.36
43.58
38.61
31.61
23.22
14.38
5.99
-1.33
-7.34
-12.17
-16.12
-19.63
-23.12
-27.04
-31.65
-37.04
-43.01
-49.14
-55.01
-60.37
-65.28
-70.14
-75.55
-82.17
-90.31
-99.70
-109.19
-116.81
-120.03
-116.47
-104.63
-84.48
-57.63
-26.95
4.20
32.68
56.18
73.47
84.34
89.44
89.99
87.46
83.25
78.43
73.62
69.08
64.90
61.15
57.99
55.58
53.96
52.99
52.47
52.20
52.17
52.46
53.02
53.52
53.34
51.65
47.84
41.76
33.89
25.18
16.75
9.44
3.69
-0.48
-3.41
-5.61
-7.68
-10.29
-14.00
-19.16
-25.80
-33.48
-41.50
-49.17
-56.04
-62.08
-67.79
-73.99
-81.53
-90.92
-101.93
-113.27
-122.71
-127.44
-124.90
-113.62
-93.79
-67.40
-37.75
-8.52
17.16
37.31
51.34
59.68
63.29
63.23
60.44
55.79
50.20
44.66
40.12
37.21
36.04
36.16
36.80
37.20
36.95
36.12
35.14
34.52
34.62
35.41
36.45
37.02
36.33
33.81
29.34
23.31
16.58
10.11
4.65
0.35
-3.21
-6.80
-11.08
-16.13
-21.24
-25.10
-26.44
-24.60
-20.01
-14.16
-9.19
-7.15
-9.47
-16.76
-28.69
-44.22
-61.74
-79.26
-94.71
-106.20
-112.44
-112.90
-107.86
-98.22
-85.26
-70.40
-55.07
-40.64
-28.24
-18.63
-12.02
-7.97
-5.63
-3.90
-1.86
1.07
4.94
9.39
13.76
17.36
19.68
20.59
20.34
19.31
17.89
16.24
14.40
12.30
10.05
8.02
6.69
6.54
7.91
10.89
15.10
19.31
21.44
19.03
10.39
-4.10
-21.13
-34.97
-39.20
-29.33
-4.91
29.85
67.39
99.41
119.67
125.56
118.16
101.08
78.94
56.37
37.75
27.03
27.16
39.23
61.50
89.06
114.88
132.04
136.03
126.31
106.17
80.98
55.88
33.94
15.71
-0.17
-15.58
-31.76
-48.74
-65.52
-80.53
-92.33
-99.90
-102.99
-101.97
-97.61
-90.93
-82.91
-74.36
-65.73
-57.00
-47.65
-36.85
-23.87
-8.63
7.82
23.14
34.07
37.35
30.74
14.08
-10.39
-38.47
-65.26
-86.74
-101.11
-109.08
-113.16
-116.28
-120.39
-125.93
-132.15
-137.91
-142.44
-145.40
-146.33
-144.08
-136.77
-122.50
-100.44
-71.65
-39.01
-6.32
22.81
45.81
61.58
70.13
72.24
69.17
62.44
53.74
44.75
36.91
31.22
28.27
28.34
31.66
38.64
49.75
65.33
85.18
108.25
132.51
155.06
172.73
182.91
184.34
177.56
164.82
149.19
133.55
119.62
107.60
96.38
84.40
70.38
53.85
35.36
16.22
-2.03
-18.00
-30.88
-40.65
-48.03
-54.22
-60.56
-67.99
-76.59
-85.46
-92.68
-95.88
-92.77
-81.91
-63.11
-37.65
-8.01
22.56
50.72
73.64
89.55
97.99
99.90
97.30
92.77
88.76
86.95
87.83
90.69
93.97
95.85
94.84
90.18
82.00
71.05
58.42
45.17
32.10
19.69
8.11
-2.65
-12.78
-22.54
-32.30
-42.46
-53.32
-64.91
-76.93
-88.68
-99.25
-107.85
-114.11
-118.34
-121.47
-124.80
-129.58
-136.63
-145.96
-156.67
-167.05
-174.79
-177.55
-173.50
-161.85
-143.15
-119.21
-92.65
-66.16
-41.97
-21.39
-4.88
7.69
16.76
22.86
26.57
28.47
29.12
28.97
28.37
27.66
27.17
27.39
28.80
31.77
36.35
42.15
48.41
54.19
58.59
60.90
60.88
58.70
55.06
50.98
47.49
45.24
44.14
43.29
41.21
36.51
28.39
17.05
3.58
-10.43
-23.45
-34.54
-43.66
-51.64
-59.84
-69.65
-81.86
-96.20
-111.17
-124.39
-133.25
-135.77
-131.13
-119.85
-103.48
-83.96
-63.03
-41.94
-21.43
-1.95
16.05
31.98
45.27
55.47
62.50
66.74
68.91
69.82
70.00
69.65
68.67
66.94
64.83
63.21
63.21
65.52
69.98
75.35
79.87
81.99
81.03
77.38
72.09
66.21
60.26
54.13
47.46
39.97
31.79
23.13
13.98
3.81
-8.23
-22.79
-39.80
-58.19
-76.24
-92.21
-105.01
-114.37
-120.50
-123.36
-122.40
-116.72
-105.81
-90.23
-71.73
-52.46
-33.84
-15.61
3.97
27.10
54.93
86.55
119.11
149.11
173.91
192.86
207.25
219.16
230.09
239.92
247.05
249.28
245.24
235.22
221.20
206.00
192.01
180.25
170.22
160.44
149.42
136.43
121.64
105.72
89.24
72.19
54.04
34.08
11.90
-12.22
-37.48
-62.73
-86.78
-108.73
-127.91
-143.98
-156.83
-166.67
-173.91
-179.12
-182.79
-185.21
-186.46
-186.48
-185.29
-183.13
-180.65
-178.75
-178.50
-180.74
-185.74
-192.82
-200.32
-205.82
-206.66
-200.73
-187.01
-165.81
-138.76
-108.29
-77.19
-47.93
-22.35
-1.32
15.25
28.11
38.24
46.33
52.58
56.72
58.29
57.12
53.51
48.20
42.14
36.35
31.90
29.90
31.42
37.01
46.14
56.78
65.74
69.69
66.45
55.98
40.50
23.58
8.84
-1.28
-6.12
-6.46
-3.97
-0.37
2.95
5.09
5.57
4.26
1.41
-2.53
-7.06
-11.82
-16.84
-22.57
-29.62
-38.48
-49.02
-60.24
-70.22
-76.51
-76.72
-69.18
-53.54
-30.85
-3.35
26.14
54.89
80.85
102.95
120.95
135.23
146.35
154.77
160.70
164.14
165.00
163.23
158.98
152.52
144.34
135.04
125.30
115.72
106.71
98.34
90.29
81.99
72.71
61.93
49.49
35.76
21.40
7.22
-6.16
-18.48
-29.88
-40.81
-51.84
-63.55
-76.38
-90.40
-105.20
-119.73
-132.45
-141.62
-145.96
-145.22
-140.43
-133.58
-126.77
-121.18
-116.53
-111.12
-102.79
-89.96
-72.46
-51.57
-29.41
-7.97
11.57
28.98
44.63
58.85
71.53
82.08
89.65
93.51
93.25
88.92
80.94
70.02
57.16
43.49
30.17
18.11
7.78
-0.88
-8.45
-15.72
-23.41
-31.78
-40.53
-48.78
-55.23
-58.49
-57.50
-51.86
-42.09
-29.72
-16.85
-5.72
2.02
5.59
5.17
1.55
-4.24
-11.29
-18.85
-26.30
-33.11
-38.96
-43.89
-48.45
-53.59
-60.36
-69.42
-80.59
-92.63
-103.29
-109.82
-109.69
-101.41
-85.14
-62.69
-37.03
-11.34
11.83
31.10
46.22
57.66
66.09
71.96
75.61
77.32
77.51
76.65
75.21
73.41
71.29
68.75
65.77
62.48
59.23
56.52
54.80
54.44
55.51
57.79
60.73
63.58
65.48
65.76
64.00
60.09
54.16
46.43
37.25
27.06
16.41
5.99
-3.71
-12.57
-20.91
-29.36
-38.44
-48.15
-57.80
-66.32
-72.78
-76.93
-79.41
-81.57
-84.90
-90.55
-98.90
-109.38
-120.47
-129.74
-134.19
-130.79
-117.28
-93.15
-60.09
-21.70
17.36
52.76
81.64
102.95
117.00
124.57
126.03
121.17
109.64
91.65
68.53
42.61
16.63
-7.10
-27.16
-43.00
-54.41
-61.01
-62.05
-56.61
-44.26
-25.51
-2.05
23.60
48.59
70.46
87.71
100.08
108.43
114.29
119.11
123.57
127.26
128.80
126.55
119.31
106.80
89.67
69.27
47.31
25.69
6.47
-8.28
-17.03
-19.38
-16.56
-11.39
-7.47
-8.04
-14.82
-27.38
-43.34
-59.20
-71.33
-77.00
-74.88
-65.16
-49.37
-29.89
-9.40
9.70
25.66
37.68
45.71
50.15
51.45
49.86
45.46
38.45
29.42
19.47
10.03
2.42
-2.61
-5.01
-5.46
-5.00
-4.78
-5.73
-8.50
-13.27
-19.85
-27.58
-35.59
-43.07
-49.61
-55.41
-61.16
-67.73
-75.75
-85.34
-96.06
-107.18
-117.92
-127.62
-135.76
-141.98
-146.10
-148.24
-148.99
-149.49
-151.05
-154.66
-160.36
-166.90
-171.84
-172.16
-165.14
-149.10
-123.77
-90.24
-50.66
-7.74
35.48
75.82
110.21
136.02
151.67
156.99
153.48
143.91
131.59
119.47
109.60
103.02
99.96
100.37
104.23
111.64
122.64
136.88
153.35
170.40
185.89
197.66
203.95
203.72
196.78
183.57
165.03
142.38
117.04
90.56
64.49
40.21
18.64
0.22
-15.18
-27.95
-38.57
-47.48
-55.09
-61.86
-68.39
-75.39
-83.58
-93.53
-105.41
-118.78
-132.44
-144.52
-152.86
-155.54
-151.57
-141.07
-125.16
-105.41
-83.39
-60.42
-37.69
-16.50
1.69
15.61
24.59
28.85
29.47
27.89
25.37
22.67
20.19
18.17
16.96
16.92
18.26
20.77
23.86
26.77
28.96
30.23
30.62
30.29
29.30
27.51
24.80
21.17
16.92
12.53
8.48
4.99
1.90
-1.26
-4.98
-9.63
-15.26
-21.64
-28.40
-35.13
-41.49
-47.24
-52.35
-56.98
-61.72
-67.46
-75.32
-86.15
-99.97
-115.49
-130.13
-140.60
-143.84
-138.09
-123.52
-102.06
-76.72
-50.55
-25.89
-4.10
14.21
28.78
39.42
46.02
48.78
48.40
46.03
42.90
39.99
37.61
35.46
32.76
28.81
23.21
16.18
8.41
0.82
-5.72
-10.69
-14.00
-15.91
-17.04
-18.37
-21.07
-26.22
-34.09
-43.59
-52.19
-56.64
-54.19
-43.84
-26.89
-6.49
13.47
29.62
39.86
43.42
40.35
31.25
17.09
-0.61
-19.84
-38.42
-54.63
-67.63
-77.38
-84.04
-87.31
-86.10
-78.80
-64.02
-41.38
-11.95
21.94
57.20
90.63
119.41
141.31
154.84
159.53
155.97
145.97
132.07
116.74
101.63
87.17
72.73
57.34
40.48
22.42
4.31
-12.38
-26.29
-36.50
-42.69
-45.12
-44.54
-42.03
-38.85
-36.13
-34.62
-34.58
-35.85
-38.09
-40.94
-44.11
-47.27
-50.08
-52.18
-53.45
-54.15
-54.98
-56.81
-60.29
-65.57
-72.19
-79.27
-85.81
-90.90
-93.66
-93.15
-88.39
-78.58
-63.50
-43.84
-21.22
2.29
24.75
44.90
62.31
77.18
89.82
100.18
107.82
112.16
113.11
111.43
108.65
106.54
106.28
108.00
110.76
113.18
114.08
113.15
110.87
108.22
106.10
105.12
105.63
107.81
111.86
117.77
125.09
132.82
139.43
143.31
143.14
138.30
129.05
116.47
102.12
87.57
73.94
61.61
50.32
39.38
28.11
16.11
3.40
-9.75
-22.96
-36.02
-49.15
-62.95
-78.36
-96.25
-116.89
-139.42
-161.72
-180.69
-192.99
-196.08
-188.93
-172.35
-148.75
-121.30
-93.16
-66.87
-43.96
-25.18
-10.73
-0.47
5.98
9.29
10.46
10.65
10.87
11.69
13.00
14.25
14.78
14.28
13.05
11.80
11.39
12.34
14.72
18.13
21.93
25.57
28.65
30.93
32.13
31.90
29.72
25.26
18.59
10.46
2.27
-4.32
-7.93
-8.03
-5.14
-0.77
3.10
4.79
3.41
-0.80
-6.79
-13.14
-18.64
-22.75
-25.66
-28.15
-31.31
-36.06
-42.88
-51.45
-60.56
-68.33
-72.52
-71.38
-64.10
-51.15
-34.12
-15.15
3.66
20.74
35.15
46.40
54.22
58.49
59.29
56.96
52.19
45.94
39.21
32.77
27.04
22.03
17.51
13.36
9.75
7.17
6.27
7.51
10.85
15.64
20.75
24.93
27.29
27.51
26.04
23.79
21.83
20.95
21.49
23.27
25.77
28.28
30.07
30.52
29.22
26.02
21.07
14.82
7.87
0.79
-6.02
-12.34
-18.03
-23.02
-27.22
-30.75
-33.99
-37.71
-42.89
-50.28
-60.00
-71.17
-81.94
-89.91
-92.80
-89.20
-78.94
-63.17
-43.90
-23.40
-3.70
13.80
28.33
39.66
47.91
53.41
56.59
57.99
58.08
57.23
55.69
53.58
51.01
48.09
45.03
42.11
39.74
38.32
38.12
39.19
41.23
43.69
45.89
47.20
47.25
45.95
43.39
39.69
34.95
29.32
23.10
16.81
11.07
6.36
2.76
0.01
-2.36
-4.69
-6.99
-8.98
-10.15
-10.16
-8.97
-6.95
-4.75
-3.14
-2.75
-3.99
-6.98
-11.55
-17.28
-23.41
-28.87
-32.28
-32.27
-27.75
-18.40
-4.87
11.31
28.10
43.54
56.18
65.38
71.13
73.80
73.82
71.46
66.83
60.17
52.13
43.94
37.20
33.33
32.96
35.55
39.62
43.43
45.65
45.81
44.06
40.88
36.67
31.69
26.31
21.21
17.35
15.66
16.63
20.01
25.00
30.56
35.80
40.22
43.65
46.13
47.82
48.99
50.06
51.65
54.41
58.96
65.54
73.63
81.84
87.85
88.76
81.86
65.39
39.14
4.64
-35.08
-76.14
-114.46
-146.44
-169.39
-181.86
-183.82
-176.65
-162.88
-145.79
-128.83
-114.97
-106.17
-103.02
-104.67
-109.19
-114.15
-117.40
-117.78
-115.41
-111.46
-107.50
-104.64
-102.94
-101.25
-97.61
-90.08
-77.58
-60.33
-39.92
-18.74
0.81
17.01
29.13
37.25
41.65
42.41
39.39
32.48
22.21
9.94
-2.34
-12.64
-19.78
-23.72
-25.53
-26.80
-28.95
-32.73
-38.09
-44.43
-51.03
-57.33
-63.03
-68.02
-72.31
-75.98
-79.34
-83.18
-88.77
-97.62
-110.78
-128.07
-147.60
-165.89
-178.76
-182.57
-175.39
-157.55
-131.36
-100.28
-67.79
-36.67
-8.66
15.45
35.47
51.56
64.06
73.38
79.99
84.30
86.73
87.62
87.29
86.00
84.05
81.78
79.61
77.97
77.20
77.15
77.00
75.27
70.33
61.18
48.11
32.91
18.29
6.85
-0.01
-2.54
-2.27
-1.08
-0.28
-0.11
-0.07
0.34
0.89
0.40
-2.66
-9.26
-18.89
-29.58
-38.50
-43.28
-43.12
-39.23
-34.30
-31.22
-32.19
-38.22
-49.42
-65.31
-84.85
-105.93
-124.99
-137.31
-138.33
-125.59
-99.92
-65.47
-28.21
6.22
34.27
55.11
69.92
80.73
89.19
96.32
102.50
107.83
112.32
115.86
118.23
119.15
118.41
115.96
111.93
106.48
99.62
91.29
81.32
69.71
56.74
43.16
30.26
19.75
13.28
11.92
15.56
22.63
30.34
35.63
36.19
31.21
21.63
9.45
-3.13
-14.52
-24.08
-31.92
-38.46
-44.06
-49.06
-53.79
-58.77
-64.55
-71.57
-79.83
-88.70
-96.94
-102.86
-104.69
-100.95
-90.81
-74.43
-53.03
-28.73
-3.98
18.98
38.70
54.72
67.23
76.67
83.21
86.74
86.98
83.99
78.40
71.43
64.61
59.36
56.50
56.20
58.04
61.32
65.31
69.38
72.99
75.63
76.77
75.94
72.87
67.59
60.52
52.32
43.79
35.60
28.16
21.50
15.39
9.35
2.95
-4.11
-11.85
-20.06
-28.35
-36.44
-44.32
-52.38
-61.33
-72.00
-84.90
-99.83
-115.45
-129.24
-137.93
-138.36
-128.50
-108.19
-79.30
-45.21
-9.79
23.46
52.05
74.55
90.46
99.87
103.33
101.77
96.47
88.86
80.32
71.98
64.59
58.55
53.95
50.69
48.51
47.08
46.10
45.39
44.96
44.87
45.16
45.61
45.81
45.32
43.77
41.05
37.27
32.63
27.33
21.49
15.09
8.09
0.40
-8.08
-17.35
-27.30
-37.69
-48.11
-58.06
-67.11
-75.14
-82.43
-89.67
-97.77
-107.53
-119.13
-131.65
-143.04
-150.39
-150.72
-142.00
-123.83
-97.72
-66.62
-34.12
-3.45
23.09
44.35
60.13
70.82
77.03
79.52
79.06
76.51
72.75
68.61
64.66
61.15
58.02
54.98
51.83
48.63
45.80
43.94
43.53
44.61
46.68
48.76
49.73
48.68
45.26
39.73
32.85
25.57
18.68
12.59
7.25
2.20
-3.21
-9.57
-17.16
-25.75
-34.58
-42.52
-48.41
-51.51
-51.87
-50.45
-48.95
-49.32
-53.22
-61.51
-73.89
-88.88
-103.98
-116.11
-122.23
-120.14
-108.96
-89.51
-64.06
-35.71
-7.67
17.50
38.17
53.72
64.31
70.53
73.14
72.99
70.93
67.71
63.98
60.18
56.57
53.23
50.20
47.52
45.36
43.92
43.35
43.57
44.29
44.92
44.83
43.45
40.45
35.82
29.79
22.77
15.24
7.66
0.44
-6.18
-12.18
-17.70
-22.97
-28.18
-33.35
-38.35
-42.90
-46.77
-49.99
-52.86
-56.04
-60.33
-66.45
-74.75
-84.89
-95.60
-104.81
-109.93
-108.57
-99.26
-81.96
-58.23
-30.75
-2.71
23.06
44.59
60.97
72.27
79.10
82.35
82.81
81.17
78.02
73.92
69.39
64.91
60.80
57.21
54.09
51.44
49.34
47.96
47.41
47.55
47.86
47.46
45.48
41.37
35.14
27.36
18.95
10.79
3.49
-2.85
-8.49
-13.87
-19.36
-25.14
-31.08
-36.87
-42.19
-46.87
-51.04
-55.23
-60.21
-66.77
-75.29
-85.38
-95.68
-103.92
-107.53
-104.24
-92.95
-74.01
-49.24
-21.42
6.45
31.80
52.89
68.88
79.72
85.82
87.90
86.83
83.51
78.82
73.52
68.12
62.95
58.09
53.55
49.34
45.55
42.37
39.93
38.23
37.15
36.40
35.63
34.50
32.67
29.83
25.74
20.48
14.33
7.90
1.77
-3.61
-8.21
-12.40
-16.77
-21.86
-27.99
-35.03
-42.51
-49.75
-56.10
-61.25
-65.39
-69.21
-73.69
-79.71
-87.70
-97.44
-107.92
-117.51
-124.16
-125.81
-120.73
-107.96
-87.66
-61.23
-31.15
-0.44
27.98
51.93
70.28
82.94
90.49
93.84
93.87
91.34
86.96
81.50
75.82
70.76
66.94
64.53
63.20
62.33
61.36
60.10
58.83
58.05
58.12
58.90
59.64
59.27
56.84
52.01
45.26
37.73
30.83
25.62
22.35
20.34
18.31
14.94
9.60
2.76
-4.19
-9.52
-11.99
-11.57
-9.38
-7.19
-6.56
-8.12
-11.50
-15.83
-20.21
-23.93
-26.10
-25.10
-18.84
-5.95
12.58
32.61
47.65
51.48
41.06
18.02
-12.33
-44.00
-73.62
-101.88
-132.09
-166.95
-205.70
-243.51
-273.78
-291.69
-296.76
-292.82
-285.63
-279.77
-276.58
-274.26
-269.58
-260.00
-244.79
-225.06
-202.69
-179.18
-155.10
-130.01
-103.11
-73.94
-43.12
-12.59
14.98
37.42
54.39
67.99
81.86
99.27
120.96
144.22
163.83
174.37
172.69
159.27
137.86
113.78
91.69
73.93
59.97
47.28
33.06
16.05
-2.68
-20.26
-33.57
-41.03
-43.34
-42.69
-41.03
-38.36
-32.32
-19.35
3.43
36.86
79.74
129.95
185.51
244.61
304.65
361.01
406.96
435.12
440.14
421.03
382.07
331.57
279.11
232.60
196.33
170.95
154.74
145.24
140.42
138.83
139.14
139.49
137.55
131.12
119.01
101.75
81.41
60.72
41.77
25.20
10.12
-5.09
-21.71
-39.91
-58.61
-76.00
-90.29
-100.48
-106.63
-109.84
-111.76
-114.05
-117.73
-122.89
-128.67
-133.69
-136.74
-137.29
-135.57
-132.13
-127.34
-120.93
-112.29
-101.04
-87.69
-73.83
-61.76
-53.64
-50.85
-53.58
-61.09
-71.77
-83.35
-93.05
-97.90
-95.55
-85.22
-68.28
-48.14
-29.07
-14.64
-6.49
-4.10
-5.50
-8.48
-11.42
-13.54
-14.55
-14.37
-13.31
-12.43
-13.74
-19.72
-32.00
-50.23
-71.58
-91.62
-105.74
-110.98
-106.83
-95.07
-78.67
-60.67
-43.34
-28.03
-15.37
-5.45
2.02
7.64
12.23
16.54
21.04
25.93
31.28
37.23
44.11
52.23
61.60
71.71
81.30
88.62
91.51
88.01
76.83
57.95
33.07
5.53
-20.36
-40.58
-52.70
-56.52
-53.96
-48.03
-41.53
-36.18
-32.50
-30.34
-29.74
-31.28
-35.95
-44.60
-57.24
-72.79
-89.37
-104.91
-117.63
-126.48
-130.93
-130.60
-124.87
-112.77
-93.52
-67.16
-35.24
-0.70
32.75
61.85
84.89
102.01
114.68
124.61
132.71
138.57
140.73
137.44
127.43
110.36
86.70
57.54
24.38
-10.79
-45.40
-76.40
-100.83
-116.53
-122.91
-121.21
-113.96
-104.11
-93.98
-84.74
-76.36
-68.12
-59.38
-50.10
-41.18
-34.34
-31.61
-34.75
-44.51
-60.31
-80.31
-102.05
-123.29
-142.66
-159.82
-174.93
-187.80
-197.22
-200.95
-196.51
-182.25
-158.34
-126.89
-91.15
-54.41
-18.74
15.26
48.11
80.46
112.21
142.30
169.05
190.94
207.18
217.86
223.66
225.34
223.47
218.45
210.67
200.72
189.54
178.20
167.87
159.50
153.56
149.86
147.61
145.57
142.57
137.93
131.69
124.52
117.21
110.13
102.97
94.82
84.78
72.43
58.22
43.36
29.26
17.04
7.09
-0.92
-7.69
-13.93
-19.99
-25.97
-31.91
-38.01
-44.70
-52.46
-61.55
-71.90
-83.19
-95.13
-107.75
-121.40
-136.31
-152.00
-166.89
-178.20
-182.68
-177.46
-161.11
-134.09
-98.74
-58.72
-18.09
19.43
51.07
75.14
91.08
99.38
101.37
99.11
95.28
92.73
93.80
99.45
108.42
117.20
120.93
115.24
98.18
71.50
40.49
12.39
-5.97
-10.51
-1.08
18.80
43.39
66.75
84.45
94.38
96.62
92.59
84.03
72.30
58.31
42.77
26.63
11.12
-2.65
-14.07
-23.31
-31.18
-38.48
-45.57
-52.17
-57.54
-61.03
-62.50
-62.51
-62.07
-62.37
-64.31
-68.32
-74.37
-82.02
-90.53
-98.82
-105.40
-108.43
-105.95
-96.40
-79.31
-55.67
-28.08
-0.14
24.34
42.34
52.30
54.18
49.16
39.08
26.15
12.78
1.63
-4.66
-4.00
4.35
19.21
37.66
55.90
70.50
79.48
82.56
80.72
75.44
68.01
59.34
50.18
41.32
33.64
27.78
24.06
22.44
22.75
25.00
29.30
35.53
42.95
50.05
54.97
56.13
52.82
45.37
34.90
22.67
9.72
-3.30
-15.90
-27.58
-37.70
-45.73
-51.56
-55.68
-59.03
-62.53
-66.67
-71.23
-75.39
-78.01
-78.05
-74.74
-67.75
-57.25
-43.96
-29.13
-14.40
-1.46
8.50
15.05
18.61
20.09
20.42
20.16
19.42
18.17
16.49
14.80
13.69
13.62
14.73
16.69
19.06
21.42
23.53
25.32
26.65
27.12
26.13
23.12
17.86
10.68
2.38
-6.00
-13.52
-19.63
-24.12
-26.95
-28.04
-27.33
-24.93
-21.40
-17.79
-15.50
-15.85
-19.70
-27.09
-37.22
-48.66
-59.67
-68.68
-74.67
-77.55
-78.20
-78.13
-78.80
-80.84
-83.56
-85.18
-83.58
-77.21
-65.62
-49.37
-29.49
-7.04
16.93
41.15
63.80
82.69
95.82
102.17
102.17
97.39
89.94
81.53
73.14
65.05
57.27
49.85
43.05
37.19
32.43
28.78
26.07
24.13
22.78
21.82
20.98
19.90
18.20
15.66
12.36
8.63
4.93
1.68
-0.94
-2.86
-4.00
-4.22
-3.58
-2.83
-3.87
-9.49
-22.48
-44.29
-73.93
-108.07
-141.99
-171.11
-191.94
-202.28
-200.73
-186.30
-158.81
-119.64
-72.55
-23.34
21.42
56.35
78.70
88.62
88.50
81.68
71.44
60.41
50.45
42.63
37.23
33.87
31.72
29.95
28.07
26.09
24.32
23.10
22.53
22.47
22.60
22.67
22.63
22.63
22.97
23.97
25.81
28.42
31.41
34.17
36.01
36.51
35.57
33.53
30.94
28.29
25.62
22.54
18.33
12.29
4.13
-5.87
-16.97
-28.27
-39.03
-48.84
-57.81
-66.40
-75.43
-85.74
-97.91
-111.83
-126.36
-139.34
-148.09
-150.28
-144.74
-131.88
-113.47
-91.96
-69.65
-48.19
-28.48
-10.92
4.21
16.72
26.48
33.62
38.52
41.73
43.76
45.01
45.66
45.81
45.52
44.86
43.94
42.88
41.87
41.10
40.75
40.92
41.50
42.21
42.55
42.07
40.46
37.66
33.91
29.65
25.34
21.30
17.57
13.97
10.17
5.80
0.68
-5.21
-11.71
-18.52
-25.40
-32.16
-38.83
-45.61
-52.83
-60.89
-70.10
-80.52
-91.69
-102.53
-111.29
-115.87
-114.45
-106.05
-91.08
-71.21
-48.97
-26.89
-6.78
10.62
25.42
38.08
48.90
57.79
64.46
68.65
70.42
70.09
68.09
64.82
60.54
55.58
50.49
46.08
43.19
42.45
43.97
47.38
51.82
56.37
60.14
62.45
62.89
61.34
58.10
53.75
49.08
44.77
41.08
37.76
34.13
29.44
23.16
15.33
6.43
-2.78
-11.66
-19.86
-27.48
-35.01
-43.07
-52.20
-62.49
-73.26
-83.09
-89.93
-91.62
-86.61
-74.45
-56.03
-33.42
-9.28
13.82
33.87
49.77
61.19
68.36
71.80
72.13
70.02
66.11
61.00
55.24
49.33
43.71
38.82
34.95
32.29
30.77
30.16
30.09
30.18
30.16
29.86
29.13
27.80
25.74
22.86
19.27
15.23
10.94
6.44
1.52
-4.20
-10.96
-18.65
-26.79
-34.64
-41.54
-47.22
-51.91
-56.37
-61.61
-68.56
-77.57
-88.06
-98.29
-105.69
-107.49
-101.60
-87.50
-66.45
-41.15
-14.84
9.66
30.60
47.37
60.14
69.36
75.34
78.29
78.45
76.29
72.56
68.09
63.64
59.61
56.13
53.08
50.23
47.42
44.55
41.71
39.10
36.95
35.40
34.37
33.56
32.57
31.09
29.04
26.64
24.19
21.86
19.47
16.44
12.06
5.80
-2.35
-11.84
-21.63
-30.63
-38.03
-43.65
-47.88
-51.64
-55.95
-61.66
-69.18
-78.33
-88.33
-97.71
-104.57
-106.82
-102.74
-91.50
-73.54
-50.64
-25.39
-0.55
21.68
40.06
54.34
64.84
72.08
76.38
77.97
77.07
74.11
69.82
65.07
60.62
56.95
54.13
51.90
49.82
47.62
45.25
42.91
40.90
39.40
38.37
37.52
36.43
34.67
31.99
28.34
23.89
18.99
14.04
9.39
5.19
1.45
-2.07
-5.71
-9.83
-14.69
-20.27
-26.25
-32.17
-37.55
-42.16
-46.12
-49.98
-54.50
-60.39
-67.89
-76.58
-85.26
-92.18
-95.50
-93.68
-86.07
-72.98
-55.67
-35.98
-15.92
2.78
18.90
31.79
41.28
47.58
51.11
52.44
52.19
50.95
49.21
47.32
45.49
43.82
42.31
40.89
39.48
38.02
36.54
35.15
34.06
33.43
33.26
33.32
33.21
32.41
30.51
27.31
22.88
17.60
11.98
6.59
1.84
-2.10
-5.35
-8.33
-11.50
-15.25
-19.69
-24.58
-29.40
-33.67
-37.15
-40.02
-42.80
-46.18
-50.78
-56.95
-64.63
-73.27
-81.77
-88.52
-91.66
-89.63
-81.60
-68.00
-50.40
-31.10
-12.41
3.97
17.26
27.48
35.12
40.66
44.40
46.43
46.78
45.61
43.29
40.38
37.53
35.25
33.86
33.38
33.56
34.00
34.34
34.36
34.01
33.39
32.56
31.50
30.02
27.86
24.93
21.35
17.47
13.69
10.27
7.09
3.78
-0.16
-5.06
-10.94
-17.40
-23.84
-29.67
-34.45
-38.14
-41.03
-43.69
-46.75
-50.73
-55.93
-62.33
-69.53
-76.71
-82.77
-86.34
-86.07
-81.01
-70.91
-56.42
-38.92
-20.23
-2.12
14.07
27.57
38.16
45.83
50.71
52.99
52.87
50.74
47.17
42.90
38.73
35.29
32.93
31.61
30.99
30.60
30.04
29.16
28.02
26.88
25.95
25.25
24.58
23.55
21.76
18.99
15.35
11.24
7.21
3.70
0.83
-1.67
-4.40
-7.96
-12.71
-18.57
-25.03
-31.42
-37.13
-41.93
-45.93
-49.55
-53.40
-58.07
-64.03
-71.46
-80.07
-88.91
-96.42
-100.61
-99.68
-92.54
-79.31
-61.38
-40.99
-20.60
-2.18
13.13
25.13
34.17
40.87
45.76
49.16
51.20
51.94
51.44
49.81
47.31
44.21
40.80
37.41
34.29
31.69
29.79
28.72
28.48
28.93
29.78
30.62
31.05
30.77
29.63
27.63
24.79
21.07
16.38
10.70
4.27
-2.36
-8.43
-13.16
-16.12
-17.29
-17.12
-16.32
-15.77
-16.34
-18.94
-24.33
-32.85
-44.25
-57.50
-71.07
-83.46
-93.74
-101.83
-108.11
-112.74
-114.96
-113.04
-104.92
-89.20
-66.09
-37.63
-7.11
21.91
46.62
65.52
78.37
85.81
88.85
88.51
85.70
81.18
75.65
69.80
64.21
59.35
55.53
52.79
50.92
49.58
48.48
47.51
46.80
46.52
46.76
47.29
47.62
47.09
45.20
41.80
37.04
31.38
25.29
19.12
13.09
7.37
2.13
-2.49
-6.46
-10.03
-13.71
-18.07
-23.49
-29.91
-36.85
-43.55
-49.29
-53.66
-56.70
-58.86
-60.94
-63.85
-68.46
-75.24
-83.89
-93.20
-101.06
-104.93
-102.64
-93.09
-76.75
-55.50
-32.05
-9.17
11.10
27.63
40.19
49.14
55.06
58.46
59.75
59.21
57.10
53.70
49.35
44.46
39.50
34.91
31.07
28.13
26.08
24.82
24.12
23.77
23.55
23.35
23.19
23.29
24.01
25.68
28.40
31.77
34.98
37.00
36.90
34.19
28.97
21.85
13.70
5.39
-2.37
-9.16
-14.74
-19.19
-22.84
-26.27
-30.23
-35.49
-42.64
-51.90
-62.99
-74.99
-86.44
-95.46
-100.14
-98.92
-91.07
-76.93
-57.76
-35.49
-12.21
10.16
30.17
46.76
59.31
67.53
71.51
71.73
69.01
64.36
58.77
53.09
47.90
43.53
40.11
37.63
36.00
35.00
34.48
34.30
34.33
34.43
34.32
33.62
31.92
28.97
24.85
19.94
14.82
9.95
5.51
1.29
-3.15
-8.23
-14.11
-20.51
-26.84
-32.38
-36.60
-39.36
-41.08
-42.56
-44.85
-48.87
-55.15
-63.51
-72.96
-81.69
-87.41
-88.01
-82.08
-69.48
-51.44
-30.11
-7.98
12.81
30.89
45.59
56.81
64.63
69.20
70.75
69.68
66.64
62.43
57.89
53.66
50.06
47.18
44.89
43.01
41.40
40.04
38.96
38.27
37.97
37.91
37.83
37.33
36.05
33.67
30.02
25.10
19.15
12.55
5.80
-0.55
-6.04
-10.40
-13.66
-16.16
-18.41
-20.88
-23.97
-27.84
-32.39
-37.40
-42.59
-47.76
-52.98
-58.54
-65.00
-72.86
-82.25
-92.52
-102.07
-108.58
-109.56
-103.32
-89.47
-69.28
-45.31
-20.58
2.22
21.36
36.26
47.21
54.85
59.87
62.68
63.55
62.72
60.57
57.65
54.56
51.83
49.73
48.29
47.40
46.85
46.50
46.22
45.82
45.13
43.96
42.19
39.74
36.52
32.52
27.73
22.28
16.41
10.56
5.12
0.34
-3.83
-7.69
-11.65
-16.02
-20.88
-26.03
-31.08
-35.62
-39.31
-42.08
-44.16
-46.14
-48.89
-53.29
-59.95
-68.74
-78.68
-87.96
-94.32
-95.67
-90.70
-79.23
-62.31
-41.79
-19.92
1.24
20.17
35.96
48.25
57.09
62.70
65.40
65.56
63.69
60.37
56.31
52.21
48.65
45.94
44.03
42.69
41.57
40.51
39.58
39.02
39.02
39.48
39.94
39.68
38.01
34.52
29.37
23.11
16.47
10.11
4.32
-0.94
-6.04
-11.39
-17.30
-23.79
-30.56
-37.13
-42.96
-47.77
-51.63
-55.00
-58.67
-63.47
-70.12
-78.78
-88.93
-99.21
-107.51
-111.46
-109.14
-99.81
-84.23
-64.56
-43.64
-24.07
-7.51
5.47
15.16
22.12
26.76
29.25
29.49
27.32
22.56
15.13
5.49
-4.94
-13.28
-15.49
-7.29
14.22
49.20
94.49
144.46
192.76
234.19
265.80
286.70
297.00
296.75
285.60
263.34
230.76
190.09
144.34
96.21
47.06
-2.83
-53.05
-101.53
-144.15
-175.98
-193.55
-196.99
-190.39
-180.39
-173.23
-172.34
-177.39
-185.06
-191.00
-191.68
-185.34
-171.84
-152.15
-127.66
-100.01
-71.03
-42.68
-16.82
5.04
22.07
34.21
42.11
46.84
49.61
51.39
52.82
54.25
55.76
57.24
58.42
58.95
58.47
56.81
54.16
51.07
48.27
46.30
45.29
44.90
44.46
43.27
40.88
37.14
32.26
26.56
20.50
14.46
8.73
3.41
-1.65
-6.71
-12.01
-17.59
-23.27
-28.75
-33.73
-38.09
-42.08
-46.19
-51.02
-57.09
-64.60
-73.31
-82.37
-90.40
-95.62
-96.22
-90.96
-79.57
-62.99
-43.14
-22.39
-2.87
14.02
27.77
38.55
46.81
52.97
57.29
59.97
61.29
61.61
61.38
60.94
60.39
59.57
58.08
55.54
51.78
46.96
41.60
36.40
32.06
28.96
27.06
25.88
24.68
22.75
19.69
15.61
10.98
6.49
2.68
-0.32
-2.84
-5.53
-9.06
-13.77
-19.60
-26.03
-32.40
-38.17
-43.08
-47.25
-51.14
-55.38
-60.57
-67.10
-74.95
-83.57
-91.77
-97.93
-100.27
-97.31
-88.32
-73.61
-54.50
-33.04
-11.48
8.31
25.13
38.50
48.52
55.48
59.71
61.52
61.16
59.06
55.81
52.14
48.71
46.00
44.12
42.88
41.99
41.20
40.48
39.98
39.88
40.20
40.70
40.89
40.19
38.22
34.86
30.46
25.57
20.78
16.43
12.49
8.50
3.83
-2.03
-9.26
-17.51
-26.05
-34.02
-40.74
-45.92
-49.76
-52.90
-56.16
-60.40
-66.27
-73.91
-82.83
-91.70
-98.60
-101.33
-98.15
-88.35
-72.58
-52.65
-31.01
-10.01
8.73
24.38
36.82
46.29
52.99
57.04
58.53
57.67
54.90
50.85
46.24
41.71
37.72
34.46
31.95
30.06
28.75
28.10
28.28
29.36
31.15
33.08
34.38
34.30
32.50
29.16
24.84
20.25
15.80
11.52
7.00
1.82
-4.30
-11.20
-18.39
-25.27
-31.35
-36.52
-41.07
-45.53
-50.57
-56.76
-64.49
-73.68
-83.62
-92.89
-99.43
-101.04
-95.98
-83.73
-65.25
-42.84
-19.42
2.33
20.66
35.01
45.69
53.40
58.74
62.00
63.24
62.58
60.44
57.51
54.58
52.25
50.70
49.66
48.63
47.15
45.14
42.97
41.28
40.60
41.03
42.02
42.61
41.83
39.10
34.50
28.72
22.74
17.38
13.00
9.42
6.06
2.31
-2.31
-7.97
-14.51
-21.57
-28.78
-35.85
-42.64
-49.25
-55.99
-63.31
-71.57
-80.88
-90.73
-99.89
-106.46
-108.37
-103.95
-92.58
-75.05
-53.30
-29.90
-7.29
12.78
29.45
42.55
52.27
58.86
62.57
63.69
62.68
60.18
56.97
53.79
51.15
49.33
48.35
48.04
48.18
48.61
49.22
49.94
50.65
51.17
51.19
50.49
48.93
46.60
43.73
40.51
37.00
33.08
28.60
23.53
18.07
12.60
7.44
2.72
-1.74
-6.38
-11.59
-17.61
-24.38
-31.58
-38.81
-45.75
-52.23
-58.33
-64.27
-70.39
-77.04
-84.38
-92.15
-99.52
-105.02
-106.83
-103.30
-93.50
-77.71
-57.45
-35.06
-12.97
6.93
23.66
37.08
47.51
55.24
60.40
62.91
62.82
60.48
56.66
52.41
48.72
46.20
44.93
44.55
44.47
44.18
43.54
42.70
41.99
41.63
41.52
41.22
40.14
37.85
34.24
29.61
24.49
19.41
14.69
10.36
6.11
1.52
-3.81
-9.94
-16.56
-23.06
-28.76
-33.14
-36.16
-38.25
-40.21
-42.94
-47.18
-53.28
-61.14
-70.15
-79.19
-86.70
-90.96
-90.43
-84.22
-72.40
-55.99
-36.74
-16.65
2.48
19.29
32.96
43.09
49.59
52.66
52.69
50.36
46.55
42.21
38.19
35.07
33.11
32.32
32.56
33.61
35.21
37.11
38.94
40.34
40.88
40.21
38.12
34.58
29.78
24.09
17.88
11.51
5.17
-1.12
-7.43
-13.82
-20.11
-25.93
-30.81
-34.40
-36.80
-38.59
-40.74
-44.29
-50.04
-58.13
-68.03
-78.49
-87.72
-93.76
-94.79
-89.73
-78.47
-62.14
-42.85
-23.05
-4.90
10.34
22.38
31.63
38.66
43.79
46.98
47.94
46.58
43.12
38.21
32.71
27.50
23.18
19.99
17.71
15.81
13.65
10.79
7.16
3.20
-0.34
-2.80
-3.87
-3.89
-3.84
-5.07
-8.98
-16.46
-27.44
-40.37
-52.11
-58.30
-54.48
-37.44
-6.55
35.73
84.40
133.28
176.50
209.62
229.82
235.62
226.50
202.61
165.02
115.91
58.88
-1.19
-58.64
-107.79
-143.94
-164.31
-168.64
-159.32
-140.61
-117.55
-94.44
-74.00
-57.18
-43.77
-33.10
-24.74
-18.49
-14.10
-11.01
-8.27
-5.01
-0.70
4.43
9.61
13.84
16.49
17.54
17.46
17.08
17.07
17.75
18.93
20.08
20.51
19.70
17.46
14.06
10.08
6.17
2.67
-0.46
-3.63
-7.36
-11.89
-17.02
-22.20
-26.80
-30.45
-33.31
-35.96
-39.22
-43.80
-50.06
-57.82
-66.29
-74.15
-79.73
-81.36
-77.87
-68.89
-55.11
-38.06
-19.76
-2.16
13.32
25.87
35.35
41.92
45.92
47.64
47.39
45.50
42.43
38.75
35.09
31.99
29.81
28.72
28.62
29.28
30.39
31.59
32.54
32.92
32.42
30.88
28.31
24.84
20.74
16.26
11.59
6.73
1.58
-4.09
-10.45
-17.53
-25.09
-32.63
-39.53
-45.23
-49.48
-52.48
-54.75
-57.01
-59.83
-63.45
-67.54
-71.20
-73.13
-71.86
-66.21
-55.69
-40.79
-22.90
-4.05
13.72
28.83
40.51
48.76
54.04
56.90
57.79
57.00
54.76
51.47
47.69
44.03
41.05
39.03
37.89
37.32
36.87
36.28
35.52
34.77
34.24
33.95
33.67
32.90
31.14
28.08
23.77
18.64
13.25
8.09
3.37
-1.01
-5.40
-10.20
-15.70
-21.90
-28.56
-35.19
-41.29
-46.52
-50.93
-54.91
-59.15
-64.39
-71.12
-79.26
-88.00
-95.82
-100.70
-100.73
-94.65
-82.32
-64.74
-43.82
-21.83
-0.73
18.10
34.00
46.80
56.51
63.23
67.05
68.19
67.07
64.23
60.35
56.09
52.02
48.49
45.66
43.51
41.90
40.67
39.71
38.97
38.39
37.80
36.95
35.54
33.34
30.31
26.62
22.60
18.60
14.85
11.40
8.12
4.77
1.09
-3.10
-7.88
-13.14
-18.66
-24.07
-28.96
-33.03
-36.17
-38.61
-40.88
-43.66
-47.62
-53.29
-60.80
-69.82
-79.39
-87.92
-93.36
-93.71
-87.60
-74.82
-56.54
-35.05
-13.04
7.08
23.75
36.46
45.51
51.65
55.70
58.34
60.02
60.97
61.24
60.77
59.54
57.63
55.28
52.77
50.35
48.14
46.20
44.48
43.07
42.05
41.45
41.15
40.78
39.85
37.91
34.78
30.66
26.05
21.54
17.55
14.13
10.94
7.40
2.96
-2.65
-9.25
-16.29
-22.98
-28.64
-32.94
-35.98
-38.31
-40.71
-44.09
-49.28
-56.84
-66.84
-78.52
-90.21
-99.47
-103.69
-100.89
-90.55
-73.85
-53.36
-32.14
-12.79
3.29
15.96
25.95
34.12
40.95
46.42
50.20
52.04
52.05
50.73
48.67
46.26
43.59
40.47
36.83
32.89
29.26
26.63
25.37
25.29
25.66
25.57
24.34
21.81
18.35
14.62
11.21
8.33
5.80
3.07
-0.47
-5.19
-11.07
-17.66
-24.25
-30.17
-35.11
-39.23
-43.16
-47.75
-53.70
-61.18
-69.61
-77.62
-83.26
-84.53
-79.96
-69.17
-53.06
-33.58
-13.17
6.00
22.48
35.70
45.74
52.99
57.76
60.19
60.35
58.45
55.01
50.86
46.95
44.03
42.47
42.06
42.22
42.28
41.74
40.48
38.75
36.94
35.32
33.91
32.41
30.31
27.18
22.87
17.60
11.88
6.32
1.35
-2.94
-6.83
-10.73
-14.94
-19.54
-24.33
-28.97
-33.19
-36.93
-40.32
-43.69
-47.45
-52.08
-58.01
-65.55
-74.59
-84.40
-93.48
-99.78
-101.22
-96.34
-84.80
-67.63
-46.88
-24.97
-4.06
14.38
29.69
41.77
50.82
57.08
60.80
62.26
61.89
60.22
57.86
55.32
52.88
50.67
48.56
46.41
44.13
41.84
39.83
38.53
38.28
39.22
41.18
43.66
45.85
46.75
45.41
41.17
33.96
24.34
13.38
2.27
-8.10
-17.42
-25.83
-33.61
-40.76
-46.75
-50.72
-51.90
-50.09
-45.96
-40.90
-36.69
-34.96
-36.74
-42.21
-50.60
-60.25
-68.89
-74.21
-74.35
-68.52
-57.20
-41.97
-24.93
-8.02
7.38
20.57
31.35
39.65
45.46
48.88
50.20
49.94
48.71
46.96
44.88
42.46
39.66
36.56
33.43
30.60
28.28
26.52
25.23
24.26
23.44
22.59
21.50
19.91
17.59
14.46
10.63
6.34
1.88
-2.53
-6.87
-11.26
-15.94
-21.13
-26.93
-33.22
-39.75
-46.14
-52.12
-57.54
-62.53
-67.38
-72.41
-77.93
-84.02
-90.65
-97.65
-104.73
-111.39
-116.71
-119.15
-116.55
-106.50
-86.91
-56.63
-15.84
33.89
89.76
148.06
204.57
254.92
295.06
321.76
333.10
328.70
309.72
278.49
237.80
190.33
138.38
84.02
29.63
-21.74
-66.54
-101.36
-124.05
-134.51
-134.82
-128.53
-119.36
-110.00
-101.57
-93.92
-86.46
-78.85
-71.39
-64.77
-59.69
-56.45
-54.98
-54.85
-55.58
-56.76
-58.17
-59.75
-61.57
-63.77
-66.58
-70.23
-74.93
-80.64
-86.83
-92.35
-95.52
-94.53
-88.04
-75.66
-58.26
-37.74
-16.57
2.90
19.05
31.22
39.79
45.84
50.81
55.91
61.84
68.47
75.00
80.22
82.92
82.31
78.30
71.47
62.98
54.25
46.64
41.14
38.14
37.46
38.43
40.13
41.62
42.10
41.07
38.29
33.86
28.19
21.85
15.40
9.21
3.32
-2.44
-8.32
-14.48
-20.89
-27.39
-33.86
-40.30
-46.84
-53.71
-61.10
-69.04
-77.15
-84.56
-89.89
-91.42
-87.63
-77.74
-62.18
-42.63
-21.62
-1.70
15.23
28.42
38.08
44.92
49.68
52.67
53.95
53.42
51.26
47.95
44.22
40.79
38.11
36.30
35.16
34.40
33.74
33.06
32.33
31.65
31.08
30.54
29.81
28.53
26.36
23.20
19.26
15.07
11.24
8.24
6.10
4.43
2.52
-0.28
-4.34
-9.57
-15.48
-21.40
-26.70
-31.15
-34.90
-38.51
-42.76
-48.43
-55.93
-65.10
-75.09
-84.40
-91.09
-93.24
-89.47
-79.39
-63.75
-44.34
-23.48
-3.39
14.26
28.59
39.44
47.05
51.82
54.10
54.19
52.44
49.29
45.36
41.31
37.74
35.02
33.29
32.50
32.51
33.24
34.62
36.55
38.70
40.48
41.12
39.92
36.52
31.14
24.48
17.51
11.19
6.07
2.19
-0.87
-3.78
-7.18
-11.40
-16.39
-21.75
-26.96
-31.61
-35.54
-38.92
-42.18
-45.82
-50.31
-55.95
-62.72
-70.05
-76.82
-81.41
-82.07
-77.45
-67.08
-51.68
-32.96
-13.18
5.52
21.57
34.24
43.52
49.75
53.44
54.95
54.56
52.54
49.27
45.29
41.24
37.67
34.94
33.12
32.02
31.38
30.98
30.70
30.44
30.09
29.44
28.19
26.15
23.24
19.61
15.57
11.38
7.24
3.07
-1.35
-6.30
-11.90
-18.08
-24.47
-30.58
-36.05
-40.76
-45.04
-49.51
-54.90
-61.74
-70.04
-79.09
-87.43
-93.14
-94.28
-89.53
-78.56
-62.30
-42.70
-22.13
-2.80
13.78
26.98
36.95
44.16
49.16
52.26
53.57
53.10
50.96
47.47
43.16
38.69
34.73
31.86
30.57
31.21
33.82
37.93
42.40
45.50
45.41
40.84
31.70
19.27
5.88
-5.80
-13.64
-16.59
-14.88
-9.82
-3.29
2.65
6.24
6.30
2.51
-4.67
-14.07
-24.20
-33.75
-41.86
-48.42
-53.86
-58.89
-63.96
-68.93
-72.92
-74.51
-72.22
-65.10
-53.09
-37.15
-18.97
-0.51
16.55
31.06
42.50
50.91
56.55
59.79
60.99
60.43
58.43
55.36
51.71
47.91
44.34
41.15
38.27
35.55
32.89
30.36
28.23
26.86
26.39
26.72
27.42
27.85
27.47
25.95
23.38
20.12
16.68
13.39
10.33
7.19
3.58
-0.86
-6.19
-12.19
-18.38
-24.32
-29.74
-34.64
-39.24
-43.82
-48.64
-53.94
-59.85
-66.43
-73.46
-80.23
-85.53
-87.76
-85.42
-77.64
-64.61
-47.63
-28.74
-10.15
6.37
19.88
30.25
37.89
43.36
47.04
49.08
49.46
48.24
45.71
42.41
38.96
35.84
33.28
31.21
29.42
27.84
26.60
26.02
26.34
27.45
28.86
29.73
29.26
27.07
23.32
18.72
14.12
10.16
6.96
4.12
1.03
-2.77
-7.40
-12.51
-17.54
-21.97
-25.56
-28.46
-31.19
-34.45
-38.93
-44.99
-52.50
-60.68
-68.15
-73.10
-73.89
-69.44
-59.70
-45.67
-29.11
-12.00
3.97
17.74
28.92
37.51
43.67
47.52
49.04
48.21
45.20
40.44
34.61
28.53
22.96
18.45
15.24
13.25
12.31
12.20
12.78
13.87
15.18
16.25
16.56
15.71
13.60
10.48
6.78
2.88
-1.05
-5.10
-9.46
-14.25
-19.42
-24.76
-29.97
-34.91
-39.60
-44.32
-49.51
-55.56
-62.60
-70.29
-77.66
-83.27
-85.42
-82.72
-74.55
-61.34
-44.51
-26.18
-8.54
6.67
18.50
26.92
32.58
36.36
38.91
40.43
40.60
38.97
35.37
30.21
24.51
19.55
16.33
15.12
15.33
15.80
15.27
13.00
9.07
4.27
-0.22
-3.45
-5.16
-5.90
-6.87
-9.46
-14.90
-23.89
-36.31
-50.80
-64.58
-73.47
-72.69
-58.28
-28.72
13.96
64.34
115.23
159.81
193.70
215.67
226.90
229.36
224.30
211.63
190.41
159.89
120.68
75.08
26.68
-20.66
-63.77
-100.60
-130.04
-151.37
-163.93
-167.14
-161.09
-147.10
-128.00
-107.54
-89.40
-75.99
-67.71
-63.13
-59.91
-55.88
-49.99
-42.56
-34.81
-28.25
-23.93
-21.94
-21.30
-20.33
-17.27
-10.95
-1.28
10.70
23.30
34.85
44.32
51.49
56.67
60.20
62.04
61.67
58.45
52.11
43.07
32.48
21.81
12.47
5.25
0.21
-3.25
-6.14
-9.54
-14.36
-21.13
-29.82
-39.75
-49.50
-57.24
-61.08
-59.57
-52.25
-39.86
-24.15
-7.39
8.27
21.34
31.11
37.62
41.30
42.62
41.97
39.68
36.12
31.89
27.72
24.35
22.26
21.50
21.84
22.98
24.78
27.35
30.84
35.12
39.57
43.16
44.81
43.79
40.07
34.26
27.34
20.29
13.79
8.13
3.26
-1.04
-5.01
-8.76
-12.30
-15.66
-19.02
-22.88
-28.00
-35.21
-45.03
-57.35
-71.32
-85.47
-98.01
-107.22
-111.63
-110.21
-102.53
-88.85
-70.25
-48.57
-26.18
-5.45
11.73
24.38
32.47
36.78
38.52
38.80
38.46
37.87
37.06
35.90
34.33
32.47
30.66
29.26
28.55
28.58
29.22
30.19
31.13
31.78
31.85
31.15
29.57
27.13
23.99
20.43
16.76
13.16
9.64
6.02
2.05
-2.37
-7.17
-12.08
-16.84
-21.32
-25.64
-30.18
-35.45
-41.85
-49.44
-57.80
-65.88
-72.15
-74.93
-72.77
-65.02
-52.06
-35.30
-16.71
1.63
18.12
31.78
42.31
49.75
54.31
56.23
55.74
53.23
49.19
44.31
39.27
34.72
31.06
28.49
26.91
26.16
25.99
26.27
26.96
27.96
29.04
29.77
29.63
28.24
25.56
21.91
17.80
13.75
9.93
6.20
2.22
-2.38
-7.70
-13.59
-19.67
-25.48
-30.65
-34.97
-38.50
-41.51
-44.52
-48.19
-53.06
-59.38
-66.73
-73.88
-78.97
-80.04
-75.62
-65.37
-50.19
-32.03
-13.22
4.13
18.65
29.83
37.83
43.16
46.37
47.88
48.05
47.13
45.43
43.32
41.17
39.27
37.75
36.55
35.48
34.41
33.30
32.30
31.57
31.11
30.73
30.11
28.81
26.61
23.59
20.06
16.46
13.10
9.98
6.81
3.14
-1.41
-6.91
-13.07
-19.33
-25.02
-29.64
-33.08
-35.68
-38.12
-41.26
-45.85
-52.25
-60.20
-68.65
-75.90
-79.95
-79.04
-72.21
-59.73
-43.02
-24.35
-6.13
9.78
22.44
31.82
38.47
43.08
46.05
47.47
47.29
45.57
42.66
39.14
35.70
32.84
30.82
29.58
28.92
28.65
28.70
29.06
29.66
30.29
30.57
30.10
28.60
26.02
22.55
18.53
14.34
10.19
6.15
2.11
-2.10
-6.64
-11.61
-16.99
-22.77
-28.89
-35.23
-41.65
-47.96
-53.91
-59.41
-64.62
-70.07
-76.43
-84.12
-92.83
-101.23
-107.16
-108.23
-102.75
-90.45
-72.71
-52.19
-32.09
-15.35
-3.97
1.40
1.71
-0.33
-0.52
6.11
23.88
54.91
97.89
148.13
198.74
242.85
275.59
294.98
301.60
297.21
283.45
261.25
231.07
193.57
149.99
102.02
51.47
0.11
-50.15
-96.69
-136.16
-165.15
-181.42
-184.97
-178.14
-164.86
-149.12
-133.77
-120.17
-108.54
-98.94
-91.72
-87.55
-86.90
-89.61
-94.69
-100.62
-105.79
-108.77
-108.52
-104.36
-95.94
-83.31
-66.99
-48.05
-27.97
-8.39
9.19
23.76
34.85
42.50
47.10
49.16
49.22
47.86
45.56
42.81
39.96
37.25
34.84
32.81
31.29
30.42
30.34
31.02
32.16
33.14
33.24
31.95
29.11
25.04
20.34
15.64
11.34
7.45
3.71
-0.27
-4.76
-9.85
-15.34
-20.90
-26.15
-30.86
-35.02
-38.94
-43.26
-48.63
-55.56
-63.92
-72.78
-80.41
-84.68
-83.72
-76.60
-63.70
-46.60
-27.57
-8.82
8.08
22.41
34.05
43.21
50.00
54.41
56.42
56.22
54.34
51.51
48.52
45.90
43.83
42.16
40.61
38.96
37.17
35.44
34.04
33.20
32.85
32.64
32.05
30.59
27.99
24.37
20.13
15.82
11.81
8.23
4.88
1.37
-2.70
-7.56
-13.18
-19.30
-25.48
-31.32
-36.64
-41.60
-46.76
-52.87
-60.58
-70.13
-80.91
-91.48
-99.67
-103.17
-100.21
-90.22
-74.12
-54.09
-32.94
-13.35
2.89
15.20
24.04
30.41
35.17
38.73
40.82
40.86
38.38
33.44
26.85
19.92
14.16
10.67
9.81
11.10
13.32
14.85
14.06
9.88
2.44
-6.44
-13.15
-12.80
-0.62
26.32
67.64
119.21
174.09
224.41
263.59
287.60
295.29
287.51
266.11
233.24
191.17
142.42
89.70
35.60
-17.65
-68.29
-114.80
-155.63
-189.11
-213.82
-229.05
-235.06
-232.80
-223.40
-207.75
-186.59
-160.89
-132.28
-103.07
-75.75
-52.21
-33.21
-18.36
-6.68
2.87
10.78
17.02
21.26
23.28
23.38
22.29
21.08
20.60
21.28
22.98
25.17
27.31
29.13
30.67
32.22
33.92
35.64
36.95
37.24
36.09
33.36
29.33
24.50
19.42
14.46
9.75
5.19
0.59
-4.23
-9.31
-14.56
-19.76
-24.76
-29.52
-34.23
-39.27
-45.08
-52.02
-60.08
-68.66
-76.53
-81.95
-83.11
-78.69
-68.32
-52.81
-33.92
-13.85
5.34
22.20
35.96
46.43
53.76
58.22
60.17
60.05
58.31
55.40
51.65
47.32
42.59
37.81
33.48
30.30
28.93
29.71
32.53
36.75
41.40
45.35
47.64
47.71
45.43
41.12
35.38
28.91
22.27
15.83
9.69
3.75
-2.13
-8.10
-14.16
-20.21
-26.02
-31.43
-36.27
-40.61
-44.71
-49.10
-54.46
-61.27
-69.49
-78.25
-85.87
-90.24
-89.44
-82.43
-69.43
-51.90
-31.99
-11.98
6.30
21.78
34.13
43.45
50.05
54.27
56.37
56.67
55.51
53.38
50.85
48.40
46.39
44.86
43.64
42.40
40.93
39.20
37.47
36.09
35.25
34.84
34.39
33.28
31.05
27.57
23.13
18.28
13.54
9.15
5.09
1.15
-2.91
-7.14
-11.47
-15.73
-19.80
-23.65
-27.32
-30.87
-34.39
-38.06
-42.28
-47.60
-54.56
-63.30
-73.29
-83.15
-90.81
-94.15
-91.58
-82.59
-67.93
-49.36
-29.13
-9.33
8.53
23.63
35.75
44.96
51.42
55.23
56.55
55.72
53.33
50.16
47.02
44.46
42.68
41.55
40.73
39.94
39.04
38.11
37.28
36.67
36.26
35.91
35.37
34.30
32.38
29.42
25.37
20.52
15.33
10.38
6.03
2.42
-0.78
-4.00
-7.67
-11.95
-16.65
-21.40
-25.84
-29.77
-33.27
-36.60
-40.09
-44.10
-48.96
-54.96
-62.24
-70.50
-78.84
-85.66
-89.03
-87.30
-79.62
-66.39
-49.10
-29.88
-10.89
6.17
20.24
30.85
37.99
42.01
43.46
43.12
41.73
39.92
38.06
36.30
34.64
33.07
31.62
30.31
29.18
28.33
27.87
27.92
28.52
29.45
30.21
30.16
28.80
25.99
22.15
17.90
13.91
10.42
7.25
3.88
-0.18
-5.11
-10.69
-16.42
-21.79
-26.45
-30.37
-33.80
-37.17
-41.02
-45.80
-51.72
-58.55
-65.53
-71.34
-74.42
-73.36
-67.40
-56.65
-42.12
-25.41
-8.30
7.65
21.40
32.42
40.59
46.03
48.96
49.70
48.63
46.23
43.00
39.44
35.94
32.64
29.58
26.74
24.20
22.16
20.88
20.51
20.93
21.73
22.27
21.97
20.49
17.84
14.35
10.41
6.35
2.27
-1.97
-6.59
-11.76
-17.49
-23.56
-29.59
-35.13
-39.81
-43.53
-46.54
-49.44
-53.05
-58.17
-65.15
-73.60
-82.26
-89.19
-92.32
-90.07
-81.87
-68.29
-50.85
-31.48
-12.03
6.03
21.70
34.50
44.19
50.92
55.03
57.05
57.56
57.06
55.87
54.21
52.26
50.19
48.21
46.41
44.82
43.39
42.12
41.10
40.46
40.20
40.07
39.60
38.21
35.52
31.57
26.73
21.58
16.62
12.01
7.59
2.99
-2.20
-8.22
-15.01
-22.33
-29.82
-37.10
-43.84
-49.88
-55.20
-59.99
-64.65
-69.74
-75.78
-82.93
-90.72
-97.90
-102.68
-103.16
-97.98
-86.73
-70.15
-49.85
-27.90
-6.26
13.51
30.45
44.12
54.42
61.54
65.78
67.52
67.26
65.60
63.19
60.68
58.52
56.88
55.62
54.45
53.17
51.82
50.64
49.94
49.83
50.09
50.30
49.86
48.28
45.16
40.26
33.57
25.34
16.14
6.82
-1.74
-8.98
-14.81
-19.68
-24.24
-28.97
-34.00
-39.05
-43.73
-47.77
-51.31
-54.85
-59.07
-64.61
-71.77
-80.36
-89.48
-97.59
-102.72
-102.93
-96.89
-84.38
-66.43
-45.10
-22.86
-1.90
16.32
31.18
42.68
51.08
56.65
59.58
60.09
58.63
55.85
52.48
49.21
46.46
44.40
42.94
41.96
41.36
41.12
41.23
41.58
41.93
41.93
41.24
39.68
37.26
34.16
30.65
26.89
22.91
18.56
13.67
8.08
1.85
-4.82
-11.59
-18.09
-24.06
-29.38
-34.13
-38.61
-43.36
-48.96
-55.86
-64.10
-72.97
-80.95
-86.00
-86.11
-80.04
-67.78
-50.62
-30.77
-10.68
7.64
22.96
34.88
43.56
49.40
52.74
53.83
52.84
50.02
45.85
40.96
36.12
31.95
28.81
26.78
25.69
25.33
25.58
26.41
27.77
29.37
30.75
31.29
30.52
28.32
24.92
20.78
16.37
11.94
7.52
2.87
-2.33
-8.27
-14.88
-21.77
-28.23
-33.58
-37.37
-39.75
-41.53
-43.96
-48.37
-55.59
-65.54
-77.07
-88.16
-96.27
-99.07
-95.02
-83.81
-66.44
-44.96
-21.87
0.53
20.58
37.43
50.86
60.97
67.96
72.03
73.42
72.52
69.91
66.29
62.30
58.43
54.93
51.83
49.12
46.81
45.00
43.73
42.82
41.87
40.25
37.37
32.93
27.10
20.50
13.96
8.18
3.46
-0.31
-3.63
-7.05
-10.94
-15.42
-20.32
-25.29
-29.97
-34.05
-37.43
-40.23
-42.86
-46.00
-50.38
-56.53
-64.38
-72.94
-80.36
-84.35
-82.89
-74.91
-60.77
-42.13
-21.41
-1.02
17.22
32.33
44.03
52.53
58.16
61.23
62.01
60.85
58.20
54.63
50.73
46.99
43.73
41.02
38.75
36.77
35.00
33.48
32.36
31.72
31.50
31.43
31.08
29.95
27.73
24.36
20.12
15.55
11.16
7.27
3.81
0.38
-3.58
-8.41
-14.09
-20.21
-26.10
-31.21
-35.35
-38.76
-41.98
-45.76
-50.66
-57.03
-64.71
-73.02
-80.66
-85.94
-87.14
-82.96
-73.01
-58.01
-39.59
-19.91
-1.04
15.51
28.97
39.22
46.53
51.27
53.78
54.38
53.44
51.42
48.80
46.01
43.26
40.56
37.78
34.83
31.78
28.87
26.47
24.81
23.88
23.35
22.69
21.36
19.05
15.78
11.90
7.94
4.35
1.34
-1.25
-3.82
-6.84
-10.60
-15.05
-19.86
-24.55
-28.69
-32.14
-35.06
-37.95
-41.45
-46.15
-52.33
-59.82
-67.78
-74.80
-79.19
-79.37
-74.38
-64.22
-49.81
-32.82
-15.07
1.84
16.80
29.21
38.81
45.51
49.36
50.63
49.87
47.90
45.68
44.00
43.23
43.12
42.86
41.38
37.83
31.96
24.30
16.11
8.83
3.60
0.87
0.33
1.24
2.74
4.08
4.66
3.99
1.60
-2.80
-9.15
-16.90
-25.08
-32.54
-38.24
-41.52
-42.20
-40.64
-37.63
-34.32
-32.09
-32.16
-35.23
-41.16
-48.88
-56.60
-62.31
-64.25
-61.30
-53.19
-40.36
-23.83
-4.96
14.70
33.54
50.12
63.23
72.15
76.62
76.90
73.69
67.97
60.88
53.49
46.68
41.04
36.75
33.64
31.31
29.30
27.32
25.35
23.70
22.93
23.59
25.81
29.07
32.16
33.33
30.95
24.13
13.21
-0.26
-13.86
-25.17
-32.42
-35.05
-33.82
-30.39
-26.79
-24.77
-25.37
-28.78
-34.59
-42.08
-50.57
-59.74
-69.43
-79.37
-88.81
-96.33
-100.12
-98.50
-90.59
-76.77
-58.67
-38.61
-18.92
-1.25
13.65
25.80
35.53
43.15
48.74
52.24
53.75
53.64
52.54
51.15
50.05
49.50
49.41
49.55
49.55
49.14
48.19
46.76
45.03
43.23
41.53
39.95
38.36
36.58
34.44
31.84
28.81
25.46
21.85
18.00
13.89
9.55
5.04
0.57
-3.68
-7.55
-11.04
-14.34
-17.66
-21.21
-25.01
-28.95
-32.82
-36.52
-40.18
-44.18
-49.03
-55.21
-62.88
-71.65
-80.49
-87.80
-91.68
-90.49
-83.29
-70.25
-52.64
-32.62
-12.57
5.42
20.00
30.64
37.60
41.54
43.33
43.75
43.35
42.44
41.17
39.61
37.89
36.17
34.63
33.42
32.64
32.39
32.80
33.88
35.40
36.77
37.11
35.50
31.38
24.89
16.87
8.60
1.33
-4.15
-7.73
-9.90
-11.45
-13.15
-15.46
-18.52
-22.17
-26.18
-30.38
-34.79
-39.63
-45.27
-52.06
-60.12
-69.12
-78.10
-85.55
-89.65
-88.78
-82.01
-69.45
-52.30
-32.47
-12.17
6.73
22.97
35.98
45.72
52.40
56.33
57.87
57.46
55.65
53.10
50.50
48.34
46.82
45.83
45.01
44.01
42.67
41.14
39.77
38.90
38.64
38.68
38.41
37.11
34.27
29.86
24.26
18.24
12.53
7.56
3.33
-0.59
-4.83
-9.93
-16.06
-22.99
-30.09
-36.63
-42.10
-46.47
-50.32
-54.68
-60.71
-69.22
-80.30
-93.00
-105.43
-115.18
-120.00
-118.50
-110.64
-97.60
-81.28
-63.67
-46.14
-29.37
-13.60
0.92
13.52
23.11
28.45
28.61
23.44
14.04
2.96
-5.92
-7.88
1.43
24.61
61.31
108.02
158.82
207.17
247.69
277.20
294.75
300.69
295.56
279.52
252.54
214.96
168.34
115.54
60.56
7.77
-38.95
-76.95
-105.03
-123.30
-132.72
-134.57
-130.24
-121.13
-108.93
-95.67
-83.61
-74.69
-70.00
-69.47
-72.02
-76.27
-81.14
-86.35
-92.11
-98.65
-105.53
-111.41
-114.27
-112.06
-103.41
-88.15
-67.43
-43.46
-18.93
3.57
22.12
35.70
44.26
48.47
49.44
48.34
46.18
43.63
41.12
38.88
37.02
35.54
34.37
33.36
32.42
31.59
31.07
31.09
31.78
32.95
34.11
34.57
33.73
31.35
27.62
23.08
18.39
13.99
9.96
6.07
1.91
-2.77
-8.01
-13.59
-19.14
-24.29
-28.86
-32.89
-36.68
-40.78
-45.85
-52.48
-60.91
-70.66
-80.41
-88.22
-91.97
-90.06
-81.91
-68.18
-50.53
-31.15
-12.11
5.00
19.21
30.14
37.82
42.50
44.52
44.29
42.27
39.03
35.25
31.69
28.99
27.56
27.43
28.33
29.81
31.44
32.94
34.10
34.70
34.45
33.06
30.42
26.71
22.37
17.87
13.44
8.98
4.14
-1.40
-7.70
-14.46
-21.09
-27.00
-31.83
-35.62
-38.82
-42.10
-46.22
-51.70
-58.71
-66.73
-74.56
-80.43
-82.41
-79.03
-69.73
-55.17
-36.97
-17.35
1.61
18.34
31.99
42.34
49.61
54.21
56.62
57.34
56.81
55.41
53.40
50.93
48.15
45.21
42.26
39.58
37.37
35.79
34.90
34.59
34.56
34.44
33.81
32.37
30.01
26.86
23.20
19.43
15.87
12.67
9.70
6.55
2.71
-2.19
-8.17
-14.82
-21.40
-27.27
-32.11
-36.16
-40.07
-44.63
-50.49
-57.92
-66.63
-75.80
-84.06
-89.70
-90.97
-86.62
-76.33
-60.92
-42.18
-22.31
-3.37
13.24
26.85
37.46
45.30
50.70
53.94
55.24
54.90
53.32
51.00
48.51
46.31
44.67
43.62
42.99
42.49
41.94
41.29
40.65
40.15
39.81
39.47
38.81
37.47
35.20
31.97
27.93
23.37
18.61
13.94
9.51
5.37
1.45
-2.47
-6.62
-11.10
-15.92
-20.91
-25.78
-30.30
-34.36
-38.10
-41.88
-46.23
-51.71
-58.73
-67.21
-76.42
-84.89
-90.72
-92.05
-87.65
-77.33
-62.02
-43.50
-23.89
-5.07
11.60
25.44
36.29
44.30
49.69
52.67
53.46
52.37
49.88
46.57
43.07
39.86
37.17
35.02
33.31
32.03
31.25
31.03
31.35
31.89
32.10
31.42
29.42
26.03
21.56
16.54
11.51
6.84
2.63
-1.36
-5.50
-10.11
-15.33
-20.98
-26.62
-31.71
-35.86
-39.00
-41.50
-44.07
-47.58
-52.73
-59.79
-68.24
-76.77
-83.47
-86.28
-83.63
-75.01
-61.21
-44.09
-25.97
-8.93
5.73
17.63
27.07
34.52
40.20
43.84
44.93
43.03
38.19
31.19
23.46
16.62
11.94
9.79
9.53
9.80
9.12
6.64
2.47
-2.31
-6.20
-8.11
-7.86
-6.42
-5.48
-6.91
-12.06
-21.28
-33.60
-46.66
-56.84
-59.77
-51.31
-28.82
7.68
54.99
107.25
157.38
199.02
227.90
242.36
242.74
230.28
206.19
171.23
126.32
73.30
15.72
-41.16
-91.25
-129.16
-151.68
-158.65
-152.78
-138.42
-119.96
-100.63
-82.03
-64.70
-48.92
-35.38
-25.12
-18.95
-16.75
-17.25
-18.47
-18.54
-16.50
-12.57
-7.91
-3.86
-1.27
-0.10
0.41
1.30
3.26
6.28
9.63
12.19
13.10
12.03
9.42
6.11
2.98
0.48
-1.48
-3.49
-6.22
-10.11
-15.17
-20.98
-26.90
-32.38
-37.16
-41.39
-45.54
-50.23
-55.97
-62.92
-70.66
-78.10
-83.76
-85.98
-83.48
-75.69
-62.98
-46.56
-28.18
-9.63
7.53
22.27
34.13
43.07
49.40
53.58
56.07
57.24
57.34
56.53
54.93
52.69
50.00
47.07
44.15
41.46
39.25
37.77
37.12
37.24
37.77
38.08
37.54
35.74
32.64
28.64
24.33
20.26
16.76
13.83
11.18
8.38
4.98
0.67
-4.64
-10.79
-17.30
-23.56
-28.90
-32.98
-35.86
-38.13
-40.76
-44.76
-50.82
-58.95
-68.33
-77.37
-84.03
-86.31
-82.87
-73.39
-58.69
-40.56
-21.26
-2.86
13.12
26.00
35.78
42.87
47.74
50.77
52.16
52.06
50.69
48.33
45.36
42.20
39.20
36.59
34.53
33.08
32.24
31.86
31.70
31.39
30.52
28.75
25.94
22.24
18.02
13.77
9.87
6.40
3.17
-0.19
-3.94
-8.21
-12.85
-17.62
-22.34
-26.94
-31.49
-36.10
-40.90
-46.09
-51.95
-58.67
-66.17
-73.72
-79.92
-82.94
-81.15
-73.74
-61.06
-44.67
-26.69
-9.17
6.38
19.27
29.41
37.02
42.34
45.50
46.61
45.83
43.48
40.05
36.12
32.30
29.12
26.97
26.03
26.26
27.45
29.26
31.27
33.09
34.32
34.65
33.81
31.66
28.30
24.03
19.28
14.51
10.04
5.91
1.93
-2.26
-7.03
-12.53
-18.69
-25.17
-31.53
-37.40
-42.64
-47.43
-52.21
-57.44
-63.38
-69.96
-76.52
-81.93
-84.80
-83.82
-78.09
-67.48
-52.69
-35.14
-16.67
0.96
16.45
29.07
38.74
45.76
50.52
53.35
54.45
53.98
52.22
49.67
46.94
44.66
43.18
42.56
42.54
42.73
42.79
42.52
41.84
40.70
39.10
36.97
34.27
31.04
27.32
23.22
18.79
14.07
9.12
3.99
-1.27
-6.64
-12.09
-17.59
-23.01
-28.21
-33.05
-37.52
-41.88
-46.66
-52.42
-59.53
-67.86
-76.52
-83.92
-88.14
-87.38
-80.59
-67.80
-50.16
-29.66
-8.61
10.89
27.44
40.39
49.79
56.06
59.74
61.26
60.98
59.24
56.42
53.06
49.65
46.57
43.98
41.85
40.06
38.57
37.47
36.98
37.20
37.94
38.73
38.90
37.88
35.45
31.82
27.51
23.12
19.04
15.28
11.53
7.29
2.12
-4.09
-11.16
-18.57
-25.63
-31.80
-36.80
-40.83
-44.51
-48.73
-54.30
-61.64
-70.50
-79.81
-87.88
-92.74
-92.60
-86.43
-74.25
-57.19
-37.21
-16.61
2.54
18.80
31.50
40.69
46.81
50.46
52.09
52.01
50.46
47.73
44.28
40.68
37.48
34.96
33.14
31.75
30.55
29.39
28.33
27.54
27.02
26.61
25.87
24.45
22.16
19.11
15.62
12.06
8.58
5.09
1.31
-3.03
-8.01
-13.45
-19.00
-24.32
-29.22
-33.79
-38.37
-43.41
-49.42
-56.67
-65.06
-73.89
-81.89
-87.37
-88.68
-84.58
-74.76
-59.90
-41.57
-21.72
-2.23
15.46
30.51
42.55
51.49
57.38
60.38
60.76
59.06
55.99
52.40
48.99
46.23
44.24
42.93
42.17
41.92
42.17
42.79
43.46
43.67
42.85
40.64
37.05
32.43
27.32
22.21
17.37
12.82
8.36
3.75
-1.15
-6.41
-11.94
-17.58
-23.12
-28.42
-33.36
-37.96
-42.38
-47.00
-52.32
-58.85
-66.78
-75.71
-84.42
-91.06
-93.53
-90.19
-80.40
-64.83
-45.22
-23.97
-3.39
14.76
29.49
40.52
48.17
52.98
55.59
56.60
56.51
55.67
54.30
52.41
49.85
46.40
41.94
36.60
30.91
25.75
22.08
20.64
21.64
24.66
28.78
32.86
35.80
36.89
35.84
32.80
28.19
22.60
16.56
10.42
4.35
-1.59
-7.42
-13.09
-18.58
-23.84
-28.93
-33.98
-39.08
-44.35
-49.90
-55.97
-62.85
-70.76
-79.56
-88.43
-95.84
-99.79
-98.46
-90.80
-77.08
-58.89
-38.80
-19.61
-3.69
7.64
14.31
17.22
17.83
17.54
17.29
17.36
17.49
17.00
15.03
10.80
4.02
-4.58
-12.70
-16.44
-11.07
7.47
40.68
86.32
138.56
189.56
231.93
260.91
275.32
276.94
268.78
253.40
231.94
204.31
170.06
129.25
82.78
32.35
-19.77
-70.84
-117.67
-156.83
-185.24
-201.15
-204.91
-199.15
-187.98
-175.71
-165.41
-158.19
-153.30
-148.85
-142.74
-133.41
-120.18
-103.30
-83.76
-63.01
-42.60
-23.84
-7.63
5.64
15.98
23.65
29.02
32.44
34.29
34.96
34.80
34.19
33.45
32.83
32.47
32.45
32.80
33.51
34.49
35.52
36.30
36.39
35.39
33.06
29.42
24.80
19.76
14.87
10.49
6.61
2.87
-1.28
-6.25
-12.11
-18.49
-24.72
-30.06
-34.12
-36.98
-39.27
-41.88
-45.69
-51.25
-58.46
-66.60
-74.27
-79.76
-81.38
-77.91
-69.01
-55.33
-38.41
-20.21
-2.63
12.92
25.73
35.67
42.95
47.91
50.86
51.99
51.52
49.71
46.99
43.89
40.95
38.63
37.13
36.41
36.22
36.28
36.37
36.46
36.59
36.72
36.63
35.93
34.20
31.20
27.00
22.02
16.90
12.25
8.41
5.33
2.55
-0.64
-4.90
-10.64
-17.81
-25.92
-34.21
-41.89
-48.42
-53.68
-58.02
-62.08
-66.61
-72.09
-78.34
-84.42
-88.69
-89.29
-84.77
-74.61
-59.56
-41.38
-22.27
-4.25
11.41
24.23
34.39
42.22
47.97
51.67
53.28
52.97
51.18
48.66
46.12
44.07
42.60
41.51
40.53
39.50
38.49
37.73
37.43
37.55
37.79
37.69
36.81
34.96
32.21
28.92
25.57
22.58
20.11
17.98
15.70
12.64
8.31
2.53
-4.46
-12.04
-19.48
-26.13
-31.66
-36.14
-40.02
-43.91
-48.53
-54.40
-61.70
-70.17
-78.90
-86.45
-91.03
-90.96
-85.12
-73.43
-56.93
-37.55
-17.55
1.10
17.14
30.12
40.19
47.70
52.90
55.86
56.54
55.06
51.85
47.63
43.20
39.26
36.08
33.66
31.78
30.28
29.15
28.45
28.15
28.00
27.57
26.38
24.23
21.27
17.89
14.50
11.33
8.26
4.98
1.19
-3.26
-8.30
-13.66
-19.05
-24.28
-29.24
-33.98
-38.64
-43.51
-49.01
-55.56
-63.32
-71.92
-80.21
-86.32
-88.13
-83.94
-73.15
-56.51
-36.00
-14.16
6.59
24.56
38.93
49.61
56.93
61.31
63.09
62.63
60.33
56.69
52.35
47.94
43.96
40.66
38.09
36.16
34.81
34.03
33.82
34.13
34.75
35.24
35.09
33.85
31.31
27.57
22.99
18.03
13.08
8.32
3.71
-0.97
-5.92
-11.23
-16.79
-22.34
-27.53
-32.17
-36.33
-40.40
-45.05
-51.00
-58.69
-68.03
-78.11
-87.29
-93.46
-94.60
-89.38
-77.64
-60.44
-39.83
-18.30
1.90
19.16
32.72
42.55
49.11
53.02
54.85
55.08
54.10
52.28
49.96
47.44
44.94
42.51
40.18
38.00
36.14
34.84
34.27
34.43
35.01
35.47
35.22
33.79
31.02
27.13
22.60
17.98
13.69
9.85
6.27
2.57
-1.68
-6.68
-12.28
-18.03
-23.35
-27.84
-31.51
-34.83
-38.62
-43.69
-50.60
-59.35
-69.34
-79.29
-87.58
-92.41
-92.31
-86.43
-74.81
-58.46
-39.11
-18.85
0.39
17.15
30.71
40.96
48.20
52.90
55.42
56.02
54.93
52.49
49.19
45.65
42.36
39.54
37.11
34.80
32.45
30.15
28.22
26.97
26.46
26.30
25.79
24.25
21.29
17.00
11.81
6.27
0.79
-4.40
-9.22
-13.58
-17.30
-20.21
-22.18
-23.27
-23.78
-24.16
-24.97
-26.80
-30.12
-35.16
-41.69
-48.89
-55.34
-59.30
-59.22
-54.18
-44.32
-30.81
-15.49
-0.26
13.45
24.97
34.28
41.67
47.36
51.24
53.07
52.60
49.97
45.70
40.59
35.45
30.83
26.94
23.76
21.19
19.15
17.66
16.71
16.18
15.85
15.41
14.57
13.10
10.87
7.74
3.59
-1.69
-7.98
-14.93
-21.94
-28.22
-33.11
-36.30
-37.97
-38.76
-39.63
-41.62
-45.46
-51.42
-59.01
-67.03
-73.70
-77.06
-75.52
-68.32
-55.84
-39.48
-21.23
-3.14
13.21
26.85
37.39
44.88
49.56
51.81
52.13
51.09
49.30
47.25
45.23
43.24
41.14
38.68
35.70
32.16
28.19
24.02
19.90
16.00
12.40
9.15
6.28
3.87
1.90
0.19
-1.69
-4.26
-8.01
-13.10
-19.17
-25.38
-30.70
-34.28
-35.87
-35.96
-35.72
-36.67
-40.30
-47.59
-58.75
-73.02
-88.65
-103.17
-113.88
-118.61
-116.43
-108.09
-95.68
-81.63
-67.43
-52.67
-34.95
-10.88
22.24
64.96
114.91
167.33
216.48
257.37
286.93
304.40
310.67
307.14
294.87
274.19
244.98
207.31
161.98
110.78
56.33
1.94
-48.73
-91.82
-123.77
-142.05
-146.03
-137.58
-120.78
-100.85
-82.59
-69.04
-60.89
-57.09
-55.78
-55.43
-55.34
-55.48
-56.02
-56.91
-57.79
-58.26
-58.32
-58.53
-59.86
-63.25
-69.13
-76.99
-85.34
-92.11
-95.19
-93.18
-85.71
-73.54
-58.14
-41.19
-24.06
-7.57
7.80
21.71
33.74
43.40
50.33
54.49
56.28
56.40
55.60
54.52
53.50
52.55
51.46
49.89
47.61
44.61
41.15
37.79
35.18
33.82
33.82
34.84
36.17
36.97
36.51
34.30
30.16
24.11
16.29
6.93
-3.62
-14.82
-25.98
-36.30
-45.20
-52.42
-58.22
-63.32
-68.60
-74.74
-81.95
-89.61
-96.42
-100.59
-100.36
-94.60
-83.11
-66.79
-47.42
-27.14
-7.98
8.57
21.79
31.54
38.12
41.95
43.51
43.22
41.55
38.96
35.92
32.82
29.91
27.30
24.95
22.90
21.24
20.11
19.55
19.44
19.34
18.76
17.28
14.75
11.35
7.48
3.58
-0.07
-3.47
-6.83
-10.42
-14.45
-18.92
-23.71
-28.56
-33.28
-37.79
-42.19
-46.82
-52.12
-58.47
-65.96
-74.09
-81.64
-86.87
-87.90
-83.30
-72.67
-56.81
-37.57
-17.27
1.96
18.59
31.98
42.11
49.36
54.13
56.76
57.49
56.52
54.18
50.95
47.47
44.33
41.98
40.53
39.79
39.42
39.14
38.85
38.65
38.69
38.95
39.17
38.85
37.48
34.80
30.87
26.11
21.10
16.32
11.99
7.98
3.94
-0.56
-5.78
-11.74
-18.12
-24.45
-30.26
-35.23
-39.35
-42.93
-46.54
-50.86
-56.52
-63.85
-72.61
-81.79
-89.67
-94.12
-93.19
-85.80
-72.10
-53.53
-32.35
-10.97
8.70
25.48
38.94
49.10
56.23
60.64
62.71
62.87
61.58
59.34
56.53
53.52
50.60
47.99
45.88
44.38
43.55
43.39
43.90
44.97
46.42
47.80
48.51
47.98
45.81
42.08
37.31
32.25
27.51
23.37
19.60
15.66
10.94
5.13
-1.72
-9.22
-16.79
-23.89
-30.19
-35.61
-40.37
-44.88
-49.76
-55.68
-63.09
-71.99
-81.71
-90.83
-97.46
-99.72
-96.24
-86.65
-71.67
-52.90
-32.42
-12.29
5.85
20.97
32.66
41.03
46.47
49.49
50.52
49.95
48.03
45.14
41.71
38.20
35.02
32.37
30.27
28.67
27.56
26.95
26.92
27.39
28.03
28.34
27.77
26.02
23.12
19.43
15.44
11.51
7.70
3.78
-0.62
-5.73
-11.48
-17.49
-23.18
-28.04
-31.84
-34.77
-37.37
-40.40
-44.66
-50.61
-58.24
-66.73
-74.60
-79.84
-80.49
-75.23
-63.85
-47.43
-28.02
-7.99
10.53
26.21
38.55
47.70
54.06
58.03
59.84
59.63
57.64
54.25
49.99
45.45
41.08
37.14
33.73
30.92
28.79
27.47
27.05
27.41
28.19
28.79
28.50
26.87
23.84
19.74
15.23
10.92
7.16
3.87
0.57
-3.28
-8.03
-13.65
-19.70
-25.64
-31.06
-35.93
-40.58
-45.58
-51.52
-58.75
-67.27
-76.50
-85.29
-92.02
-94.84
-92.25
-83.54
-69.15
-50.59
-30.03
-9.72
8.65
24.15
36.54
45.99
52.79
57.16
59.24
59.27
57.66
55.00
51.99
49.22
47.01
45.32
43.88
42.41
40.79
39.17
37.86
37.12
36.88
36.67
35.79
33.62
29.93
25.04
19.71
14.71
10.54
7.13
4.01
0.54
-3.77
-8.97
-14.77
-20.61
-25.96
-30.50
-34.25
-37.57
-41.01
-45.22
-50.71
-57.70
-65.89
-74.48
-82.13
-87.17
-88.02
-83.52
-73.36
-58.21
-39.67
-19.82
-0.70
16.19
30.04
40.72
48.45
53.56
56.39
57.24
56.52
54.69
52.27
49.66
47.04
44.42
41.66
38.75
35.80
33.08
30.91
29.45
28.60
27.94
26.90
24.98
22.04
18.46
15.02
12.55
11.60
12.04
13.09
13.58
12.38
8.96
3.50
-3.21
-10.20
-16.74
-22.62
-28.13
-33.81
-40.17
-47.47
-55.66
-64.35
-72.80
-79.94
-84.39
-84.74
-79.98
-69.87
-55.21
-37.63
-19.16
-1.67
13.54
25.86
35.19
41.70
45.62
47.14
46.51
44.10
40.51
36.39
32.37
28.89
26.19
24.34
23.22
22.73
22.74
23.05
23.35
23.31
22.58
20.96
18.48
15.37
12.02
8.71
5.52
2.22
-1.55
-6.11
-11.51
-17.42
-23.27
-28.45
-32.61
-35.80
-38.52
-41.47
-45.38
-50.70
-57.44
-65.08
-72.51
-78.20
-80.43
-77.71
-69.31
-55.61
-38.08
-18.95
-0.48
15.59
28.44
38.12
45.09
49.80
52.50
53.18
51.92
49.01
45.10
40.96
37.25
34.31
32.17
30.63
29.54
28.80
28.39
28.25
28.15
27.68
26.42
24.11
20.79
16.83
12.70
8.84
5.36
2.07
-1.44
-5.59
-10.54
-16.07
-21.77
-27.12
-31.82
-35.94
-39.86
-44.25
-49.72
-56.71
-65.15
-74.41
-83.16
-89.64
-91.95
-88.63
-79.13
-64.14
-45.38
-25.13
-5.62
11.56
25.66
36.65
44.91
50.81
54.58
56.34
56.22
54.53
51.84
48.80
45.96
43.56
41.59
39.83
38.17
36.69
35.67
35.37
35.78
36.51
36.86
36.13
33.90
30.20
25.46
20.30
15.34
10.91
7.00
3.31
-0.63
-5.21
-10.56
-16.56
-22.80
-28.81
-34.27
-39.07
-43.45
-47.85
-52.80
-58.82
-66.17
-74.66
-83.48
-91.20
-95.91
-95.75
-89.52
-77.11
-59.65
-39.18
-18.02
1.76
18.82
32.58
43.01
50.38
54.98
57.13
57.20
55.72
53.33
50.70
48.37
46.60
45.41
44.60
43.96
43.33
42.69
42.12
41.70
41.42
41.09
40.40
38.96
36.56
33.11
28.82
24.07
19.27
14.73
10.55
6.63
2.68
-1.61
-6.47
-11.95
-17.82
-23.72
-29.22
-33.99
-37.91
-41.20
-44.33
-48.00
-52.92
-59.61
-68.16
-77.94
-87.55
-95.01
-98.14
-95.23
-85.56
-69.76
-49.60
-27.52
-5.94
13.31
29.25
41.64
50.69
56.74
60.06
60.85
59.41
56.20
51.87
47.17
42.76
39.07
36.32
34.53
33.63
33.54
34.10
35.11
36.21
36.89
36.61
34.98
31.88
27.60
22.69
17.85
13.53
9.80
6.38
2.71
-1.70
-7.05
-13.12
-19.42
-25.42
-30.77
-35.44
-39.72
-44.10
-49.19
-55.52
-63.43
-72.82
-82.95
-92.31
-98.80
-100.21
-94.87
-82.28
-63.32
-40.05
-15.16
8.71
29.47
45.82
57.20
63.72
65.92
64.70
61.08
56.08
50.56
45.18
40.47
36.78
34.32
33.09
32.85
33.15
33.56
33.85
34.07
34.51
35.51
37.24
39.50
41.82
43.51
43.92
42.65
39.62
35.07
29.36
22.88
15.78
8.12
-0.09
-8.65
-17.15
-25.05
-31.87
-37.46
-42.07
-46.30
-50.92
-56.66
-64.05
-73.28
-84.00
-95.15
-104.95
-111.09
-111.38
-104.30
-89.66
-68.64
-43.51
-16.96
8.51
30.99
49.37
63.24
72.70
78.25
80.64
80.70
79.16
76.53
73.12
69.01
64.27
59.06
53.65
48.41
43.71
39.84
36.95
35.07
34.12
33.94
34.24
34.70
34.94
34.60
33.36
31.09
27.87
23.97
19.84
15.79
11.95
8.18
4.10
-0.70
-6.46
-13.12
-20.32
-27.54
-34.30
-40.36
-45.80
-51.03
-56.63
-63.16
-70.93
-79.83
-89.13
-97.46
-102.99
-103.85
-98.62
-86.78
-69.06
-47.20
-23.62
-0.75
19.53
36.16
48.86
57.87
63.66
66.59
67.00
65.17
61.58
56.90
51.94
47.49
44.08
41.90
40.80
40.43
40.36
40.27
40.01
39.49
38.68
37.50
35.85
33.63
30.77
27.34
23.50
19.53
15.63
11.86
8.05
3.87
-1.03
-6.74
-13.02
-19.28
-24.87
-29.40
-33.02
-36.52
-41.05
-47.70
-57.06
-68.88
-82.06
-94.85
-105.22
-111.24
-111.33
-104.54
-90.71
-70.77
-46.78
-21.71
1.11
18.79
29.59
33.28
30.85
23.88
14.00
2.64
-8.60
-17.58
-21.61
-18.13
-5.95
13.66
36.88
58.39
73.34
79.20
76.47
68.14
57.83
48.16
39.80
31.87
23.09
12.74
0.97
-11.69
-24.92
-38.89
-53.82
-69.33
-83.96
-95.56
-102.30
-103.64
-100.86
-96.51
-93.09
-91.61
-90.86
-87.53
-77.55
-57.82
-27.74
10.25
51.25
89.51
120.30
141.17
152.25
155.40
152.86
146.07
135.28
120.14
100.64
77.86
54.09
32.03
13.86
0.76
-7.03
-9.54
-6.55
2.46
17.62
37.98
60.93
82.53
98.50
105.37
101.35
86.61
62.99
33.40
1.12
-30.78
-59.74
-83.99
-102.49
-114.84
-121.12
-121.82
-117.88
-110.80
-102.71
-95.95
-92.45
-92.80
-95.67
-97.88
-95.43
-84.85
-64.67
-36.16
-2.97
29.98
57.96
77.77
88.16
89.73
84.35
74.44
62.32
49.84
38.05
27.28
17.35
7.90
-1.24
-9.96
-17.99
-25.04
-30.87
-35.06
-36.75
-34.45
-26.46
-11.63
9.77
35.57
62.06
85.04
101.05
108.40
107.44
100.08
88.94
76.49
64.44
53.61
44.02
35.23
26.68
18.01
9.27
0.88
-6.50
-12.31
-16.41
-19.20
-21.65
-24.99
-30.54
-39.29
-51.54
-66.58
-82.54
-96.43
-104.80
-104.68
-94.82
-76.46
-53.34
-30.56
-12.78
-2.55
0.54
-0.85
-3.44
-5.10
-5.87
-7.34
-11.33
-18.31
-26.79
-34.00
-37.22
-35.25
-28.86
-20.22
-11.68
-4.71
0.62
5.39
11.12
19.13
30.01
43.38
57.64
70.21
77.86
77.84
68.76
51.45
28.85
5.08
-15.85
-31.37
-40.67
-44.37
-43.64
-39.56
-32.99
-24.97
-17.06
-11.32
-9.78
-13.66
-22.84
-35.84
-50.42
-64.24
-75.44
-82.79
-85.44
-82.65
-73.78
-58.51
-37.33
-11.83
15.41
41.39
63.41
79.73
89.83
94.23
94.16
90.96
85.87
79.78
73.32
66.90
60.74
54.95
49.59
44.76
40.70
37.83
36.51
36.77
37.94
38.47
36.20
29.06
16.03
-2.05
-22.31
-40.45
-52.23
-54.81
-47.93
-33.97
-17.05
-1.69
8.55
11.96
8.67
0.21
-11.37
-24.12
-36.67
-48.29
-58.76
-68.17
-76.67
-84.32
-90.95
-95.98
-98.54
-97.51
-91.87
-81.05
-65.30
-45.76
-24.23
-2.80
16.67
32.88
45.20
53.56
58.30
59.98
59.36
57.31
54.70
52.27
50.39
48.95
47.41
45.14
41.70
37.17
32.16
27.61
24.41
23.04
23.37
24.79
26.47
27.70
28.04
27.44
26.05
24.00
21.28
17.63
12.73
6.38
-1.30
-9.77
-18.21
-25.76
-31.80
-36.21
-39.31
-41.76
-44.27
-47.40
-51.49
-56.68
-62.99
-70.16
-77.49
-83.68
-86.83
-84.94
-76.45
-60.99
-39.73
-15.15
9.59
31.64
49.14
61.59
69.62
74.40
77.15
78.79
79.91
80.90
81.94
82.74
82.27
78.63
69.61
53.67
30.99
3.81
-24.07
-48.59
-66.91
-78.10
-82.90
-82.78
-78.85
-71.48
-60.53
-46.08
-28.93
-10.67
6.83
22.04
34.04
42.56
47.64
49.37
47.75
42.89
35.17
25.50
15.12
5.34
-2.94
-9.49
-14.91
-20.38
-27.28
-36.63
-48.68
-62.56
-76.27
-87.08
-92.26
-90.00
-80.21
-64.66
-46.46
-28.98
-14.59
-3.99
3.86
10.85
18.79
28.55
39.80
51.32
61.56
69.21
73.62
74.81
73.43
70.47
66.98
63.78
61.29
59.53
58.28
57.33
56.53
55.87
55.31
54.64
53.43
51.17
47.43
42.07
35.31
27.57
19.38
11.04
2.58
-6.21
-15.56
-25.40
-35.18
-43.91
-50.44
-53.89
-54.11
-51.73
-48.03
-44.55
-42.68
-43.41
-47.25
-54.17
-63.53
-74.00
-83.60
-89.99
-91.03
-85.39
-73.02
-55.21
-34.25
-12.70
7.14
23.76
36.49
45.43
51.04
53.94
54.70
53.73
51.43
48.18
44.46
40.73
37.36
34.52
32.21
30.26
28.57
27.12
25.97
25.17
24.58
23.87
22.63
20.53
17.53
13.86
9.91
6.05
2.46
-0.93
-4.36
-8.07
-12.18
-16.62
-21.14
-25.47
-29.49
-33.30
-37.25
-41.94
-47.97
-55.76
-65.23
-75.61
-85.38
-92.57
-95.12
-91.60
-81.63
-66.05
-46.66
-25.69
-5.23
13.14
28.44
40.20
48.37
53.19
55.21
55.22
54.10
52.60
51.20
50.03
48.94
47.69
46.13
44.36
42.60
41.19
40.41
40.32
40.67
40.95
40.54
38.93
35.96
31.84
27.17
22.65
18.81
15.86
13.50
11.07
7.81
3.19
-2.88
-9.88
-16.88
-22.87
-27.17
-29.87
-31.98
-35.38
-42.25
-54.41
-72.49
-95.34
-120.03
-142.28
-157.66
-162.75
-156.15
-138.65
-112.98
-82.80
-51.75
-22.77
2.22
22.16
36.68
45.84
50.28
51.30
50.92
51.60
55.69
64.75
78.91
96.57
114.55
128.71
135.05
130.94
115.86
91.71
62.31
32.27
5.82
-14.08
-26.12
-30.55
-28.62
-22.12
-12.92
-2.80
6.65
13.95
17.84
17.30
11.69
0.97
-14.23
-32.52
-51.98
-70.40
-85.57
-95.52
-98.62
-93.96
-81.74
-63.73
-43.20
-24.33
-11.05
-5.66
-8.03
-15.68
-24.65
-30.89
-31.54
-25.52
-13.54
2.50
20.24
37.49
52.54
64.24
72.01
75.69
75.53
72.17
66.57
59.94
53.52
48.32
44.82
42.96
42.17
41.69
40.79
39.04
36.33
32.78
28.72
24.47
20.32
16.40
12.74
9.31
6.13
3.21
0.56
-1.98
-4.75
-8.24
-12.81
-18.53
-25.01
-31.49
-37.10
-41.19
-43.56
-44.56
-44.92
-45.55
-47.29
-50.72
-56.00
-62.83
-70.38
-77.37
-82.19
-83.20
-79.07
-69.12
-53.56
-33.61
-11.30
10.95
30.81
46.58
57.43
63.41
65.21
63.82
60.25
55.33
49.70
43.93
38.49
33.84
30.23
27.71
26.12
25.14
24.52
24.05
23.68
23.35
22.94
22.21
20.83
18.48
14.99
10.45
5.17
-0.40
-5.75
-10.58
-14.81
-18.54
-21.99
-25.32
-28.59
-31.67
-34.40
-36.67
-38.59
-40.48
-42.94
-46.55
-51.69
-58.11
-64.77
-69.99
-71.81
-68.64
-59.81
-45.87
-28.50
-10.15
6.69
19.98
28.63
32.57
32.65
30.26
26.93
23.85
21.72
20.67
20.50
20.77
21.08
21.12
20.70
19.90
19.22
19.57
22.10
27.80
36.89
48.63
61.36
72.95
81.61
86.30
86.97
84.33
79.45
73.27
66.44
59.30
51.91
44.22
36.16
27.61
18.40
8.35
-2.88
-15.64
-30.27
-46.86
-65.14
-84.41
-103.82
-122.50
-139.75
-154.93
-167.17
-175.11
-177.07
-171.46
-157.48
-135.60
-107.73
-76.86
-46.30
-18.94
3.29
19.75
31.07
38.90
45.35
52.37
61.08
71.43
82.29
91.87
98.40
100.63
98.05
90.99
80.44
67.93
55.32
44.43
36.66
32.59
31.75
32.78
33.96
33.71
31.13
26.14
19.45
12.20
5.64
0.77
-1.88
-2.27
-0.82
1.72
4.41
6.36
6.85
5.48
2.16
-3.02
-9.91
-18.47
-28.78
-40.88
-54.66
-69.71
-85.33
-100.62
-114.42
-125.46
-132.33
-133.74
-128.83
-117.55
-100.85
-80.50
-58.60
-36.99
-16.90
1.16
17.14
31.18
43.49
54.30
63.79
72.15
79.41
85.39
89.77
92.25
92.65
91.10
87.86
83.30
77.75
71.51
64.96
58.56
52.82
48.17
44.78
42.50
40.82
38.94
36.04
31.47
24.93
16.74
7.70
-1.06
-8.48
-13.96
-17.55
-19.83
-21.66
-23.70
-26.18
-28.97
-31.72
-34.19
-36.46
-38.88
-41.92
-46.01
-51.46
-58.40
-66.68
-75.69
-84.17
-90.24
-91.89
-87.72
-77.57
-62.82
-45.92
-29.48
-15.35
-4.07
4.96
12.86
20.55
28.35
35.87
42.41
47.31
50.21
51.13
50.40
48.51
45.95
43.11
40.32
37.89
36.15
35.47
36.09
37.97
40.66
43.35
45.10
45.08
42.94
38.75
33.04
26.51
19.82
13.46
7.53
1.91
-3.79
-9.91
-16.58
-23.60
-30.51
-36.73
-41.90
-46.05
-49.62
-53.43
-58.37
-65.20
-74.23
-85.09
-96.58
-106.69
-112.93
-112.93
-105.16
-89.51
-67.42
-41.52
-14.82
10.00
31.14
47.82
60.06
68.30
73.14
75.18
75.02
73.28
70.57
67.43
64.17
60.93
57.67
54.33
51.02
47.99
45.63
44.28
44.03
44.63
45.52
46.03
45.53
43.68
40.37
35.81
30.33
24.35
18.27
12.39
6.86
1.65
-3.46
-8.89
-14.98
-21.98
-29.82
-38.11
-46.24
-53.58
-59.82
-65.05
-69.90
-75.28
-82.16
-91.06
-101.65
-112.59
-121.58
-125.85
-122.90
-111.36
-91.45
-65.03
-35.09
-4.98
22.33
44.85
61.74
73.17
79.92
83.08
83.63
82.37
79.90
76.67
73.12
69.70
66.83
64.74
63.38
62.45
61.52
60.33
58.86
57.42
56.41
56.12
56.44
56.81
56.38
54.25
49.88
43.24
34.87
25.67
16.65
8.61
1.99
-3.24
-7.42
-11.19
-15.23
-20.09
-25.99
-32.83
-40.13
-47.37
-54.14
-60.39
-66.49
-73.11
-81.03
-90.69
-101.89
-113.50
-123.40
-128.93
-127.59
-117.85
-99.79
-75.18
-46.99
-18.53
7.36
28.89
45.31
56.74
63.72
66.95
67.22
65.33
62.14
58.52
55.13
52.38
50.34
48.83
47.50
46.07
44.55
43.26
42.77
43.60
45.85
49.02
52.01
53.53
52.57
48.78
42.61
35.05
27.22
19.93
13.41
7.49
1.69
-4.35
-10.76
-17.38
-23.85
-29.82
-35.14
-39.96
-44.71
-49.95
-56.24
-64.03
-73.43
-84.06
-94.86
-104.09
-109.50
-108.89
-100.77
-84.96
-62.78
-36.82
-10.14
14.44
35.07
51.03
62.53
70.23
74.83
76.71
76.03
72.86
67.47
60.43
52.54
44.66
37.40
31.16
26.16
22.61
20.66
20.38
21.50
23.32
24.88
25.28
23.95
20.90
16.59
11.69
6.79
2.13
-2.41
-7.17
-12.55
-18.75
-25.63
-32.68
-39.18
-44.49
-48.40
-51.41
-54.67
-59.71
-67.85
-79.63
-94.32
-109.75
-122.72
-129.70
-127.91
-116.21
-95.54
-68.69
-39.43
-11.32
13.21
33.16
48.78
60.86
70.13
76.96
81.47
83.80
84.24
83.29
81.38
78.79
75.50
71.45
66.60
61.22
55.82
51.03
47.40
45.15
44.12
43.79
43.43
42.30
39.90
36.01
30.79
24.66
18.21
11.94
6.18
0.82
-4.47
-10.23
-16.82
-24.25
-32.10
-39.61
-46.03
-50.90
-54.36
-57.04
-60.01
-64.38
-71.00
-80.03
-90.80
-101.66
-110.27
-114.09
-111.02
-100.15
-82.05
-58.68
-32.93
-7.81
14.27
31.92
44.82
53.46
58.71
61.44
62.37
62.03
60.83
59.10
57.17
55.27
53.54
52.00
50.66
49.58
48.81
48.46
48.54
49.00
49.69
50.48
51.20
51.59
51.36
50.01
47.04
42.09
35.16
26.64
17.28
7.87
-0.91
-8.70
-15.49
-21.59
-27.44
-33.44
-39.93
-46.92
-54.22
-61.42
-68.08
-73.95
-79.07
-83.81
-88.70
-94.16
-100.12
-105.77
-109.67
-109.93
-104.88
-93.54
-76.01
-53.53
-28.14
-2.14
22.35
43.79
61.23
74.24
82.76
86.98
87.32
84.52
79.61
73.80
68.20
63.61
60.22
57.76
55.60
53.20
50.40
47.48
45.02
43.49
42.96
42.91
42.45
40.65
36.94
31.33
24.33
16.69
9.00
1.54
-5.77
-13.14
-20.73
-28.48
-36.16
-43.46
-50.16
-56.19
-61.65
-66.80
-72.03
-77.77
-84.40
-91.89
-99.52
-105.80
-108.61
-105.82
-96.02
-79.20
-56.85
-31.54
-6.18
16.83
36.09
51.18
62.30
69.78
73.84
74.65
72.55
68.24
62.76
57.14
52.17
48.14
44.99
42.50
40.55
39.15
38.33
37.95
37.61
36.73
34.85
31.78
27.66
22.83
17.65
12.31
6.83
1.05
-5.17
-11.90
-19.06
-26.42
-33.63
-40.36
-46.35
-51.55
-56.15
-60.61
-65.60
-71.84
-79.77
-89.26
-99.22
-107.69
-112.10
-110.09
-100.29
-82.87
-59.59
-33.31
-7.09
16.55
36.04
50.91
61.41
68.14
71.78
72.95
72.14
69.84
66.55
62.76
58.94
55.44
52.44
49.94
47.84
46.00
44.45
43.27
42.57
42.29
42.08
41.34
39.41
35.91
30.85
24.85
18.77
13.42
9.16
5.70
2.23
-2.25
-8.48
-16.62
-26.17
-36.19
-45.61
-53.63
-59.94
-64.75
-68.77
-72.99
-78.41
-85.74
-95.01
-105.24
-114.45
-120.04
-119.46
-111.10
-94.82
-72.12
-45.66
-18.52
6.65
28.07
44.93
57.25
65.44
70.09
71.81
71.26
69.12
66.17
63.11
60.49
58.44
56.74
54.82
52.10
48.25
43.48
38.45
34.17
31.51
30.84
31.82
33.50
34.58
33.92
30.93
25.82
19.46
13.03
7.62
3.82
1.64
0.53
-0.26
-1.51
-3.77
-7.32
-12.21
-18.23
-25.09
-32.42
-39.90
-47.34
-54.76
-62.47
-70.86
-80.21
-90.26
-99.88
-107.13
-109.59
-105.21
-93.04
-73.69
-49.23
-22.55
3.48
26.62
45.58
59.94
69.81
75.65
78.11
78.03
76.29
73.64
70.49
66.88
62.53
57.03
50.17
42.10
33.42
25.10
18.42
14.58
14.45
18.17
24.98
33.25
40.90
45.98
47.16
44.15
37.60
28.82
19.23
10.02
1.82
-5.25
-11.43
-17.08
-22.47
-27.69
-32.62
-37.12
-41.09
-44.62
-47.97
-51.56
-55.93
-61.63
-69.06
-78.19
-88.30
-97.78
-104.43
-105.85
-100.28
-87.16
-67.40
-43.14
-17.23
7.63
29.37
46.80
59.62
68.09
72.74
74.21
73.10
70.06
65.83
61.23
57.04
53.87
51.90
50.95
50.56
50.27
49.82
49.25
48.74
48.41
48.17
47.56
45.95
42.77
37.76
31.06
23.23
15.11
7.48
0.97
-4.21
-8.25
-11.66
-15.11
-19.21
-24.33
-30.51
-37.50
-44.87
-52.24
-59.39
-66.36
-73.48
-81.31
-90.39
-100.86
-112.10
-122.53
-129.77
-131.24
-125.00
-110.48
-88.73
-62.17
-33.78
-6.30
18.34
39.15
55.82
68.39
76.91
81.47
82.27
79.85
75.15
69.40
63.88
59.52
56.62
54.81
53.31
51.36
48.65
45.53
42.73
40.94
40.31
40.33
40.02
38.46
35.24
30.69
25.65
21.03
17.38
14.54
11.75
8.01
2.49
-5.06
-14.12
-23.54
-31.92
-38.10
-41.71
-43.35
-44.56
-47.24
-53.02
-62.60
-75.38
-89.68
-103.01
-112.66
-116.34
-112.56
-101.03
-82.66
-59.38
-33.77
-8.44
14.49
33.74
48.91
60.30
68.46
73.94
77.14
78.30
77.60
75.27
71.57
66.77
61.15
55.03
48.79
42.89
37.83
34.01
31.61
30.52
30.32
30.47
30.43
29.79
28.33
26.00
22.92
19.36
15.66
12.11
8.86
5.82
2.68
-0.97
-5.45
-10.87
-17.04
-23.61
-30.14
-36.28
-41.87
-46.97
-51.81
-56.76
-62.33
-68.92
-76.70
-85.22
-93.35
-99.32
-101.16
-97.18
-86.71
-70.28
-49.61
-27.08
-5.14
14.28
30.07
41.91
50.08
55.05
57.30
57.24
55.22
51.65
47.12
42.36
38.04
34.66
32.35
31.00
30.39
30.29
30.61
31.31
32.16
32.71
32.36
30.56
27.15
22.39
16.88
11.28
5.92
0.73
-4.66
-10.68
-17.47
-24.79
-32.11
-38.83
-44.57
-49.37
-53.64
-58.09
-63.38
-69.92
-77.55
-85.42
-92.00
-95.38
-93.76
-85.97
-71.91
-52.70
-30.47
-7.73
13.26
30.94
44.63
54.40
60.65
63.91
64.67
63.44
60.75
57.18
53.28
49.41
45.69
42.17
38.89
36.01
33.85
32.63
32.37
32.73
33.15
32.98
31.75
29.28
25.71
21.41
16.75
11.98
7.09
1.88
-3.95
-10.57
-17.86
-25.46
-32.75
-39.22
-44.57
-48.98
-53.03
-57.52
-63.22
-70.54
-79.26
-88.33
-95.99
-100.09
-98.64
-90.45
-75.59
-55.44
-32.35
-9.11
11.85
28.87
41.32
49.42
53.91
55.69
55.57
54.14
51.82
48.99
45.98
43.10
40.57
38.43
36.63
34.99
33.39
31.80
30.34
29.12
28.18
27.33
26.11
23.95
20.32
14.96
8.12
0.48
-7.08
-13.80
-19.39
-24.05
-28.42
-33.30
-39.37
-47.02
-56.30
-66.73
-77.33
-86.57
-92.50
-93.19
-87.26
-74.40
-55.59
-32.97
-9.22
13.05
31.94
46.54
56.81
63.25
66.60
67.43
66.17
63.11
58.56
52.89
46.60
40.12
33.87
28.16
23.27
19.39
16.65
14.94
13.87
12.84
11.13
8.21
3.94
-1.47
-7.46
-13.42
-18.89
-23.71
-28.14
-32.87
-38.74
-46.51
-56.34
-67.50
-78.15
-85.74
-87.63
-81.97
-68.42
-48.31
-24.28
0.54
23.39
42.48
57.12
67.48
74.02
77.21
77.36
74.77
69.91
63.53
56.57
49.90
44.09
39.32
35.44
32.20
29.42
27.09
25.36
24.26
23.65
23.08
21.93
19.60
15.70
10.22
3.56
-3.60
-10.52
-16.68
-21.96
-26.73
-31.74
-37.87
-45.79
-55.58
-66.53
-77.03
-84.84
-87.57
-83.38
-71.56
-52.83
-29.27
-3.77
20.76
41.96
58.57
70.29
77.55
81.11
81.67
79.76
75.87
70.51
64.36
58.13
52.44
47.61
43.63
40.30
37.39
34.79
32.49
30.47
28.61
26.62
24.16
20.93
16.82
11.93
6.47
0.62
-5.51
-11.84
-18.28
-24.69
-30.84
-36.53
-41.64
-46.21
-50.48
-54.88
-59.92
-66.13
-73.84
-83.01
-92.95
-102.16
-108.46
-109.45
-103.16
-88.82
-67.28
-40.88
-12.85
13.63
36.19
53.64
65.97
73.79
77.85
78.77
76.99
72.90
67.13
60.51
53.97
48.29
43.89
40.72
38.40
36.42
34.35
32.01
29.52
27.09
24.89
22.81
20.46
17.26
12.69
6.52
-1.02
-9.35
-17.69
-25.32
-31.91
-37.48
-42.36
-47.12
-52.40
-58.82
-66.77
-76.16
-86.14
-94.98
-100.36
-99.94
-92.18
-76.92
-55.52
-30.48
-4.69
19.42
40.22
56.94
69.39
77.64
81.85
82.38
79.88
75.26
69.62
63.89
58.74
54.37
50.65
47.37
44.37
41.69
39.56
38.22
37.75
37.91
38.13
37.66
35.83
32.32
27.24
21.24
15.17
9.77
5.34
1.62
-2.14
-6.80
-12.99
-20.86
-29.97
-39.46
-48.38
-56.06
-62.31
-67.52
-72.61
-78.60
-86.33
-95.91
-106.49
-116.18
-122.52
-122.98
-115.85
-100.69
-78.60
-51.90
-23.55
3.60
27.32
46.29
60.12
69.13
73.97
75.47
74.42
71.54
67.50
62.94
58.45
54.51
51.37
49.04
47.35
46.04
44.92
43.99
43.36
43.12
43.19
43.21
42.64
40.91
37.63
32.77
26.69
20.04
13.53
7.74
2.86
-1.29
-5.22
-9.53
-14.65
-20.67
-27.33
-34.10
-40.43
-45.95
-50.54
-54.37
-57.76
-61.23
-65.40
-70.90
-78.16
-87.00
-96.26
-103.82
-107.00
-103.39
-91.84
-72.94
-48.95
-23.09
1.51
22.58
39.14
51.15
59.17
63.85
65.75
65.37
63.23
59.90
56.00
52.03
48.33
45.02
42.15
39.71
37.73
36.29
35.50
35.34
35.70
36.30
36.77
36.74
35.89
34.02
31.04
27.04
22.25
17.04
11.87
7.10
2.89
-0.93
-4.75
-9.08
-14.24
-20.28
-26.92
-33.64
-39.86
-45.20
-49.53
-53.13
-56.57
-60.65
-66.08
-73.20
-81.70
-90.43
-97.48
-100.62
-97.86
-88.18
-71.87
-50.56
-26.79
-3.34
17.50
34.28
46.57
54.62
58.98
60.24
58.91
55.53
50.78
45.53
40.67
36.87
34.33
32.81
31.74
30.71
29.70
29.08
29.32
30.60
32.51
34.09
34.29
32.34
28.26
22.74
16.81
11.33
6.61
2.29
-2.33
-7.84
-14.38
-21.54
-28.62
-34.93
-40.18
-44.53
-48.42
-52.37
-56.84
-62.16
-68.51
-75.84
-83.64
-90.71
-95.23
-95.15
-88.94
-76.09
-57.58
-35.51
-12.52
9.02
27.48
42.16
53.03
60.35
64.42
65.46
63.76
59.82
54.41
48.51
43.06
38.70
35.58
33.47
31.95
30.68
29.55
28.63
27.97
27.37
26.45
24.72
21.90
18.06
13.64
9.24
5.26
1.75
-1.69
-5.65
-10.61
-16.66
-23.46
-30.45
-37.09
-43.24
-49.24
-55.83
-63.83
-73.58
-84.69
-95.84
-104.97
-109.75
-108.22
-99.33
-83.30
-61.64
-36.76
-11.40
12.04
31.90
47.47
58.75
66.18
70.29
71.49
70.18
66.81
62.02
56.55
51.08
46.04
41.51
37.45
33.83
30.86
28.89
28.14
28.55
29.56
30.26
29.83
27.76
24.11
19.41
14.40
9.65
5.29
1.00
-3.84
-9.80
-17.07
-25.28
-33.59
-41.00
-46.89
-51.32
-55.16
-59.82
-66.64
-76.36
-88.78
-102.60
-115.70
-125.61
-130.03
-127.38
-117.28
-100.75
-80.06
-58.00
-36.65
-16.39
4.58
29.47
61.24
100.76
145.80
191.32
231.29
260.81
277.53
281.77
275.39
260.32
237.58
207.44
170.33
127.84
83.05
40.03
2.68
-26.35
-46.33
-58.38
-64.74
-67.86
-69.60
-70.80
-71.39
-70.81
-68.62
-64.94
-60.55
-56.60
-54.24
-54.09
-56.12
-59.70
-63.91
-67.99
-71.59
-74.86
-78.31
-82.46
-87.69
-94.02
-101.26
-108.87
-116.05
-121.57
-123.79
-120.90
-111.41
-94.81
-71.98
-45.19
-17.39
8.52
30.50
47.64
60.03
68.21
72.81
74.27
72.92
69.19
63.65
57.01
49.93
42.93
36.38
30.56
25.73
22.19
20.09
19.33
19.44
19.83
19.92
19.41
18.35
16.99
15.57
14.13
12.45
10.16
6.95
2.76
-2.24
-7.67
-13.26
-18.91
-24.83
-31.49
-39.47
-49.20
-60.66
-73.06
-84.75
-93.42
-96.62
-92.48
-80.33
-61.01
-36.67
-10.30
15.09
37.18
54.61
67.08
74.95
78.87
79.49
77.41
73.16
67.35
60.71
53.97
47.81
42.67
38.76
36.07
34.52
33.92
34.09
34.75
35.48
35.82
35.23
33.35
30.08
25.61
20.30
14.51
8.41
1.96
-4.94
-12.32
-19.90
-27.22
-33.79
-39.35
-44.01
-48.31
-52.98
-58.82
-66.43
-75.92
-86.66
-97.12
-104.92
-107.39
-102.34
-88.87
-67.84
-41.69
-13.65
13.11
36.28
54.72
68.26
77.29
82.40
84.14
83.10
79.98
75.59
70.77
66.16
62.14
58.65
55.47
52.29
49.02
45.89
43.33
41.75
41.24
41.46
41.63
40.87
38.52
34.45
29.07
23.14
17.38
12.24
7.63
3.14
-1.76
-7.49
-14.10
-21.31
-28.58
-35.28
-40.98
-45.58
-49.38
-53.09
-57.60
-63.78
-72.07
-82.22
-93.03
-102.43
-107.85
-106.88
-98.00
-81.14
-57.82
-30.80
-3.29
21.81
42.56
58.16
68.77
75.06
77.85
77.89
75.82
72.28
67.95
63.48
59.40
55.95
53.10
50.57
48.12
45.66
43.33
41.44
40.22
39.56
39.01
37.85
35.42
31.39
25.92
19.58
13.08
7.00
1.55
-3.45
-8.46
-13.93
-20.10
-26.85
-33.78
-40.33
-46.02
-50.62
-54.28
-57.49
-61.00
-65.66
-72.06
-80.25
-89.44
-97.87
-103.19
-102.97
-95.58
-80.76
-59.85
-35.44
-10.55
12.17
31.03
45.39
55.44
61.71
64.78
65.15
63.30
59.82
55.45
50.91
46.77
43.27
40.40
37.99
35.94
34.26
33.03
32.24
31.69
30.98
29.59
27.16
23.58
19.04
13.92
8.65
3.54
-1.31
-5.95
-10.53
-15.21
-20.05
-25.01
-29.92
-34.63
-39.07
-43.39
-47.94
-53.30
-60.08
-68.63
-78.72
-89.22
-98.15
-103.07
-101.72
-92.83
-76.59
-54.76
-30.13
-5.63
16.29
34.23
47.80
57.28
63.27
66.41
67.27
66.41
64.35
61.66
58.82
56.18
53.85
51.74
49.65
47.44
45.16
43.01
41.30
40.23
39.67
39.22
38.33
36.46
33.40
29.24
24.32
19.00
13.53
7.97
2.18
-3.96
-10.49
-17.35
-24.32
-31.13
-37.48
-43.11
-47.88
-51.82
-55.28
-58.89
-63.43
-69.68
-77.95
-87.79
-97.78
-105.68
-108.93
-105.44
-94.30
-76.13
-52.98
-27.78
-3.44
17.81
34.84
47.52
56.38
62.14
65.44
66.67
66.14
64.14
61.08
57.45
53.76
50.47
47.84
45.96
44.75
44.07
43.75
43.60
43.48
43.26
42.79
41.88
40.29
37.78
34.18
29.51
24.06
18.27
12.62
7.40
2.62
-1.95
-6.61
-11.59
-16.94
-22.55
-28.21
-33.74
-39.00
-43.89
-48.32
-52.30
-55.99
-59.78
-64.27
-70.08
-77.54
-86.35
-95.37
-102.66
-105.89
-103.01
-92.98
-76.17
-54.29
-29.96
-5.91
15.59
33.13
46.22
55.09
60.35
62.81
63.20
62.18
60.24
57.75
55.00
52.27
49.80
47.75
46.20
45.09
44.30
43.69
43.21
42.82
42.47
42.07
41.37
40.08
37.94
34.79
30.60
25.61
20.17
14.69
9.52
4.88
0.72
-3.18
-7.18
-11.60
-16.63
-22.24
-28.20
-34.20
-39.94
-45.19
-49.91
-54.24
-58.53
-63.34
-69.32
-76.90
-85.97
-95.57
-103.86
-108.44
-107.12
-98.61
-83.08
-62.13
-38.36
-14.52
7.12
25.20
39.27
49.48
56.31
60.22
61.62
60.92
58.62
55.36
51.86
48.73
46.29
44.52
43.13
41.75
40.27
38.80
37.73
37.41
37.97
39.11
40.27
40.71
39.81
37.32
33.27
28.07
22.28
16.50
11.17
6.40
1.97
-2.62
-7.88
-14.10
-21.14
-28.49
-35.43
-41.43
-46.38
-50.65
-55.02
-60.33
-67.23
-75.97
-86.21
-96.91
-106.43
-112.65
-113.51
-107.56
-94.48
-75.26
-52.03
-27.38
-3.73
17.18
34.43
47.78
57.30
63.18
65.68
65.16
62.29
57.95
53.16
48.83
45.51
43.33
41.98
41.02
40.07
39.01
38.01
37.33
37.13
37.28
37.33
36.65
34.71
31.25
26.44
20.81
15.06
9.75
5.14
1.11
-2.80
-7.11
-12.19
-18.12
-24.70
-31.50
-38.14
-44.41
-50.33
-56.17
-62.31
-69.23
-77.34
-86.84
-97.48
-108.21
-117.20
-122.06
-120.45
-110.90
-93.38
-69.49
-42.02
-14.13
11.51
33.20
50.31
63.00
71.81
77.32
80.02
80.41
79.00
76.34
72.97
69.36
65.85
62.65
59.88
57.57
55.74
54.36
53.32
52.44
51.49
50.25
48.53
46.25
43.36
39.87
35.78
31.08
25.82
20.12
14.20
8.30
2.63
-2.69
-7.74
-12.67
-17.74
-23.13
-28.88
-34.90
-40.92
-46.64
-51.82
-56.46
-60.87
-65.72
-71.82
-79.91
-90.15
-101.75
-112.86
-120.80
-122.74
-116.58
-101.67
-79.17
-51.72
-22.77
4.42
27.50
45.41
58.26
66.84
72.09
74.75
75.15
73.42
69.67
64.30
58.05
51.92
46.85
43.43
41.69
41.12
40.91
40.32
38.92
36.77
34.27
31.86
29.82
28.07
26.28
23.97
20.63
15.78
9.05
0.43
-9.30
-18.11
-22.86
-20.04
-7.15
15.90
46.24
78.70
107.52
128.39
139.62
142.06
137.75
128.22
113.55
92.50
63.77
27.22
-15.48
-61.10
-105.74
-145.59
-177.34
-198.32
-206.49
-200.83
-181.89
-152.23
-116.13
-78.78
-44.86
-17.49
2.28
15.10
22.64
26.64
28.52
29.15
29.03
28.44
27.52
26.38
25.09
23.73
22.38
21.29
20.79
21.27
22.99
25.85
29.34
32.52
34.34
33.94
31.03
26.01
19.86
13.78
8.66
4.84
1.91
-1.00
-4.85
-10.21
-17.04
-24.67
-32.06
-38.27
-42.85
-45.96
-48.41
-51.25
-55.50
-61.74
-69.92
-79.18
-87.97
-94.27
-96.01
-91.54
-80.17
-62.41
-39.96
-15.29
8.97
30.63
48.30
61.47
70.20
74.90
76.14
74.49
70.71
65.64
60.12
54.88
50.28
46.34
42.98
40.06
37.64
35.86
34.80
34.36
34.10
33.46
31.84
28.91
24.67
19.43
13.64
7.72
1.85
-4.03
-10.13
-16.65
-23.61
-30.78
-37.71
-43.94
-49.19
-53.66
-57.95
-63.00
-69.73
-78.55
-89.03
-99.67
-108.12
-111.77
-108.46
-97.23
-78.69
