1705927908.00
64.000000
-0.00
-0.00
-0.00
-0.00
-0.00
-0.00
-0.00
-0.00
-0.00
-0.00
0.00
0.01
0.01
-0.00
-0.03
-0.05
-0.05
0.00
0.13
0.36
0.66
1.01
1.37
1.72
2.06
2.40
2.79
3.24
3.80
4.42
5.06
5.66
6.20
6.68
7.15
7.68
8.31
9.14
10.09
11.04
11.88
12.56
13.14
13.76
14.65
15.96
17.91
20.32
22.90
25.38
27.58
29.57
31.68
34.32
37.81
42.54
48.15
54.10
59.83
64.97
69.58
74.14
79.34
85.71
93.76
103.00
112.62
121.73
129.77
136.75
143.30
150.75
157.77
166.64
177.95
191.79
206.97
220.57
228.25
225.36
208.53
176.87
132.76
80.05
23.07
-34.94
-92.44
-149.16
-205.23
-260.37
-313.74
-363.87
-409.83
-450.91
-486.50
-515.74
-537.23
-549.22
-549.96
-538.37
-514.21
-478.67
-433.88
-382.45
-327.02
-269.84
-212.63
-156.66
-102.95
-52.37
-5.90
35.58
71.43
101.35
125.50
144.38
158.69
169.15
176.37
180.75
182.57
182.07
179.51
175.23
169.65
163.18
156.15
148.81
141.30
133.69
126.02
118.33
110.69
103.16
95.80
88.68
81.83
75.25
68.95
62.95
57.25
51.86
46.78
42.03
37.59
33.45
29.61
26.07
22.81
19.83
17.11
14.67
12.48
10.54
8.83
7.35
6.07
4.97
4.05
3.27
2.62
2.09
1.65
1.30
1.01
0.79
0.61
0.48
0.37
0.28
0.22
0.17
0.15
0.14
0.14
0.16
0.16
0.14
0.10
0.03
-0.03
-0.08
-0.09
-0.06
-0.00
0.05
0.08
0.06
0.01
-0.05
-0.09
-0.07
-0.01
0.08
0.16
0.17
0.10
-0.05
-0.19
-0.28
-0.23
-0.05
0.20
0.40
0.42
0.23
-0.14
-0.54
-0.78
-0.71
-0.32
0.24
0.71
0.83
0.47
-0.26
-1.09
-1.64
-1.63
-1.03
-0.07
0.77
1.06
0.60
-0.50
-1.78
-2.68
-2.84
-2.14
-0.88
0.42
1.22
1.06
-0.45
-3.52
-8.00
-13.06
-17.14
-18.41
-15.48
-8.29
1.66
11.73
19.13
22.16
20.79
16.37
10.82
5.73
1.85
-0.80
-2.46
-3.33
-3.40
-2.69
-1.43
0.00
1.18
1.83
1.98
1.83
1.74
1.94
2.56
3.50
4.43
4.91
4.50
2.99
0.57
-2.20
-4.65
-6.21
-6.75
-6.58
-6.24
-6.27
-6.86
-7.81
-8.69
-9.10
-8.91
-8.30
-7.69
-7.54
-8.18
-9.69
-11.93
-14.64
-17.57
-20.57
-23.55
-26.49
-29.28
-31.74
-33.60
-34.65
-34.83
-34.41
-33.79
-33.40
-33.54
-34.16
-35.01
-35.67
-35.78
-35.01
-33.22
-30.39
-26.51
-21.58
-15.52
-8.25
0.19
9.51
19.24
28.75
37.50
45.19
51.74
57.26
61.81
65.33
67.64
68.56
68.10
66.55
64.38
62.10
60.13
58.63
57.57
56.79
56.11
55.36
54.42
53.26
51.80
50.00
47.84
45.35
42.65
39.84
36.98
33.97
30.56
26.43
21.41
15.57
9.20
2.72
-3.51
-9.28
-14.60
-19.54
-24.15
-28.43
-32.29
-35.61
-38.27
-40.17
-41.15
-41.03
-39.72
-37.18
-33.60
-29.30
-24.66
-20.00
-15.53
-11.27
-7.13
-2.93
1.48
6.16
11.08
16.11
21.08
25.85
30.46
35.20
40.56
47.09
55.22
64.96
75.87
87.11
97.65
106.64
113.60
118.61
122.09
124.67
126.74
128.27
128.64
126.76
121.41
111.64
97.31
79.29
59.41
39.91
22.77
9.07
-1.32
-9.41
-16.53
-23.76
-31.67
-40.17
-48.67
-56.12
-61.15
-62.38
-58.96
-51.19
-40.81
-30.76
-24.19
-23.35
-28.72
-38.92
-51.39
-63.43
-73.12
-79.64
-83.10
-84.12
-83.36
-81.50
-79.11
-76.78
-75.03
-74.28
-74.68
-76.04
-77.94
-79.85
-81.38
-82.44
-83.26
-84.18
-85.39
-86.62
-87.02
-85.35
-80.50
-71.95
-60.18
-46.53
-32.68
-20.07
-9.42
-0.72
6.51
12.74
18.07
22.27
24.93
25.74
24.67
21.99
18.23
13.99
9.84
6.21
3.32
1.15
-0.45
-1.74
-2.97
-4.47
-6.61
-9.92
-15.02
-22.43
-32.25
-43.90
-56.09
-67.06
-75.11
-79.15
-79.02
-75.41
-69.52
-62.52
-55.27
-48.19
-41.48
-35.36
-30.25
-26.64
-24.97
-25.36
-27.33
-29.81
-31.32
-30.42
-26.26
-18.98
-9.71
-0.24
7.69
13.00
15.56
15.98
15.19
13.95
12.52
10.92
9.00
6.80
4.62
2.89
1.95
1.81
2.14
2.30
1.69
-0.02
-2.62
-5.44
-7.57
-8.21
-7.04
-4.33
-0.81
2.69
5.52
7.48
8.72
9.61
10.43
11.22
11.91
12.44
12.96
13.86
15.64
18.58
22.61
27.32
32.11
36.53
40.38
43.78
47.00
50.24
53.54
56.69
59.38
61.29
62.31
62.54
62.30
61.98
61.92
62.29
63.06
64.05
65.03
65.81
66.30
66.46
66.35
66.01
65.48
64.73
63.71
62.40
60.80
58.98
57.00
54.89
52.59
50.00
47.09
43.97
40.84
37.86
35.02
32.01
28.36
23.62
17.59
10.39
2.37
-6.06
-14.53
-22.78
-30.51
-37.37
-42.97
-47.05
-49.62
-51.02
-51.82
-52.64
-53.86
-55.52
-57.35
-58.87
-59.64
-59.44
-58.23
-56.14
-53.38
-50.08
-46.29
-42.00
-37.22
-32.08
-26.83
-21.80
-17.35
-13.76
-11.16
-9.49
-8.51
-7.88
-7.20
-6.19
-4.77
-3.05
-1.30
0.12
0.95
1.06
0.48
-0.57
-1.88
-3.20
-4.40
-5.39
-6.17
-6.75
-7.23
-7.69
-8.23
-8.89
-9.56
-10.11
-10.39
-10.37
-10.15
-9.99
-10.16
-10.80
-11.86
-13.06
-13.98
-14.24
-13.65
-12.25
-10.35
-8.37
-6.69
-5.54
-4.91
-4.64
-4.46
-4.13
-3.53
-2.57
-1.27
0.40
2.40
4.67
7.15
9.82
12.71
15.94
19.63
23.89
28.69
33.87
39.21
44.47
49.47
54.13
58.37
62.04
64.86
66.41
66.17
63.73
58.91
51.92
43.47
34.60
26.45
19.85
15.13
11.90
9.31
6.42
2.50
-2.71
-9.05
-16.16
-23.58
-30.87
-37.52
-42.92
-46.48
-47.90
-47.38
-45.73
-44.04
-43.26
-43.67
-44.78
-45.47
-44.45
-40.88
-34.55
-26.01
-16.22
-6.20
3.36
12.17
20.34
28.16
35.86
43.48
50.86
57.76
64.01
69.67
74.99
80.34
86.03
92.21
98.73
105.11
110.50
113.69
113.38
108.43
98.33
83.46
65.01
44.69
24.21
4.84
-12.81
-28.69
-43.03
-56.04
-67.71
-77.92
-86.53
-93.55
-99.18
-103.73
-107.47
-110.49
-112.71
-113.94
-114.08
-113.16
-111.43
-109.28
-107.07
-105.07
-103.40
-102.03
-100.88
-99.77
-98.52
-96.95
-94.86
-92.09
-88.50
-83.98
-78.49
-72.11
-65.08
-57.77
-50.57
-43.79
-37.54
-31.70
-26.04
-20.34
-14.50
-8.66
-3.04
2.04
6.38
9.87
12.54
14.55
16.11
17.48
18.81
20.09
21.19
21.89
22.01
21.51
20.56
19.37
18.11
16.83
15.46
13.94
12.30
10.66
9.19
8.00
7.06
6.21
5.25
3.98
2.35
0.42
-1.58
-3.30
-4.45
-4.86
-4.61
-4.03
-3.61
-3.76
-4.65
-6.17
-7.93
-9.47
-10.47
-10.84
-10.67
-10.12
-9.29
-8.16
-6.69
-4.91
-3.01
-1.34
-0.23
0.12
-0.22
-0.91
-1.48
-1.54
-0.84
0.65
2.76
5.25
7.86
10.42
12.84
15.14
17.34
19.40
21.20
22.45
22.89
22.34
20.91
18.92
16.92
15.45
14.88
15.33
16.61
18.32
19.96
21.12
21.48
20.94
19.54
17.41
14.68
11.45
7.80
3.83
-0.29
-4.32
-8.00
-11.21
-14.05
-16.81
-19.86
-23.43
-27.43
-31.51
-35.12
-37.79
-39.23
-39.39
-38.45
-36.65
-34.25
-31.44
-28.40
-25.25
-22.15
-19.12
-16.14
-13.12
-10.00
-6.82
-3.75
-1.00
1.29
3.16
4.79
6.43
8.20
10.05
11.77
13.15
14.05
14.56
14.87
15.19
15.59
16.00
16.27
16.26
15.92
15.32
14.62
13.94
13.35
12.73
11.93
10.82
9.38
7.76
6.19
4.94
4.10
3.59
3.14
2.44
1.26
-0.46
-2.58
-4.82
-6.81
-8.26
-8.96
-8.87
-8.06
-6.71
-4.95
-2.90
-0.61
1.85
4.40
6.95
9.44
11.85
14.19
16.40
18.32
19.63
20.02
19.35
17.82
15.90
14.15
13.01
12.66
13.00
13.85
15.03
16.50
18.24
20.18
22.10
23.67
24.61
24.79
24.37
23.74
23.26
23.20
23.54
24.03
24.25
23.86
22.64
20.63
17.99
14.96
11.74
8.47
5.22
1.97
-1.35
-4.87
-8.72
-12.99
-17.63
-22.43
-27.03
-30.92
-33.66
-34.88
-34.35
-32.06
-28.21
-23.19
-17.59
-12.08
-7.27
-3.57
-1.13
0.19
0.71
0.79
0.74
0.79
1.03
1.53
2.27
3.23
4.34
5.56
6.84
8.16
9.49
10.71
11.77
12.56
13.11
13.48
13.85
14.33
14.92
15.50
15.84
15.72
15.06
13.97
12.68
11.46
10.52
9.90
9.50
9.11
8.56
7.76
6.74
5.63
4.56
3.64
2.84
2.07
1.12
-0.22
-2.11
-4.66
-7.80
-11.31
-14.78
-17.68
-19.48
-19.80
-18.53
-15.93
-12.46
-8.68
-5.02
-1.67
1.37
4.28
7.19
10.17
13.14
15.89
18.12
19.53
19.94
19.38
18.11
16.55
15.18
14.35
14.28
14.97
16.27
17.94
19.63
20.99
21.72
21.70
21.04
20.05
19.13
18.57
18.47
18.64
18.82
18.71
18.20
17.30
16.20
15.13
14.21
13.44
12.70
11.78
10.52
8.86
6.88
4.73
2.52
0.31
-1.90
-4.13
-6.39
-8.62
-10.77
-12.84
-14.89
-16.99
-19.14
-21.23
-23.00
-24.09
-24.20
-23.08
-20.73
-17.31
-13.19
-8.80
-4.58
-0.80
2.46
5.25
7.79
10.18
12.46
14.49
16.08
17.13
17.64
17.77
17.70
17.57
17.38
17.07
16.57
15.91
15.22
14.67
14.36
14.25
14.18
13.97
13.51
12.91
12.39
12.20
12.40
12.86
13.27
13.33
12.91
12.12
11.18
10.31
9.57
8.81
7.85
6.58
5.03
3.36
1.72
0.16
-1.41
-3.09
-4.96
-6.91
-8.84
-10.61
-12.24
-13.87
-15.71
-17.88
-20.32
-22.73
-24.67
-25.67
-25.39
-23.75
-20.93
-17.28
-13.27
-9.29
-5.64
-2.42
0.39
2.88
5.11
6.98
8.36
9.11
9.30
9.17
9.13
9.55
10.56
11.99
13.50
14.72
15.40
15.56
15.34
14.96
14.56
14.23
13.93
13.59
13.17
12.65
12.05
11.43
10.85
10.28
9.66
8.86
7.82
6.59
5.33
4.24
3.45
2.93
2.49
1.86
0.79
-0.82
-2.86
-5.12
-7.29
-9.13
-10.58
-11.79
-13.07
-14.75
-17.06
-19.96
-23.19
-26.29
-28.70
-29.99
-29.82
-28.14
-25.13
-21.20
-16.87
-12.65
-8.83
-5.48
-2.49
0.28
2.84
5.10
6.86
8.05
8.71
9.08
9.45
9.94
10.55
11.16
11.63
11.95
12.16
12.36
12.57
12.72
12.64
12.15
11.13
9.60
7.68
5.65
3.77
2.34
1.49
1.17
1.16
1.10
0.72
-0.14
-1.31
-2.46
-3.20
-3.35
-3.01
-2.53
-2.42
-3.06
-4.55
-6.62
-8.73
-10.27
-10.82
-10.29
-9.01
-7.52
-6.43
-6.05
-6.30
-6.70
-6.57
-5.32
-2.63
1.42
6.42
11.94
17.61
23.35
29.28
35.55
42.19
48.98
55.44
61.06
65.37
68.14
69.28
68.83
67.02
64.37
61.70
59.89
59.47
60.33
61.67
62.38
61.59
59.04
54.99
49.82
43.61
36.05
26.74
15.68
3.50
-8.73
-19.92
-29.49
-37.45
-44.09
-49.64
-54.04
-57.01
-58.34
-58.07
-56.62
-54.60
-52.63
-51.11
-50.17
-49.70
-49.46
-49.19
-48.81
-48.43
-48.38
-49.07
-50.83
-53.77
-57.65
-61.91
-65.83
-68.70
-70.11
-70.02
-68.69
-66.65
-64.49
-62.76
-61.95
-62.39
-64.24
-67.50
-71.93
-77.13
-82.60
-87.85
-92.49
-96.28
-99.21
-101.41
-103.18
-104.75
-106.10
-106.70
-105.48
-101.04
-92.21
-78.60
-60.79
-40.21
-18.46
3.22
24.31
44.88
65.12
84.91
103.64
120.44
134.44
145.10
152.14
155.37
154.75
150.41
142.95
133.51
123.60
114.66
107.56
102.31
98.16
93.96
88.61
81.40
72.12
61.02
48.69
36.05
24.14
14.05
6.65
2.39
1.27
2.92
6.80
12.41
19.37
27.43
36.34
45.78
55.30
64.49
72.98
80.59
87.29
93.15
98.35
103.12
107.67
112.14
116.49
120.43
123.37
124.51
123.08
118.63
111.18
101.20
89.35
76.17
61.87
46.32
29.31
10.79
-8.97
-29.43
-50.00
-70.11
-89.29
-107.00
-122.60
-135.40
-144.85
-150.86
-153.85
-154.67
-154.28
-153.37
-152.24
-150.82
-148.87
-146.23
-142.93
-139.23
-135.46
-131.89
-128.61
-125.53
-122.36
-118.77
-114.42
-109.13
-102.90
-95.92
-88.47
-80.79
-73.01
-65.17
-57.27
-49.36
-41.59
-34.15
-27.17
-20.60
-14.18
-7.52
-0.27
7.80
16.71
26.32
36.30
46.17
55.27
62.93
68.68
72.49
74.81
76.45
78.27
80.74
83.80
86.89
89.24
90.24
89.69
87.83
85.12
82.06
78.95
75.87
72.70
69.29
65.56
61.53
57.29
52.86
48.20
43.20
37.73
31.73
25.13
17.87
9.80
0.77
-9.24
-20.05
-31.24
-42.31
-52.82
-62.54
-71.36
-79.18
-85.77
-90.76
-93.89
-95.14
-94.83
-93.49
-91.59
-89.32
-86.49
-82.72
-77.71
-71.40
-64.02
-55.81
-46.89
-37.12
-26.27
-14.30
-1.62
11.06
23.00
33.76
43.46
52.58
61.61
70.70
79.56
87.70
94.64
100.07
103.79
105.52
104.86
101.37
94.81
85.32
73.36
59.54
44.38
28.22
11.33
-6.04
-23.44
-40.35
-56.16
-70.28
-82.15
-91.26
-97.25
-99.97
-99.58
-96.46
-91.13
-84.15
-76.05
-67.40
-58.84
-50.96
-44.16
-38.55
-33.85
-29.59
-25.33
-20.78
-15.94
-10.90
-5.76
-0.50
4.98
10.73
16.66
22.57
28.21
33.39
38.10
42.48
46.82
51.45
56.59
62.31
68.42
74.66
80.67
86.22
91.14
95.33
98.61
100.70
101.25
100.04
97.05
92.54
86.96
80.82
74.58
68.58
62.99
57.78
52.69
47.29
41.09
33.79
25.41
16.33
7.20
-1.34
-8.75
-14.73
-19.17
-22.13
-23.85
-24.76
-25.39
-26.28
-27.74
-29.80
-32.14
-34.38
-36.23
-37.66
-38.90
-40.25
-41.90
-43.85
-45.91
-47.85
-49.51
-50.84
-51.81
-52.35
-52.31
-51.48
-49.77
-47.25
-44.17
-40.91
-37.78
-34.95
-32.41
-30.03
-27.67
-25.27
-22.88
-20.61
-18.58
-16.82
-15.31
-13.92
-12.51
-10.96
-9.33
-7.80
-6.64
-6.06
-6.06
-6.43
-6.85
-7.07
-7.05
-6.99
-7.15
-7.66
-8.45
-9.24
-9.81
-10.03
-10.05
-10.09
-10.34
-10.82
-11.43
-12.06
-12.60
-13.02
-13.26
-13.23
-12.76
-11.79
-10.34
-8.62
-6.84
-5.08
-3.23
-1.02
1.84
5.46
9.72
14.43
19.42
24.67
30.31
36.51
43.27
50.47
57.76
64.77
71.22
76.94
81.84
85.93
89.11
91.26
92.14
91.51
89.18
85.17
79.68
72.99
65.35
56.72
46.86
35.50
22.60
8.59
-5.66
-19.07
-30.73
-40.11
-47.09
-51.69
-53.85
-53.39
-50.20
-44.53
-37.14
-29.17
-21.73
-15.62
-11.07
-7.93
-5.85
-4.62
-4.22
-4.69
-6.00
-7.90
-9.99
-11.86
-13.26
-14.15
-14.71
-15.15
-15.70
-16.46
-17.43
-18.54
-19.67
-20.67
-21.38
-21.67
-21.40
-20.49
-18.96
-16.93
-14.61
-12.24
-10.04
-8.12
-6.46
-4.97
-3.53
-2.09
-0.71
0.52
1.52
2.29
2.89
3.44
4.01
4.58
5.07
5.38
5.49
5.41
5.28
5.21
5.32
5.62
6.09
6.60
6.99
7.11
6.88
6.31
5.51
4.63
3.78
3.03
2.30
1.49
0.51
-0.66
-1.94
-3.23
-4.41
-5.47
-6.45
-7.41
-8.39
-9.38
-10.31
-11.14
-11.89
-12.67
-13.66
-14.99
-16.76
-18.88
-21.08
-22.98
-24.21
-24.51
-23.82
-22.35
-20.41
-18.36
-16.38
-14.48
-12.55
-10.46
-8.23
-5.92
-3.69
-1.61
0.28
2.00
3.53
4.82
5.81
6.48
6.86
7.04
7.12
7.10
7.03
6.86
6.63
6.36
6.09
5.87
5.69
5.52
5.29
4.98
4.55
4.04
3.57
3.24
3.12
3.15
3.14
2.83
2.05
0.83
-0.61
-1.95
-2.94
-3.58
-4.08
-4.77
-5.88
-7.40
-9.08
-10.51
-11.43
-11.83
-11.97
-12.23
-12.90
-14.03
-15.38
-16.57
-17.22
-17.14
-16.34
-14.91
-12.99
-10.61
-7.76
-4.46
-0.81
2.94
6.51
9.65
12.29
14.43
16.18
17.64
18.82
19.74
20.36
20.66
20.64
20.35
19.87
19.30
18.71
18.15
17.63
17.11
16.56
15.95
15.32
14.72
14.17
13.67
13.09
12.35
11.36
10.10
8.62
7.03
5.42
3.89
2.48
1.14
-0.23
-1.72
-3.40
-5.19
-6.97
-8.58
-9.95
-11.07
-12.04
-13.00
-14.06
-15.24
-16.44
-17.55
-18.47
-19.16
-19.71
-20.26
-20.86
-21.49
-21.97
-22.06
-21.56
-20.38
-18.65
-16.61
-14.54
-12.63
-10.91
-9.31
-7.70
-6.04
-4.39
-2.92
-1.79
-1.05
-0.67
-0.48
-0.30
0.01
0.49
1.11
1.81
2.52
3.20
3.79
4.23
4.42
4.30
3.86
3.18
2.46
1.95
1.84
2.14
2.69
3.17
3.32
3.00
2.30
1.41
0.50
-0.39
-1.31
-2.32
-3.35
-4.26
-4.86
-5.13
-5.27
-5.60
-6.43
-7.89
-9.79
-11.70
-13.13
-13.73
-13.40
-12.34
-10.93
-9.54
-8.43
-7.61
-6.92
-6.14
-5.08
-3.74
-2.25
-0.78
0.50
1.56
2.49
3.35
4.19
4.98
5.61
6.00
6.14
6.09
6.02
6.08
6.36
6.86
7.42
7.85
7.96
7.71
7.14
6.43
5.74
5.16
4.65
4.08
3.35
2.46
1.52
0.69
0.04
-0.46
-0.96
-1.60
-2.47
-3.50
-4.53
-5.38
-5.97
-6.34
-6.70
-7.31
-8.33
-9.79
-11.49
-13.11
-14.28
-14.75
-14.50
-13.65
-12.49
-11.26
-10.09
-8.92
-7.66
-6.18
-4.53
-2.90
-1.55
-0.72
-0.42
-0.52
-0.74
-0.78
-0.49
0.16
1.08
2.15
3.25
4.32
5.26
6.03
6.53
6.68
6.48
5.97
5.27
4.54
3.90
3.43
3.11
2.81
2.37
1.71
0.86
-0.04
-0.77
-1.24
-1.49
-1.74
-2.25
-3.23
-4.66
-6.39
-8.16
-9.76
-11.09
-12.17
-13.05
-13.75
-14.22
-14.33
-13.99
-13.11
-11.76
-10.04
-8.10
-6.07
-3.96
-1.81
0.35
2.33
3.94
4.97
5.40
5.37
5.19
5.21
5.63
6.43
7.41
8.32
8.95
9.22
9.20
8.98
8.68
8.32
7.88
7.34
6.66
5.92
5.19
4.61
4.23
4.02
3.86
3.60
3.16
2.53
1.85
1.26
0.92
0.85
0.98
1.11
1.05
0.61
-0.31
-1.67
-3.33
-5.06
-6.53
-7.46
-7.65
-7.03
-5.66
-3.74
-1.48
0.93
3.36
5.73
8.02
10.18
12.16
13.83
15.07
15.80
16.06
16.03
15.98
16.21
16.87
17.90
19.02
19.83
20.04
19.55
18.57
17.47
16.69
16.57
17.21
18.47
19.97
21.28
21.95
21.73
20.60
18.76
16.58
14.44
12.61
11.20
10.16
9.35
8.72
8.27
8.06
8.13
8.34
8.43
8.00
6.73
4.53
1.68
-1.29
-3.77
-5.33
-5.82
-5.43
-4.52
-3.40
-2.20
-0.87
0.66
2.31
3.80
4.68
4.60
3.52
1.79
0.02
-1.17
-1.42
-0.81
0.24
1.12
1.39
0.94
-0.06
-1.17
-1.94
-2.05
-1.42
-0.13
1.51
3.16
4.47
5.24
5.38
5.01
4.32
3.46
2.41
0.89
-1.59
-5.58
-11.45
-19.21
-28.39
-38.11
-47.09
-53.97
-57.58
-57.34
-53.54
-47.12
-39.36
-31.14
-22.68
-13.61
-3.67
6.67
16.04
22.67
25.29
23.80
19.23
13.05
6.20
-1.40
-10.67
-22.66
-37.83
-55.81
-75.62
-96.08
-116.02
-134.15
-148.78
-158.00
-160.38
-156.03
-147.24
-138.11
-132.95
-134.39
-141.85
-151.53
-157.94
-156.34
-144.75
-124.56
-99.42
-73.27
-48.51
-25.46
-3.17
19.19
41.38
62.01
79.50
93.03
103.06
110.85
117.60
123.60
128.06
129.70
127.52
121.56
112.85
103.01
93.49
85.17
78.23
72.30
66.95
61.84
56.87
52.12
47.76
43.96
40.78
38.22
36.15
34.42
32.83
31.29
29.82
28.48
27.36
26.47
25.74
25.04
24.26
23.36
22.38
21.34
20.23
18.99
17.57
15.99
14.37
12.88
11.66
10.74
10.01
9.25
8.26
6.95
5.40
3.82
2.44
1.37
0.56
-0.21
-1.18
-2.54
-4.28
-6.31
-8.44
-10.57
-12.61
-14.49
-16.07
-17.15
-17.51
-17.07
-15.93
-14.31
-12.43
-10.41
-8.20
-5.67
-2.81
0.24
3.13
5.51
7.18
8.18
8.76
9.21
9.72
10.38
11.14
11.88
12.52
12.99
13.24
13.24
13.03
12.69
12.35
12.09
11.90
11.67
11.35
10.95
10.60
10.45
10.56
10.80
10.93
10.68
9.95
8.84
7.61
6.54
5.76
5.28
4.94
4.57
4.04
3.34
2.54
1.74
1.06
0.51
0.06
-0.42
-1.03
-1.90
-3.13
-4.70
-6.57
-8.54
-10.38
-11.85
-12.76
-13.03
-12.68
-11.80
-10.48
-8.80
-6.81
-4.66
-2.51
-0.53
1.15
2.48
3.46
4.07
4.29
4.13
3.71
3.27
3.11
3.45
4.31
5.45
6.52
7.17
7.26
6.87
6.25
5.69
5.34
5.25
5.34
5.49
5.59
5.62
5.59
5.52
5.36
5.04
4.49
3.75
2.98
2.37
2.08
2.06
2.16
2.11
1.77
1.16
0.46
-0.20
-0.83
-1.63
-2.87
-4.67
-6.88
-9.07
-10.77
-11.66
-11.71
-11.19
-10.42
-9.67
-8.96
-8.16
-7.10
-5.68
-3.95
-2.01
-0.03
1.86
3.58
5.08
6.33
7.34
8.14
8.81
9.45
10.08
10.73
11.35
11.97
12.66
13.53
14.62
15.85
17.01
17.80
18.10
18.01
17.81
17.86
18.29
18.97
19.48
19.41
18.59
17.21
15.75
14.73
14.53
15.16
16.40
17.96
19.61
21.22
22.74
24.13
25.41
26.63
27.93
29.55
31.73
34.64
38.26
42.46
46.99
51.62
56.23
60.74
65.16
69.53
73.88
78.19
82.33
85.89
88.17
88.25
85.27
78.83
69.24
57.37
44.38
31.20
18.24
5.46
-7.28
-20.09
-32.98
-46.05
-59.39
-72.82
-85.56
-96.22
-103.51
-107.19
-108.84
-111.62
-118.95
-132.93
-153.16
-176.83
-200.02
-219.32
-232.95
-240.83
-243.88
-243.20
-239.70
-234.29
-227.85
-220.72
-211.86
-198.41
-176.40
-142.53
-96.27
-40.94
16.91
69.74
111.59
139.88
155.50
161.38
160.76
155.95
148.15
138.04
126.42
114.48
103.41
94.10
86.70
80.78
75.50
70.14
64.40
58.55
53.25
49.12
46.39
44.68
43.16
40.93
37.50
32.96
28.01
23.59
20.43
18.85
18.55
18.86
18.97
18.29
16.62
14.18
11.42
8.81
6.65
5.02
3.86
3.03
2.47
2.14
2.01
2.01
1.94
1.61
0.91
-0.17
-1.47
-2.75
-3.74
-4.30
-4.44
-4.35
-4.30
-4.52
-5.09
-5.96
-7.00
-8.16
-9.43
-10.80
-12.21
-13.45
-14.34
-14.78
-14.91
-15.02
-15.37
-16.02
-16.72
-17.04
-16.56
-15.11
-12.87
-10.19
-7.52
-5.07
-2.90
-0.92
0.91
2.54
3.90
4.91
5.63
6.25
6.95
7.80
8.72
9.51
10.06
10.36
10.54
10.82
11.29
11.88
12.39
12.57
12.30
11.59
10.60
9.54
8.60
7.88
7.42
7.17
7.04
6.88
6.50
5.73
4.53
3.00
1.38
-0.01
-0.93
-1.35
-1.48
-1.70
-2.35
-3.63
-5.48
-7.70
-9.98
-12.05
-13.73
-14.91
-15.53
-15.52
-14.83
-13.47
-11.52
-9.19
-6.73
-4.39
-2.33
-0.58
0.94
2.37
3.78
5.12
6.28
7.12
7.61
7.84
8.02
8.35
8.91
9.63
10.31
10.74
10.78
10.47
9.96
9.45
9.10
8.93
8.85
8.68
8.29
7.65
6.83
5.95
5.09
4.27
3.41
2.47
1.46
0.48
-0.33
-0.89
-1.19
-1.32
-1.34
-1.30
-1.22
-1.16
-1.21
-1.51
-2.16
-3.13
-4.24
-5.17
-5.59
-5.28
-4.18
-2.38
-0.07
2.56
5.36
8.22
11.08
13.86
16.58
19.29
22.18
25.40
29.06
33.07
37.21
41.21
44.91
48.45
52.24
56.81
62.62
69.85
78.28
87.41
96.69
105.66
114.21
122.56
131.20
140.66
151.22
162.58
173.63
182.43
186.46
183.26
171.20
150.20
121.97
89.49
56.02
23.90
-6.19
-35.09
-64.20
-94.23
-124.44
-152.74
-176.58
-194.24
-205.62
-212.33
-216.96
-222.01
-229.08
-238.53
-249.62
-260.94
-270.73
-277.13
-278.51
-273.89
-263.41
-248.67
-232.37
-217.26
-204.75
-193.73
-180.67
-160.98
-131.20
-91.00
-43.70
4.86
48.63
83.48
108.23
124.11
133.32
137.63
137.84
134.14
126.99
117.67
108.11
100.17
94.81
91.65
89.24
85.81
80.16
72.28
63.27
54.78
48.18
43.91
41.34
39.14
36.01
31.32
25.38
19.19
13.87
10.13
7.91
6.57
5.20
3.07
-0.05
-3.90
-7.92
-11.49
-14.18
-15.84
-16.59
-16.71
-16.53
-16.25
-15.92
-15.41
-14.55
-13.21
-11.43
-9.39
-7.40
-5.67
-4.30
-3.26
-2.45
-1.82
-1.42
-1.34
-1.65
-2.27
-2.98
-3.43
-3.36
-2.66
-1.42
0.05
1.43
2.45
3.01
3.24
3.33
3.53
4.05
4.96
6.23
7.70
9.18
10.49
11.53
12.26
12.69
12.81
12.52
11.76
10.45
8.65
6.49
4.15
1.76
-0.61
-2.92
-5.05
-6.75
-7.69
-7.58
-6.26
-3.87
-0.76
2.58
5.71
8.33
10.28
11.54
12.13
12.16
11.77
11.19
10.69
10.46
10.59
11.02
11.58
12.14
12.63
13.06
13.47
13.80
13.87
13.45
12.39
10.72
8.65
6.55
4.77
3.52
2.76
2.28
1.73
0.88
-0.36
-1.86
-3.37
-4.71
-5.77
-6.68
-7.66
-8.98
-10.84
-13.25
-16.02
-18.81
-21.20
-22.76
-23.25
-22.57
-20.84
-18.32
-15.32
-12.16
-9.04
-6.11
-3.47
-1.17
0.76
2.36
3.71
4.94
6.17
7.49
8.89
10.30
11.54
12.43
12.85
12.81
12.51
12.21
12.19
12.52
13.06
13.50
13.54
12.99
11.87
10.39
8.78
7.27
5.89
4.65
3.51
2.49
1.61
0.89
0.24
-0.43
-1.28
-2.36
-3.67
-5.07
-6.40
-7.51
-8.41
-9.23
-10.18
-11.40
-12.89
-14.43
-15.63
-16.15
-15.79
-14.54
-12.58
-10.17
-7.55
-4.88
-2.26
0.26
2.61
4.72
6.49
7.81
8.60
8.88
8.80
8.59
8.57
8.90
9.65
10.64
11.64
12.41
12.86
13.06
13.15
13.26
13.35
13.30
12.90
12.03
10.72
9.14
7.55
6.15
5.03
4.08
3.15
2.05
0.71
-0.81
-2.38
-3.78
-4.92
-5.81
-6.58
-7.40
-8.40
-9.58
-10.84
-12.03
-12.99
-13.63
-13.89
-13.76
-13.22
-12.29
-11.02
-9.51
-7.89
-6.23
-4.55
-2.85
-1.14
0.51
1.95
3.06
3.85
4.43
5.01
5.75
6.69
7.68
8.54
9.10
9.32
9.29
9.18
9.07
8.97
8.81
8.49
8.00
7.40
6.80
6.33
6.01
5.84
5.70
5.46
4.99
4.23
3.17
1.94
0.67
-0.51
-1.57
-2.56
-3.59
-4.75
-6.03
-7.33
-8.50
-9.37
-9.88
-10.01
-9.78
-9.26
-8.50
-7.52
-6.26
-4.66
-2.64
-0.26
2.31
4.77
6.77
8.14
8.86
9.15
9.32
9.60
10.09
10.76
11.49
12.22
13.00
13.87
14.86
15.85
16.66
17.07
16.96
16.36
15.48
14.59
13.92
13.59
13.57
13.76
14.01
14.23
14.33
14.28
14.04
13.55
12.75
11.62
10.16
8.36
6.27
3.90
1.33
-1.34
-3.99
-6.53
-8.87
-11.01
-12.94
-14.57
-15.78
-16.36
-16.12
-15.01
-13.14
-10.79
-8.31
-5.99
-4.03
-2.47
-1.23
-0.17
0.88
2.10
3.55
5.23
7.01
8.63
9.79
10.23
9.86
8.80
7.40
6.16
5.51
5.77
7.07
9.40
12.75
17.24
23.06
30.37
39.00
48.39
57.67
65.99
72.77
77.89
81.57
84.23
86.16
87.46
88.00
87.52
85.80
82.81
78.72
73.92
68.88
64.04
59.67
55.70
51.69
46.86
40.29
31.20
19.31
5.02
-10.57
-26.00
-39.88
-51.45
-60.80
-68.81
-76.79
-86.06
-97.56
-111.69
-128.28
-146.59
-165.38
-183.18
-198.53
-210.28
-217.77
-220.78
-219.33
-213.59
-203.86
-190.66
-174.87
-157.64
-140.15
-123.31
-107.62
-93.11
-79.58
-66.80
-54.66
-43.21
-32.56
-22.84
-14.12
-6.43
0.40
6.58
12.39
18.03
23.49
28.55
32.82
36.01
37.97
38.88
39.08
38.89
38.48
37.75
36.52
34.64
32.17
29.48
27.08
25.49
24.99
25.58
26.98
28.77
30.57
32.13
33.36
34.25
34.87
35.25
35.44
35.43
35.30
35.08
34.87
34.69
34.59
34.51
34.41
34.28
34.06
33.77
33.41
33.00
32.54
32.05
31.46
30.65
29.53
28.00
26.11
24.02
22.00
20.29
19.02
18.14
17.44
16.66
15.57
14.10
12.30
10.35
8.36
6.42
4.52
2.59
0.56
-1.63
-3.92
-6.25
-8.49
-10.47
-11.96
-12.72
-12.53
-11.30
-9.21
-6.57
-3.82
-1.32
0.73
2.37
3.76
5.02
6.19
7.19
7.97
8.51
8.88
9.20
9.50
9.72
9.72
9.38
8.67
7.76
6.91
6.38
6.21
6.28
6.23
5.68
4.41
2.47
0.24
-1.71
-2.80
-2.71
-1.42
0.84
3.68
6.79
9.87
12.79
15.43
17.70
19.56
20.92
21.74
21.86
21.14
19.40
16.65
13.08
9.19
5.64
3.05
1.80
1.90
3.06
4.78
6.61
8.27
9.76
11.24
12.90
14.84
17.00
19.16
21.11
22.77
24.19
25.53
26.94
28.50
30.18
31.89
33.52
35.01
36.37
37.60
38.82
40.12
41.61
43.37
45.36
47.40
49.23
50.54
51.08
50.71
49.50
47.71
45.81
44.36
43.78
44.14
44.99
45.37
44.06
39.93
32.30
21.18
7.31
-8.09
-23.63
-38.06
-50.57
-60.82
-68.79
-74.58
-78.24
-79.73
-79.04
-76.35
-72.18
-67.21
-62.09
-57.10
-52.15
-46.82
-40.67
-33.52
-25.58
-17.40
-9.63
-2.85
2.63
6.82
10.00
12.50
14.59
16.35
17.70
18.46
18.43
17.54
15.86
13.59
11.13
9.05
7.97
8.37
10.31
13.23
16.06
17.54
16.85
13.97
9.76
5.57
2.58
1.27
1.09
0.65
-1.88
-8.22
-19.39
-35.32
-54.61
-74.73
-92.34
-104.33
-108.65
-104.86
-94.23
-78.95
-61.38
-43.31
-25.77
-9.32
5.65
18.68
29.39
37.49
42.80
44.82
42.60
34.86
20.61
0.12
-24.69
-50.48
-73.50
-90.86
-101.37
-105.58
-105.12
-101.85
-97.08
-91.24
-83.99
-74.43
-61.38
-43.73
-20.83
7.21
39.21
73.13
106.48
137.14
163.80
186.34
205.57
222.95
240.16
258.78
279.79
302.98
326.55
347.08
360.33
362.48
351.52
327.86
293.98
253.17
208.07
159.96
109.15
56.02
2.06
-49.84
-96.11
-133.71
-161.16
-178.91
-188.80
-193.21
-193.99
-192.12
-187.65
-180.23
-169.63
-156.18
-140.76
-124.65
-109.12
-95.11
-83.10
-73.07
-64.78
-58.04
-52.84
-49.45
-48.22
-49.29
-52.27
-56.23
-59.75
-61.45
-60.45
-56.71
-51.07
-44.86
-39.34
-35.25
-32.64
-31.00
-29.70
-28.25
-26.48
-24.50
-22.55
-20.77
-19.15
-17.57
-15.76
-13.43
-10.38
-6.55
-2.11
2.55
6.80
9.93
11.25
10.27
6.86
1.30
-5.66
-13.02
-19.71
-24.97
-28.42
-30.22
-30.87
-31.00
-31.15
-31.69
-32.74
-34.24
-35.96
-37.56
-38.61
-38.74
-37.73
-35.53
-32.23
-27.96
-22.84
-17.11
-11.14
-5.57
-1.11
1.73
2.81
2.48
1.35
0.04
-1.14
-2.21
-3.46
-5.19
-7.61
-10.76
-14.47
-18.47
-22.42
-25.99
-28.89
-30.90
-31.88
-31.71
-30.29
-27.53
-23.49
-18.46
-12.90
-7.34
-2.26
2.06
5.54
8.18
9.97
10.80
10.55
9.12
6.51
2.87
-1.49
-6.16
-10.71
-14.77
-18.15
-20.92
-23.29
-25.52
-27.76
-29.94
-31.77
-32.92
-33.11
-32.26
-30.49
-28.07
-25.36
-22.68
-20.29
-18.23
-16.33
-14.15
-11.20
-7.11
-1.78
4.55
11.39
18.12
24.19
29.12
32.55
34.24
34.07
32.15
28.75
24.39
19.65
15.01
10.86
7.39
4.71
2.86
1.87
1.67
2.14
3.04
4.04
4.83
5.14
4.84
3.91
2.37
0.18
-2.67
-6.25
-10.46
-14.99
-19.35
-22.95
-25.33
-26.24
-25.79
-24.23
-22.01
-19.57
-17.35
-15.76
-15.05
-15.24
-16.05
-17.02
-17.62
-17.48
-16.49
-14.76
-12.57
-10.19
-7.89
-5.87
-4.37
-3.58
-3.67
-4.62
-6.22
-8.20
-10.27
-12.38
-14.63
-17.27
-20.41
-23.80
-26.75
-28.21
-27.13
-22.85
-15.39
-5.38
6.08
17.83
28.91
38.64
46.69
52.93
57.39
60.24
61.75
62.26
62.00
61.07
59.40
56.84
53.30
48.96
44.24
39.78
36.23
34.01
33.21
33.50
34.32
35.08
35.40
35.18
34.57
33.82
33.10
32.38
31.43
29.92
27.46
23.88
19.18
13.62
7.62
1.63
-4.01
-9.21
-13.99
-18.47
-22.64
-26.34
-29.30
-31.28
-32.20
-32.15
-31.39
-30.14
-28.60
-26.77
-24.56
-21.80
-18.28
-13.86
-8.55
-2.64
3.36
8.80
13.17
16.25
18.21
19.48
20.46
21.26
21.64
21.14
19.32
16.07
11.68
6.69
1.77
-2.53
-5.81
-7.87
-8.57
-7.90
-5.88
-2.72
1.24
5.57
9.67
13.05
15.32
16.32
16.07
14.81
12.83
10.51
8.15
5.99
4.16
2.63
1.28
-0.06
-1.46
-2.84
-4.03
-4.83
-5.13
-5.06
-4.87
-4.87
-5.25
-6.00
-6.93
-7.86
-8.66
-9.42
-10.27
-11.32
-12.50
-13.58
-14.30
-14.50
-14.27
-13.94
-13.91
-14.49
-15.68
-17.18
-18.50
-19.25
-19.28
-18.81
-18.29
-18.20
-18.82
-20.14
-21.87
-23.67
-25.27
-26.73
-28.32
-30.43
-33.27
-36.80
-40.59
-44.04
-46.61
-47.94
-47.92
-46.49
-43.37
-38.07
-30.03
-19.04
-5.62
8.94
22.85
34.28
41.98
45.57
45.60
43.31
40.19
37.51
36.02
35.89
36.77
38.09
39.41
40.49
41.38
42.16
42.78
42.93
42.17
40.08
36.48
31.44
25.21
18.03
10.07
1.44
-7.73
-17.19
-26.54
-35.23
-42.70
-48.46
-52.18
-53.73
-53.13
-50.56
-46.22
-40.33
-33.07
-24.67
-15.38
-5.49
4.70
14.92
24.88
34.31
42.88
50.20
55.96
59.98
62.25
62.90
62.10
59.99
56.63
52.09
46.53
40.24
33.60
27.00
20.77
15.14
10.22
6.01
2.39
-0.89
-4.09
-7.32
-10.53
-13.48
-15.93
-17.81
-19.30
-20.72
-22.33
-24.08
-25.63
-26.52
-26.44
-25.43
-23.85
-22.25
-21.07
-20.51
-20.55
-21.06
-21.95
-23.17
-24.74
-26.59
-28.48
-30.02
-30.79
-30.48
-29.02
-26.64
-23.79
-20.98
-18.55
-16.61
-14.98
-13.40
-11.73
-10.09
-8.89
-8.65
-9.76
-12.25
-15.75
-19.52
-22.74
-24.76
-25.32
-24.60
-23.09
-21.31
-19.60
-18.05
-16.58
-15.14
-13.90
-13.21
-13.43
-14.69
-16.79
-19.29
-21.69
-23.78
-25.67
-27.81
-30.66
-34.52
-39.30
-44.67
-50.18
-55.51
-60.65
-65.87
-71.61
-78.16
-85.51
-93.23
-100.58
-106.73
-110.99
-112.86
-112.06
-108.55
-102.60
-94.98
-86.83
-79.34
-73.05
-67.24
-59.91
-48.31
-30.08
-4.15
28.81
66.66
106.42
144.84
178.79
205.44
222.59
229.07
225.14
212.57
194.06
172.54
150.40
129.11
109.45
91.87
76.64
63.92
53.56
45.10
37.94
31.55
25.65
20.16
15.09
10.39
6.00
1.87
-1.94
-5.22
-7.76
-9.42
-10.18
-10.10
-9.20
-7.53
-5.11
-2.05
1.41
4.95
8.33
11.38
13.99
15.93
16.78
15.95
13.00
7.95
1.53
-5.03
-10.39
-13.71
-14.92
-14.68
-13.91
-13.30
-13.11
-13.22
-13.49
-13.97
-14.93
-16.62
-19.06
-21.89
-24.54
-26.44
-27.26
-26.98
-25.85
-24.24
-22.45
-20.68
-18.93
-17.09
-15.04
-12.72
-10.17
-7.57
-5.11
-2.91
-1.04
0.49
1.62
2.29
2.50
2.47
2.65
3.62
5.82
9.30
13.63
18.12
22.07
25.03
26.93
27.95
28.31
28.16
27.51
26.35
24.76
22.91
21.05
19.40
18.09
17.10
16.35
15.63
14.72
13.41
11.64
9.57
7.56
6.08
5.42
5.60
6.22
6.75
6.66
5.76
4.17
2.23
0.26
-1.61
-3.41
-5.27
-7.28
-9.38
-11.40
-13.19
-14.65
-15.79
-16.66
-17.28
-17.64
-17.66
-17.25
-16.35
-14.91
-12.93
-10.44
-7.53
-4.38
-1.26
1.56
3.87
5.62
6.91
7.87
8.60
9.07
9.26
9.21
9.07
9.04
9.24
9.63
9.97
10.05
9.72
9.05
8.25
7.51
6.93
6.43
5.80
4.84
3.44
1.65
-0.31
-2.18
-3.74
-4.91
-5.79
-6.63
-7.72
-9.24
-11.31
-13.92
-17.06
-20.67
-24.67
-28.81
-32.83
-36.47
-39.62
-42.42
-45.05
-47.55
-49.63
-50.66
-49.97
-47.14
-42.36
-36.35
-30.14
-24.61
-20.16
-16.59
-13.31
-9.63
-5.16
0.09
5.74
11.26
16.27
20.61
24.45
27.99
31.41
34.67
37.59
39.95
41.58
42.42
42.46
41.75
40.39
38.57
36.58
34.73
33.29
32.34
31.80
31.49
31.25
31.00
30.79
30.66
30.55
30.23
29.37
27.67
24.91
21.14
16.60
11.67
6.76
2.21
-1.84
-5.36
-8.46
-11.20
-13.66
-15.81
-17.68
-19.31
-20.81
-22.22
-23.50
-24.39
-24.57
-23.73
-21.76
-18.84
-15.38
-11.90
-8.80
-6.26
-4.19
-2.32
-0.37
1.84
4.29
6.86
9.34
11.58
13.52
15.17
16.66
18.13
19.74
21.61
23.86
26.56
29.68
33.08
36.47
39.42
41.53
42.51
42.25
40.81
38.30
34.86
30.59
25.68
20.50
15.55
11.36
8.29
6.36
5.27
4.59
4.01
3.44
3.00
2.79
2.77
2.65
2.06
0.77
-1.14
-3.32
-5.33
-6.81
-7.67
-8.08
-8.31
-8.53
-8.74
-8.72
-8.20
-7.00
-5.17
-2.97
-0.75
1.21
2.80
4.15
5.48
7.01
8.75
10.51
11.94
12.73
12.77
12.15
11.16
10.10
9.14
8.29
7.38
6.27
4.89
3.27
1.48
-0.56
-3.06
-6.36
-10.70
-16.05
-21.97
-27.69
-32.40
-35.53
-37.04
-37.37
-37.21
-37.20
-37.59
-38.20
-38.54
-38.11
-36.68
-34.39
-31.71
-29.21
-27.35
-26.29
-25.95
-26.02
-26.02
-25.38
-23.55
-20.18
-15.32
-9.44
-3.41
1.84
5.60
7.57
7.93
7.19
5.95
4.71
3.79
3.37
3.51
4.14
5.05
5.90
6.29
5.88
4.54
2.43
-0.03
-2.22
-3.55
-3.62
-2.42
-0.28
2.16
4.23
5.38
5.42
4.54
3.34
2.68
3.51
6.61
12.30
20.29
29.73
39.36
47.90
54.40
58.43
60.12
60.03
58.94
57.57
56.38
55.42
54.31
52.36
48.84
43.25
35.56
26.23
16.06
5.95
-3.24
-10.90
-16.59
-19.99
-20.95
-19.41
-15.46
-9.29
-1.20
8.32
18.65
29.05
38.72
47.01
53.50
58.08
60.82
61.97
61.90
61.05
60.02
59.36
59.33
59.75
59.81
58.41
54.49
47.54
37.79
26.06
13.37
0.60
-11.68
-23.16
-33.59
-42.63
-49.96
-55.40
-59.05
-61.30
-62.56
-63.03
-62.46
-60.28
-55.78
-48.62
-39.05
-28.00
-16.79
-6.75
1.33
7.27
11.50
14.59
16.91
18.36
18.44
16.64
12.74
7.06
0.34
-6.53
-12.85
-18.25
-22.57
-25.75
-27.67
-28.22
-27.38
-25.39
-22.71
-19.89
-17.45
-15.78
-15.29
-16.43
-19.57
-24.72
-31.19
-37.43
-41.44
-41.41
-36.53
-27.30
-15.33
-2.66
9.16
19.51
28.63
37.15
45.49
53.58
60.85
66.59
70.29
71.69
70.84
67.96
63.34
57.39
50.62
43.63
37.05
31.38
26.91
23.80
21.95
21.08
20.73
20.38
19.63
18.37
16.97
16.00
16.05
17.21
18.99
20.39
20.29
17.96
13.28
6.80
-0.63
-8.17
-15.31
-21.83
-27.69
-32.72
-36.54
-38.67
-38.74
-36.83
-33.54
-29.91
-27.06
-25.88
-26.71
-29.31
-33.04
-37.17
-41.25
-45.06
-48.63
-51.95
-54.84
-56.99
-58.12
-58.24
-57.60
-56.66
-55.81
-55.21
-54.78
-54.45
-54.22
-54.29
-54.85
-55.85
-56.97
-57.58
-57.09
-55.04
-51.33
-46.16
-39.95
-33.31
-26.83
-21.12
-16.56
-13.29
-11.09
-9.52
-8.06
-6.31
-4.17
-1.87
0.08
1.11
0.72
-1.23
-4.51
-8.45
-12.13
-14.65
-15.44
-14.45
-12.18
-9.48
-7.19
-5.87
-5.63
-6.17
-7.03
-7.76
-8.09
-7.87
-7.04
-5.55
-3.42
-0.79
2.08
4.92
7.63
10.46
13.97
18.78
25.15
32.74
40.53
47.14
51.19
51.87
49.04
43.24
35.45
26.66
17.67
8.94
0.67
-7.03
-14.01
-20.00
-24.69
-27.85
-29.48
-29.75
-29.07
-27.85
-26.49
-25.28
-24.46
-24.16
-24.34
-24.80
-25.11
-24.84
-23.64
-21.50
-18.66
-15.55
-12.57
-9.94
-7.76
-6.06
-4.98
-4.71
-5.48
-7.32
-10.04
-13.19
-16.32
-19.21
-21.90
-24.65
-27.62
-30.69
-33.31
-34.68
-34.03
-30.90
-25.40
-18.16
-10.31
-3.18
1.79
3.41
0.98
-5.48
-15.15
-26.63
-38.17
-48.17
-55.44
-59.34
-59.66
-56.43
-49.66
-39.28
-25.31
-8.14
11.12
30.60
47.90
60.71
67.50
67.97
63.18
54.97
45.37
35.89
27.26
19.44
11.97
4.40
-3.64
-12.35
-21.97
-32.85
-45.28
-59.15
-73.72
-87.54
-98.74
-105.60
-107.04
-102.94
-94.11
-81.99
-68.30
-54.61
-42.16
-31.65
-23.16
-16.15
-9.66
-2.59
5.91
16.12
27.64
39.44
50.12
58.18
62.42
62.24
57.85
50.43
41.91
34.59
30.55
31.13
36.35
44.99
54.81
63.32
68.48
69.36
66.23
60.36
53.40
46.79
41.34
37.18
34.12
32.00
31.07
31.89
34.95
40.21
46.89
53.68
59.17
62.37
62.84
60.52
55.40
47.29
36.01
21.72
5.35
-11.56
-27.16
-40.07
-49.80
-56.81
-62.10
-66.56
-70.55
-73.75
-75.47
-74.95
-71.67
-65.60
-57.03
-46.47
-34.46
-21.57
-8.33
4.80
17.71
30.68
44.24
58.75
73.81
88.11
99.61
106.54
108.25
105.73
101.28
97.40
95.65
95.99
96.95
96.50
93.10
86.21
76.30
64.33
51.27
37.90
24.79
12.56
1.94
-6.39
-12.08
-15.35
-16.95
-17.97
-19.41
-21.95
-25.83
-30.86
-36.56
-42.33
-47.61
-51.93
-55.01
-56.71
-57.16
-56.53
-55.06
-52.98
-50.50
-47.88
-45.35
-43.17
-41.44
-40.11
-38.93
-37.64
-36.07
-34.21
-32.17
-30.07
-28.09
-26.31
-24.82
-23.64
-22.62
-21.46
-19.71
-16.99
-13.14
-8.36
-3.15
1.92
6.34
9.90
12.55
14.41
15.58
16.17
16.26
15.99
15.61
15.38
15.54
16.19
17.25
18.48
19.58
20.33
20.61
20.52
20.22
19.88
19.54
19.14
18.54
17.64
16.48
15.18
13.94
12.90
12.08
11.38
10.65
9.76
8.68
7.44
6.10
4.74
3.34
1.90
0.40
-1.10
-2.59
-4.05
-5.55
-7.19
-9.02
-11.01
-12.94
-14.52
-15.39
-15.34
-14.33
-12.50
-10.05
-7.23
-4.22
-1.20
1.65
4.18
6.28
7.96
9.34
10.60
11.86
13.09
14.15
14.86
15.14
15.13
15.09
15.32
15.94
16.88
17.91
18.77
19.28
19.36
19.09
18.52
17.72
16.69
15.46
14.14
12.92
12.01
11.55
11.59
11.97
12.44
12.68
12.44
11.57
10.13
8.30
6.36
4.54
2.96
1.55
0.11
-1.61
-3.82
-6.60
-9.88
-13.48
-17.08
-20.32
-22.79
-24.17
-24.22
-22.99
-20.69
-17.66
-14.31
-10.89
-7.57
-4.36
-1.29
1.57
4.08
6.13
7.65
8.66
9.23
9.48
9.53
9.50
9.57
9.90
10.66
11.88
13.45
15.13
16.64
17.74
18.35
18.51
18.33
17.89
17.24
16.38
15.39
14.36
13.44
12.68
12.04
11.37
10.52
9.41
8.11
6.78
5.56
4.48
3.45
2.30
0.90
-0.75
-2.52
-4.25
-5.78
-7.19
-8.63
-10.33
-12.44
-14.96
-17.67
-20.21
-22.23
-23.41
-23.58
-22.72
-20.94
-18.39
-15.36
-12.09
-8.84
-5.81
-3.07
-0.64
1.49
3.35
4.91
6.16
7.14
7.99
8.84
9.82
10.90
12.02
13.08
14.02
14.85
15.62
16.34
16.96
17.33
17.33
16.96
16.31
15.56
14.89
14.38
14.01
13.64
13.15
12.42
11.43
10.22
8.91
7.66
6.56
5.68
4.94
4.24
3.40
2.27
0.76
-1.08
-3.11
-5.20
-7.19
-9.05
-10.82
-12.63
-14.56
-16.66
-18.87
-21.03
-22.88
-24.06
-24.24
-23.24
-21.08
-18.01
-14.45
-10.87
-7.61
-4.79
-2.39
-0.28
1.61
3.33
4.84
6.12
7.17
8.05
8.79
9.40
9.90
10.31
10.70
11.15
11.76
12.51
13.34
14.06
14.48
14.45
13.95
13.06
11.99
10.97
10.15
9.54
9.01
8.36
7.50
6.47
5.46
4.65
4.17
3.89
3.59
3.00
1.99
0.62
-0.92
-2.41
-3.76
-5.00
-6.28
-7.74
-9.47
-11.50
-13.80
-16.30
-18.84
-21.22
-23.10
-24.16
-24.18
-23.13
-21.20
-18.69
-15.92
-13.08
-10.28
-7.58
-5.07
-2.86
-1.07
0.28
1.29
2.12
2.89
3.63
4.30
4.83
5.22
5.58
6.04
6.70
7.53
8.38
9.04
9.34
9.15
8.45
7.32
5.87
4.27
2.65
1.11
-0.40
-2.00
-3.96
-6.53
-9.89
-13.99
-18.58
-23.26
-27.56
-31.08
-33.46
-34.53
-34.17
-32.49
-29.77
-26.49
-23.20
-20.34
-18.06
-16.24
-14.51
-12.55
-10.17
-7.41
-4.37
-1.09
2.59
6.93
12.14
18.26
25.06
32.19
39.24
45.94
52.09
57.55
62.15
65.69
67.97
68.80
68.09
65.89
62.33
57.60
51.93
45.52
38.57
31.28
23.83
16.47
9.42
2.92
-2.91
-8.05
-12.60
-16.78
-20.82
-24.89
-29.06
-33.24
-37.26
-40.88
-43.95
-46.36
-48.15
-49.42
-50.37
-51.21
-52.16
-53.31
-54.56
-55.51
-55.53
-53.99
-50.57
-45.50
-39.52
-33.49
-28.07
-23.28
-18.58
-13.13
-6.18
2.65
13.29
25.32
38.14
51.03
63.24
74.02
82.76
89.10
92.95
94.42
93.61
90.49
84.91
76.75
66.19
53.73
40.22
26.66
13.94
2.74
-6.55
-13.74
-18.80
-21.80
-22.93
-22.55
-21.11
-19.19
-17.29
-15.77
-14.76
-14.22
-13.93
-13.69
-13.34
-12.85
-12.29
-11.82
-11.57
-11.60
-11.83
-12.09
-12.20
-12.09
-11.81
-11.56
-11.50
-11.75
-12.28
-12.93
-13.57
-14.13
-14.68
-15.35
-16.28
-17.55
-19.08
-20.69
-22.13
-23.15
-23.57
-23.29
-22.27
-20.56
-18.27
-15.58
-12.72
-9.95
-7.46
-5.33
-3.56
-2.05
-0.70
0.52
1.62
2.57
3.36
3.97
4.43
4.73
4.91
5.00
5.13
5.44
6.04
6.90
7.85
8.63
8.96
8.71
7.90
6.75
5.55
4.54
3.82
3.33
2.91
2.39
1.66
0.71
-0.42
-1.65
-2.94
-4.29
-5.74
-7.34
-9.12
-11.10
-13.23
-15.42
-17.46
-19.06
-19.86
-19.64
-18.34
-16.17
-13.54
-10.88
-8.54
-6.61
-5.05
-3.70
-2.52
-1.54
-0.93
-0.80
-1.17
-1.87
-2.61
-3.16
-3.44
-3.58
-3.85
-4.51
-5.67
-7.19
-8.84
-10.42
-11.89
-13.46
-15.44
-18.07
-21.35
-25.06
-28.80
-32.23
-35.18
-37.70
-39.95
-42.10
-44.15
-45.88
-46.89
-46.69
-44.84
-41.08
-35.43
-28.20
-19.94
-11.34
-3.05
4.41
10.80
16.13
20.65
24.64
28.30
31.64
34.51
36.71
38.09
38.72
38.77
38.47
37.99
37.38
36.68
35.93
35.18
34.50
33.87
33.20
32.34
31.22
29.90
28.53
27.32
26.43
25.86
25.47
25.02
24.27
23.12
21.65
20.05
18.57
17.36
16.42
15.59
14.61
13.29
11.61
9.70
7.80
6.10
4.70
3.52
2.46
1.34
0.10
-1.30
-2.85
-4.54
-6.31
-8.10
-9.82
-11.39
-12.80
-14.13
-15.57
-17.33
-19.47
-21.80
-23.92
-25.32
-25.55
-24.49
-22.33
-19.50
-16.46
-13.54
-10.81
-8.19
-5.56
-2.90
-0.35
1.95
3.88
5.47
6.84
8.12
9.36
10.51
11.48
12.17
12.58
12.72
12.70
12.61
12.56
12.62
12.77
12.92
12.88
12.50
11.76
10.79
9.84
9.16
8.88
8.87
8.93
8.83
8.46
7.90
7.31
6.86
6.59
6.46
6.31
6.03
5.51
4.76
3.77
2.59
1.23
-0.26
-1.81
-3.33
-4.74
-5.98
-7.14
-8.32
-9.69
-11.31
-13.20
-15.30
-17.53
-19.84
-22.17
-24.41
-26.35
-27.72
-28.27
-27.85
-26.51
-24.43
-21.83
-18.92
-15.88
-12.86
-10.03
-7.55
-5.53
-3.99
-2.85
-1.99
-1.35
-0.90
-0.64
-0.53
-0.48
-0.37
-0.16
0.10
0.22
0.02
-0.56
-1.46
-2.52
-3.57
-4.57
-5.61
-6.83
-8.35
-10.20
-12.37
-14.79
-17.39
-20.08
-22.77
-25.30
-27.48
-29.18
-30.35
-31.10
-31.64
-32.18
-32.81
-33.38
-33.46
-32.43
-29.63
-24.62
-17.32
-8.03
2.60
13.76
24.66
34.67
43.37
50.48
55.85
59.34
60.83
60.26
57.69
53.35
47.73
41.40
35.00
29.05
23.89
19.63
16.21
13.49
11.26
9.32
7.53
5.76
4.00
2.30
0.78
-0.50
-1.52
-2.30
-2.88
-3.19
-3.14
-2.57
-1.48
0.03
1.68
3.17
4.23
4.73
4.74
4.45
4.10
3.86
3.78
3.76
3.68
3.47
3.22
3.10
3.25
3.70
4.25
4.64
4.63
4.16
3.35
2.41
1.58
0.92
0.41
-0.09
-0.73
-1.61
-2.77
-4.15
-5.58
-6.80
-7.59
-7.81
-7.47
-6.76
-5.92
-5.21
-4.85
-4.97
-5.63
-6.81
-8.38
-10.09
-11.56
-12.43
-12.37
-11.25
-9.17
-6.41
-3.36
-0.34
2.38
4.66
6.44
7.67
8.36
8.54
8.33
7.87
7.28
6.64
5.98
5.32
4.70
4.24
4.03
4.05
4.16
4.16
3.84
3.12
2.11
0.95
-0.18
-1.26
-2.33
-3.49
-4.78
-6.19
-7.63
-9.06
-10.47
-11.86
-13.31
-14.84
-16.44
-18.08
-19.67
-21.08
-22.20
-22.88
-23.06
-22.68
-21.75
-20.29
-18.28
-15.64
-12.30
-8.23
-3.55
1.47
6.42
10.89
14.65
17.72
20.39
23.13
26.41
30.49
35.37
40.70
45.89
50.27
53.14
53.95
52.37
48.37
42.24
34.57
26.08
17.50
9.43
2.29
-3.69
-8.39
-11.81
-14.04
-15.29
-15.95
-16.50
-17.46
-19.28
-22.16
-25.96
-30.13
-33.79
-35.92
-35.72
-32.86
-27.65
-20.95
-13.93
-7.78
-3.32
-0.94
-0.51
-1.49
-3.16
-4.82
-6.09
-6.99
-8.04
-10.14
-14.25
-21.00
-30.36
-41.50
-52.86
-62.57
-69.01
-71.34
-69.65
-64.88
-58.39
-51.47
-44.95
-39.10
-33.81
-28.78
-23.76
-18.65
-13.44
-8.14
-2.70
2.89
8.63
14.34
19.81
24.78
29.17
33.06
36.74
40.54
44.71
49.24
53.92
58.51
62.82
66.86
70.71
74.44
77.93
80.96
83.28
84.69
85.12
84.55
82.98
80.42
76.83
72.18
66.40
59.42
51.11
41.41
30.45
18.55
6.31
-5.62
-16.60
-26.22
-34.25
-40.67
-45.57
-49.13
-51.58
-53.27
-54.60
-56.03
-57.83
-59.89
-61.69
-62.34
-60.99
-57.20
-51.24
-44.01
-36.67
-30.16
-24.86
-20.67
-17.19
-14.14
-11.55
-9.66
-8.67
-8.58
-9.15
-10.04
-11.00
-12.00
-13.15
-14.60
-16.37
-18.37
-20.43
-22.43
-24.36
-26.33
-28.49
-30.90
-33.45
-35.97
-38.29
-40.44
-42.66
-45.33
-48.73
-52.93
-57.70
-62.64
-67.40
-71.81
-75.93
-79.94
-83.96
-87.93
-91.57
-94.35
-95.53
-94.08
-88.84
-78.89
-64.06
-45.35
-24.79
-4.95
12.14
25.64
36.10
44.87
53.18
61.39
68.86
74.46
77.39
77.70
76.34
74.59
73.38
72.87
72.54
71.62
69.65
66.78
63.71
61.23
59.79
59.27
59.00
58.25
56.46
53.61
50.06
46.45
43.37
41.16
39.78
38.85
37.66
35.54
32.08
27.47
22.46
18.10
15.26
14.23
14.58
15.55
16.48
17.28
18.62
21.63
27.50
37.04
50.35
66.79
85.09
103.48
120.00
132.81
140.67
143.30
141.59
137.31
132.42
128.23
124.81
121.12
115.69
107.62
97.06
85.03
72.53
59.73
45.63
28.77
8.33
-14.92
-38.52
-59.24
-74.47
-83.29
-86.72
-86.99
-86.38
-86.25
-86.78
-87.28
-86.95
-85.38
-82.78
-79.60
-76.10
-72.08
-66.94
-60.16
-51.77
-42.61
-34.13
-27.80
-24.54
-24.36
-26.40
-29.32
-31.85
-33.12
-32.94
-31.63
-29.87
-28.41
-27.83
-28.34
-29.75
-31.55
-33.10
-33.94
-33.94
-33.43
-32.99
-33.17
-34.30
-36.38
-39.20
-42.45
-45.94
-49.60
-53.49
-57.69
-62.19
-66.88
-71.42
-75.38
-78.21
-79.43
-78.60
-75.52
-70.22
-62.95
-54.22
-44.65
-34.99
-25.89
-17.84
-11.05
-5.54
-1.16
2.19
4.59
6.17
7.20
8.19
9.70
12.18
15.79
20.32
25.29
30.11
34.31
37.65
40.02
41.44
41.97
41.62
40.37
38.11
34.53
29.30
22.06
12.68
1.55
-10.34
-21.44
-30.01
-34.69
-34.96
-31.36
-25.29
-18.49
-12.45
-8.00
-5.37
-4.38
-4.74
-6.24
-8.74
-12.04
-15.77
-19.44
-22.54
-24.73
-25.94
-26.35
-26.32
-26.19
-26.10
-25.92
-25.16
-23.16
-19.30
-13.33
-5.51
3.40
12.35
20.39
26.91
31.81
35.42
38.25
40.79
43.39
46.12
49.00
52.15
55.85
60.55
66.69
74.49
83.74
93.79
103.65
112.13
118.05
120.36
118.37
111.89
101.41
88.02
73.14
58.16
43.96
30.75
18.15
5.56
-7.53
-21.20
-35.14
-48.79
-61.49
-72.71
-82.02
-89.14
-93.91
-96.38
-96.80
-95.70
-93.81
-91.91
-90.61
-90.12
-90.22
-90.22
-89.16
-86.04
-80.09
-71.03
-59.20
-45.45
-30.96
-16.82
-3.80
7.74
17.82
26.55
33.97
39.95
44.27
46.77
47.52
47.01
46.10
45.97
47.75
52.15
59.08
67.57
76.05
82.86
86.90
87.87
86.19
82.56
77.47
70.97
62.76
52.53
40.26
26.40
11.72
-2.81
-16.20
-27.64
-36.48
-42.40
-45.54
-46.49
-46.19
-45.73
-46.09
-48.04
-52.14
-58.80
-68.32
-80.72
-95.56
-111.73
-127.62
-141.35
-151.27
-156.24
-155.80
-150.10
-139.76
-125.71
-109.02
-90.90
-72.49
-54.87
-38.94
-25.42
-14.73
-6.89
-1.45
2.53
6.22
10.70
16.64
24.16
33.04
42.93
53.55
64.67
75.83
86.16
94.46
99.46
100.34
97.06
90.30
81.29
71.30
61.39
52.22
44.11
37.16
31.38
26.67
22.89
19.83
17.27
14.98
12.82
10.73
8.73
6.90
5.31
4.03
3.04
2.21
1.37
0.34
-0.94
-2.47
-4.08
-5.62
-6.90
-7.83
-8.41
-8.71
-8.85
-8.98
-9.29
-9.93
-11.00
-12.55
-14.44
-16.43
-18.17
-19.33
-19.69
-19.18
-17.87
-15.94
-13.58
-10.99
-8.33
-5.74
-3.33
-1.17
0.71
2.34
3.76
5.00
6.11
7.14
8.16
9.24
10.36
11.46
12.41
13.11
13.49
13.65
13.75
13.97
14.35
14.80
15.12
15.10
14.61
13.72
12.59
11.43
10.42
9.64
9.04
8.56
8.11
7.66
7.21
6.78
6.38
5.93
5.36
4.55
3.44
1.99
0.29
-1.49
-3.13
-4.46
-5.48
-6.29
-7.15
-8.24
-9.67
-11.34
-13.00
-14.29
-14.85
-14.45
-13.03
-10.75
-7.90
-4.86
-1.93
0.73
3.09
5.18
7.00
8.46
9.44
9.88
9.89
9.75
9.82
10.33
11.28
12.41
13.37
13.90
13.95
13.71
13.43
13.31
13.33
13.33
13.09
12.50
11.61
10.55
9.52
8.65
7.96
7.36
6.78
6.12
5.29
4.26
3.03
1.61
0.10
-1.40
-2.86
-4.28
-5.72
-7.24
-8.84
-10.46
-12.06
-13.62
-15.18
-16.78
-18.32
-19.56
-20.20
-19.93
-18.66
-16.55
-13.88
-11.03
-8.24
-5.63
-3.20
-0.91
1.26
3.26
4.97
6.25
6.98
7.19
7.02
6.78
6.77
7.22
8.12
9.30
10.46
11.36
11.89
12.06
12.02
11.88
11.74
11.56
11.30
10.84
10.15
9.28
8.36
7.53
6.86
6.25
5.55
4.58
3.34
2.00
0.84
0.10
-0.21
-0.30
-0.52
-1.19
-2.38
-3.98
-5.74
-7.43
-8.97
-10.44
-11.97
-13.67
-15.50
-17.26
-18.68
-19.49
-19.49
-18.60
-16.89
-14.47
-11.58
-8.44
-5.33
-2.51
-0.16
1.65
3.02
4.15
5.28
6.53
7.86
9.11
10.11
10.79
11.22
11.55
11.91
12.28
12.55
12.60
12.38
11.97
11.57
11.35
11.43
11.73
12.10
12.30
12.13
11.51
10.48
9.22
7.97
6.89
6.02
5.31
4.62
3.89
3.15
2.45
1.85
1.31
0.70
-0.12
-1.18
-2.38
-3.56
-4.53
-5.29
-5.98
-6.82
-8.09
-9.90
-12.16
-14.56
-16.64
-17.98
-18.28
-17.53
-15.92
-13.84
-11.59
-9.36
-7.21
-5.04
-2.80
-0.54
1.59
3.44
4.83
5.76
6.31
6.64
6.95
7.38
8.03
8.87
9.83
10.77
11.56
12.09
12.36
12.46
12.47
12.45
12.37
12.11
11.57
10.75
9.74
8.72
7.90
7.36
7.07
6.86
6.59
6.15
5.62
5.12
4.76
4.52
4.24
3.66
2.59
1.00
-0.90
-2.81
-4.39
-5.50
-6.24
-6.88
-7.70
-8.89
-10.45
-12.23
-14.08
-15.90
-17.62
-19.21
-20.52
-21.26
-21.12
-19.89
-17.60
-14.58
-11.30
-8.22
-5.62
-3.51
-1.71
-0.06
1.48
2.81
3.72
4.12
4.10
3.97
4.12
4.82
6.08
7.64
9.04
9.87
9.95
9.44
8.81
8.65
9.36
11.00
13.20
15.31
16.75
17.29
17.25
17.48
19.10
23.17
30.40
41.01
54.68
70.38
86.49
100.97
111.76
117.36
117.44
112.93
105.66
97.40
89.04
80.21
69.74
56.53
40.47
22.71
5.24
-10.03
-21.99
-30.64
-36.68
-40.90
-43.65
-44.74
-43.86
-40.97
-36.65
-31.85
-27.57
-24.28
-21.84
-19.54
-16.60
-12.69
-8.12
-3.81
-0.78
0.19
-0.96
-3.73
-7.17
-10.30
-12.39
-13.11
-12.50
-10.92
-8.82
-6.62
-4.64
-3.04
-1.84
-1.01
-0.44
-0.05
0.26
0.49
0.63
0.56
0.16
-0.62
-1.75
-3.08
-4.39
-5.57
-6.60
-7.61
-8.76
-10.24
-12.07
-14.23
-16.52
-18.76
-20.78
-22.44
-23.72
-24.65
-25.35
-25.94
-26.59
-27.43
-28.50
-29.73
-30.94
-31.91
-32.43
-32.37
-31.72
-30.50
-28.77
-26.54
-23.89
-20.95
-18.00
-15.31
-13.14
-11.53
-10.38
-9.43
-8.45
-7.35
-6.26
-5.43
-5.18
-5.63
-6.58
-7.54
-7.88
-7.18
-5.49
-3.32
-1.49
-0.72
-1.36
-3.29
-6.11
-9.37
-12.74
-16.09
-19.33
-22.39
-25.11
-27.39
-29.13
-30.37
-31.11
-31.27
-30.75
-29.45
-27.45
-25.00
-22.57
-20.69
-19.70
-19.63
-20.13
-20.70
-20.84
-20.35
-19.35
-18.16
-17.03
-15.98
-14.77
-13.01
-10.44
-7.01
-2.96
1.40
5.82
10.17
14.38
18.36
21.85
24.50
25.99
26.21
25.34
23.82
22.15
20.68
19.51
18.43
17.14
15.40
13.15
10.57
7.94
5.51
3.43
1.71
0.38
-0.55
-0.94
-0.64
0.46
2.24
4.43
6.61
8.38
9.55
10.16
10.53
11.03
11.94
13.36
15.14
17.06
18.85
20.39
21.64
22.63
23.33
23.65
23.44
22.65
21.46
20.31
19.90
20.91
23.79
28.41
33.94
38.92
41.55
40.27
34.21
23.63
9.87
-4.97
-18.62
-29.29
-36.05
-39.00
-39.09
-37.69
-36.11
-35.13
-34.82
-34.54
-33.38
-30.69
-26.55
-21.81
-17.78
-15.55
-15.45
-16.86
-18.58
-19.50
-19.19
-18.04
-16.92
-16.61
-17.25
-18.35
-19.11
-19.00
-18.07
-16.84
-16.05
-16.08
-16.88
-17.94
-18.71
-18.82
-18.32
-17.53
-16.94
-16.92
-17.56
-18.65
-19.67
-19.95
-18.88
-16.08
-11.55
-5.70
0.77
7.09
12.64
17.00
19.99
21.57
21.77
20.60
18.17
14.69
10.60
6.49
3.00
0.59
-0.64
-0.95
-0.87
-0.99
-1.67
-2.96
-4.60
-6.14
-7.13
-7.21
-6.18
-4.02
-0.78
3.29
7.78
12.14
15.78
18.25
19.41
19.55
19.16
18.83
18.91
19.44
20.13
20.54
20.31
19.35
17.89
16.37
15.33
15.17
16.07
17.87
20.20
22.53
24.29
25.02
24.39
22.29
18.76
14.12
8.83
3.38
-1.88
-6.98
-12.27
-18.26
-25.29
-33.17
-41.12
-47.96
-52.64
-54.63
-54.19
-52.14
-49.54
-47.20
-45.49
-44.33
-43.38
-42.39
-41.34
-40.42
-39.91
-40.00
-40.58
-41.31
-41.61
-40.98
-39.11
-35.92
-31.61
-26.45
-20.71
-14.62
-8.42
-2.43
2.91
7.15
9.97
11.28
11.25
10.26
8.70
6.95
5.24
3.77
2.63
1.96
1.84
2.26
3.16
4.31
5.45
6.20
6.28
5.50
3.94
1.90
-0.13
-1.60
-2.16
-1.69
-0.38
1.45
3.45
5.41
7.29
9.15
11.07
13.05
15.04
16.94
18.68
20.16
21.37
22.29
22.90
23.18
23.10
22.64
21.80
20.64
19.26
17.77
16.26
14.74
13.15
11.39
9.39
7.19
4.96
2.91
1.21
-0.09
-1.22
-2.53
-4.47
-7.34
-11.11
-15.42
-19.59
-22.96
-25.02
-25.69
-25.17
-23.81
-21.91
-19.60
-16.86
-13.65
-10.03
-6.21
-2.45
0.97
3.88
6.23
8.04
9.37
10.27
10.78
10.98
11.00
11.10
11.55
12.60
14.32
16.52
18.84
20.84
22.22
22.87
22.89
22.48
21.87
21.28
20.93
20.97
21.50
22.46
23.59
24.53
24.97
24.72
23.86
22.63
21.30
20.07
18.96
17.90
16.76
15.41
13.76
11.76
9.30
6.31
2.80
-1.07
-5.03
-8.66
-11.56
-13.43
-14.15
-13.85
-12.76
-11.27
-9.72
-8.38
-7.38
-6.62
-5.85
-4.77
-3.18
-1.06
1.37
3.74
5.71
7.13
8.14
9.08
10.35
12.21
14.66
17.51
20.42
23.13
25.48
27.49
29.21
30.75
32.12
33.32
34.37
35.34
36.28
37.15
37.72
37.59
36.27
33.41
28.92
23.11
16.62
10.19
4.45
-0.29
-4.04
-7.06
-9.71
-12.22
-14.72
-17.29
-20.00
-22.99
-26.43
-30.45
-34.94
-39.58
-43.81
-46.94
-48.44
-47.98
-45.70
-42.07
-37.77
-33.44
-29.49
-25.99
-22.79
-19.67
-16.55
-13.50
-10.74
-8.50
-6.84
-5.73
-5.05
-4.70
-4.62
-4.77
-5.04
-5.25
-5.23
-4.77
-3.81
-2.42
-0.85
0.53
1.35
1.40
0.66
-0.64
-2.10
-3.38
-4.24
-4.68
-4.89
-5.10
-5.44
-5.89
-6.28
-6.33
-5.84
-4.72
-3.07
-1.21
0.48
1.61
1.94
1.37
-0.01
-2.07
-4.66
-7.60
-10.63
-13.35
-15.29
-16.06
-15.50
-13.77
-11.28
-8.53
-5.89
-3.59
-1.63
0.03
1.48
2.73
3.73
4.44
4.79
4.74
4.29
3.55
2.69
1.90
1.39
1.25
1.50
2.06
2.83
3.71
4.57
5.30
5.85
6.34
7.03
8.40
10.87
14.70
19.71
25.41
31.04
35.96
39.81
42.51
44.25
45.21
45.52
45.23
44.33
42.90
41.05
38.92
36.48
33.65
30.23
26.10
21.27
15.93
10.46
5.25
0.70
-2.98
-5.71
-7.65
-9.09
-10.35
-11.66
-13.09
-14.64
-16.19
-17.74
-19.29
-20.88
-22.43
-23.68
-24.24
-23.66
-21.74
-18.52
-14.35
-9.75
-5.20
-1.08
2.41
5.14
7.09
8.25
8.80
8.95
9.05
9.38
10.11
11.18
12.33
13.23
13.58
13.25
12.32
11.03
9.72
8.65
7.95
7.48
6.99
6.11
4.56
2.28
-0.56
-3.62
-6.48
-8.77
-10.32
-11.07
-11.12
-10.59
-9.59
-8.28
-6.75
-5.21
-3.85
-2.93
-2.58
-2.80
-3.40
-4.02
-4.29
-3.93
-2.91
-1.37
0.43
2.25
3.97
5.55
7.11
8.86
11.12
14.26
18.62
24.25
30.82
37.60
43.59
47.84
49.70
49.04
46.09
41.32
35.17
28.01
20.07
11.62
3.03
-5.29
-12.83
-19.25
-24.36
-28.19
-30.99
-33.11
-34.94
-36.82
-38.90
-41.00
-42.54
-42.59
-40.17
-34.63
-25.94
-14.87
-2.64
9.38
20.14
29.12
36.25
41.72
45.76
48.60
50.50
51.75
52.72
53.59
54.33
54.51
53.44
50.39
44.79
36.44
25.54
12.67
-1.37
-15.70
-29.43
-41.76
-51.95
-59.37
-63.59
-64.49
-62.44
-58.27
-53.11
-48.03
-43.78
-40.62
-38.34
-36.56
-34.93
-33.29
-31.73
-30.47
-29.76
-29.76
-30.58
-32.19
-34.45
-37.14
-39.98
-42.72
-45.17
-47.15
-48.45
-48.85
-48.08
-46.01
-42.70
-38.46
-33.72
-28.91
-24.32
-20.12
-16.34
-13.05
-10.31
-8.14
-6.48
-5.14
-3.82
-2.30
-0.51
1.45
3.36
5.02
6.32
7.30
8.06
8.70
9.30
9.86
10.36
10.78
11.12
11.37
11.55
11.64
11.62
11.47
11.12
10.54
9.71
8.66
7.53
6.46
5.56
4.85
4.16
3.26
1.90
-0.01
-2.32
-4.67
-6.65
-7.92
-8.33
-7.92
-6.86
-5.31
-3.42
-1.25
1.09
3.48
5.72
7.57
8.85
9.45
9.43
8.95
8.30
7.70
7.32
7.12
7.00
6.82
6.64
6.58
6.88
7.63
8.69
9.75
10.44
10.50
9.97
9.09
8.22
7.56
7.12
6.73
6.16
5.29
4.15
2.91
1.81
1.00
0.48
0.06
-0.54
-1.56
-3.13
-5.19
-7.48
-9.72
-11.66
-13.17
-14.18
-14.64
-14.42
-13.34
-11.32
-8.40
-4.88
-1.19
2.22
5.09
7.33
9.08
10.53
11.79
12.86
13.63
13.99
13.94
13.60
13.23
13.05
13.21
13.68
14.30
14.87
15.25
15.40
15.36
15.15
14.73
14.08
13.14
11.99
10.74
9.51
8.36
7.28
6.21
5.14
4.07
2.97
1.77
0.39
-1.26
-3.09
-4.95
-6.66
-8.12
-9.36
-10.58
-11.96
-13.56
-15.32
-17.03
-18.51
-19.62
-20.26
-20.30
-19.65
-18.19
-15.97
-13.15
-10.07
-7.09
-4.54
-2.58
-1.18
-0.22
0.49
1.03
1.37
1.44
1.19
0.70
0.17
-0.14
-0.00
0.67
1.80
3.20
4.67
6.09
7.43
8.68
9.81
10.73
11.35
11.60
11.58
11.51
11.63
12.14
13.13
14.55
16.21
17.93
19.56
21.01
22.26
23.28
23.99
24.30
24.10
23.40
22.24
20.75
19.08
17.38
15.70
14.08
12.46
10.77
8.93
6.88
4.66
2.34
0.06
-2.10
-4.04
-5.72
-7.07
-7.96
-8.22
-7.76
-6.63
-5.06
-3.43
-2.09
-1.29
-1.02
-1.07
-1.19
-1.11
-0.75
-0.14
0.56
1.23
1.85
2.57
3.59
5.09
7.05
9.23
11.23
12.70
13.47
13.69
13.63
13.63
13.84
14.21
14.58
14.82
14.95
15.07
15.31
15.66
15.98
16.03
15.61
14.67
13.27
11.59
9.79
7.94
6.07
4.14
2.21
0.35
-1.38
-2.96
-4.45
-5.99
-7.73
-9.75
-12.00
-14.40
-16.81
-19.06
-21.03
-22.51
-23.31
-23.25
-22.23
-20.31
-17.67
-14.60
-11.39
-8.25
-5.33
-2.71
-0.44
1.41
2.79
3.73
4.32
4.74
5.19
5.83
6.69
7.74
8.76
9.55
9.91
9.81
9.36
8.80
8.38
8.21
8.27
8.33
8.21
7.79
7.14
6.40
5.75
5.27
4.93
4.66
4.37
4.07
3.78
3.55
3.39
3.26
3.05
2.61
1.85
0.73
-0.69
-2.30
-4.03
-5.85
-7.87
-10.19
-12.82
-15.57
-18.12
-20.02
-20.97
-20.81
-19.63
-17.69
-15.28
-12.69
-10.14
-7.74
-5.50
-3.33
-1.15
1.09
3.31
5.36
7.08
8.39
9.37
10.20
11.07
12.08
13.27
14.51
15.64
16.52
17.13
17.51
17.81
18.18
18.68
19.26
19.76
20.03
19.99
19.66
19.18
18.66
18.14
17.57
16.85
15.91
14.79
13.55
12.27
11.07
9.98
9.07
8.32
7.58
6.58
5.03
2.76
-0.17
-3.51
-6.96
-10.33
-13.67
-17.14
-20.87
-24.77
-28.50
-31.61
-33.72
-34.67
-34.52
-33.49
-31.80
-29.65
-27.16
-24.40
-21.45
-18.38
-15.30
-12.30
-9.55
-7.15
-5.17
-3.55
-2.14
-0.76
0.77
2.50
4.44
6.45
8.38
9.98
11.02
11.35
10.97
10.07
8.95
7.98
7.35
7.10
7.11
7.20
7.25
7.20
7.05
6.71
6.08
5.02
3.53
1.79
0.04
-1.47
-2.66
-3.61
-4.57
-5.67
-6.96
-8.27
-9.36
-10.03
-10.25
-10.20
-10.16
-10.45
-11.24
-12.55
-14.22
-15.95
-17.43
-18.28
-18.21
-16.99
-14.59
-11.10
-6.80
-2.08
2.72
7.33
11.63
15.53
19.03
22.09
24.71
26.90
28.69
30.21
31.53
32.78
34.05
35.44
37.02
38.83
40.82
42.92
45.05
47.12
49.11
51.01
52.80
54.33
55.28
55.19
53.49
49.76
43.88
36.14
27.22
17.97
9.15
1.31
-5.23
-10.30
-13.71
-15.38
-15.35
-13.91
-11.60
-9.06
-6.86
-5.29
-4.40
-3.95
-3.60
-2.96
-1.74
0.17
2.68
5.53
8.33
10.75
12.61
13.84
14.49
14.58
14.05
12.79
10.61
7.34
2.79
-3.17
-10.51
-19.00
-28.15
-37.39
-46.12
-53.99
-60.83
-66.61
-71.30
-74.73
-76.64
-76.87
-75.48
-72.84
-69.51
-66.06
-62.81
-59.76
-56.64
-53.11
-48.95
-44.21
-39.18
-34.30
-29.91
-26.17
-23.04
-20.28
-17.72
-15.28
-13.03
-11.14
-9.75
-8.88
-8.40
-8.07
-7.67
-7.05
-6.10
-4.81
-3.11
-0.94
1.71
4.73
7.85
10.74
13.16
15.01
16.42
17.59
18.69
19.74
20.66
21.38
21.92
22.40
22.96
23.58
24.08
24.14
23.48
22.02
19.87
17.35
14.77
12.31
9.99
7.69
5.29
2.78
0.25
-2.12
-4.20
-5.96
-7.47
-8.88
-10.26
-11.60
-12.83
-13.80
-14.44
-14.71
-14.72
-14.53
-14.27
-14.04
-13.88
-13.78
-13.64
-13.41
-13.04
-12.62
-12.26
-12.03
-11.91
-11.78
-11.52
-11.08
-10.66
-10.57
-11.13
-12.47
-14.43
-16.61
-18.45
-19.56
-19.70
-18.94
-17.53
-15.81
-14.02
-12.33
-10.76
-9.26
-7.89
-6.71
-5.83
-5.22
-4.68
-3.90
-2.61
-0.74
1.58
3.92
5.85
7.07
7.62
7.79
8.01
8.67
9.90
11.56
13.30
14.80
15.84
16.42
16.61
16.53
16.24
15.82
15.39
15.13
15.20
15.61
16.18
16.63
16.71
16.38
15.80
15.24
14.89
14.78
14.75
14.57
14.08
13.20
11.96
10.42
8.75
7.11
5.76
4.97
4.96
5.82
7.49
9.73
12.19
14.47
16.26
17.37
17.79
17.66
17.23
16.68
16.12
15.47
14.61
13.40
11.85
10.06
8.26
6.65
5.35
4.37
3.59
2.85
1.98
0.85
-0.59
-2.30
-4.15
-5.96
-7.60
-9.01
-10.19
-11.21
-12.12
-12.96
-13.74
-14.51
-15.31
-16.19
-17.13
-18.12
-19.12
-20.13
-21.22
-22.51
-24.03
-25.64
-27.05
-27.82
-27.59
-26.21
-23.80
-20.70
-17.35
-14.12
-11.26
-8.85
-6.88
-5.27
-3.95
-2.84
-1.94
-1.28
-0.91
-0.87
-1.13
-1.53
-1.84
-1.81
-1.32
-0.40
0.79
2.05
3.20
4.11
4.74
5.13
5.32
5.34
5.21
4.91
4.44
3.82
3.15
2.56
2.14
1.90
1.75
1.50
0.97
0.05
-1.27
-2.89
-4.67
-6.41
-7.89
-8.88
-9.14
-8.57
-7.17
-5.12
-2.69
-0.18
2.14
4.06
5.40
6.12
6.25
5.98
5.58
5.29
5.29
5.56
5.96
6.32
6.52
6.60
6.74
7.13
7.84
8.83
9.91
10.80
11.27
11.20
10.62
9.65
8.53
7.43
6.49
5.71
5.01
4.31
3.56
2.80
2.07
1.39
0.63
-0.36
-1.72
-3.42
-5.14
-6.42
-6.79
-6.00
-4.11
-1.56
1.07
3.28
4.75
5.53
5.82
5.97
6.19
6.58
7.08
7.55
7.86
8.01
8.10
8.31
8.75
9.31
9.76
9.75
9.02
7.54
5.48
3.19
1.08
-0.55
-1.59
-2.12
-2.37
-2.58
-2.93
-3.49
-4.14
-4.75
-5.25
-5.64
-6.04
-6.56
-7.23
-7.97
-8.71
-9.46
-10.32
-11.44
-12.86
-14.40
-15.65
-16.18
-15.66
-14.11
-11.82
-9.31
-7.06
-5.35
-4.19
-3.39
-2.67
-1.84
-0.86
0.15
1.04
1.66
2.00
2.11
2.11
2.10
2.17
2.35
2.67
3.13
3.78
4.57
5.43
6.19
6.64
6.69
6.33
5.75
5.20
4.86
4.78
4.77
4.59
3.99
2.94
1.51
-0.03
-1.44
-2.60
-3.48
-4.23
-5.03
-6.00
-7.19
-8.52
-9.77
-10.67
-11.01
-10.62
-9.52
-7.84
-5.83
-3.76
-1.81
-0.08
1.46
2.83
4.06
5.03
5.65
5.82
5.59
5.16
4.80
4.79
5.27
6.23
7.47
8.68
9.54
9.86
9.63
9.12
8.66
8.54
8.83
9.30
9.58
9.36
8.58
7.45
6.29
5.37
4.71
4.16
3.46
2.45
1.11
-0.45
-2.03
-3.56
-4.96
-6.33
-7.75
-9.26
-10.84
-12.32
-13.48
-14.06
-13.86
-12.82
-11.09
-8.93
-6.68
-4.65
-3.00
-1.88
-1.27
-1.16
-1.50
-2.18
-3.01
-3.76
-4.18
-4.07
-3.42
-2.38
-1.27
-0.36
0.14
0.22
0.06
-0.14
-0.17
0.00
0.33
0.66
0.89
1.00
1.06
1.15
1.29
1.44
1.41
1.05
0.30
-0.76
-1.87
-2.75
-3.13
-2.99
-2.49
-1.98
-1.80
-2.24
-3.32
-4.91
-6.70
-8.30
-9.38
-9.71
-9.27
-8.19
-6.69
-4.99
-3.22
-1.40
0.49
2.43
4.29
5.88
7.03
7.66
7.88
7.93
8.00
8.26
8.64
9.00
9.17
9.10
8.86
8.58
8.37
8.17
7.86
7.27
6.34
5.12
3.80
2.56
1.50
0.61
-0.16
-0.86
-1.51
-2.10
-2.62
-3.10
-3.59
-4.17
-4.79
-5.34
-5.64
-5.57
-5.12
-4.47
-3.90
-3.69
-4.06
-5.06
-6.61
-8.46
-10.30
-11.77
-12.54
-12.39
-11.29
-9.44
-7.21
-5.03
-3.25
-1.95
-0.98
-0.07
1.01
2.35
3.78
5.05
5.93
6.37
6.51
6.62
6.96
7.62
8.51
9.41
10.11
10.47
10.50
10.25
9.83
9.31
8.70
7.98
7.14
6.28
5.51
5.00
4.84
4.97
5.23
5.29
4.95
4.10
2.89
1.56
0.42
-0.35
-0.70
-0.77
-0.80
-1.03
-1.64
-2.73
-4.22
-5.96
-7.73
-9.36
-10.69
-11.63
-12.06
-11.90
-11.10
-9.73
-7.98
-6.07
-4.20
-2.45
-0.84
0.65
2.00
3.08
3.78
4.02
3.89
3.58
3.32
3.28
3.51
3.92
4.35
4.69
4.93
5.16
5.49
6.00
6.62
7.12
7.30
7.00
6.26
5.34
4.52
4.04
3.92
4.00
4.04
3.86
3.41
2.79
2.14
1.59
1.19
0.87
0.56
0.20
-0.23
-0.77
-1.46
-2.41
-3.73
-5.49
-7.59
-9.74
-11.54
-12.57
-12.63
-11.75
-10.25
-8.53
-6.94
-5.61
-4.45
-3.24
-1.81
-0.16
1.53
2.97
3.96
4.48
4.66
4.75
4.87
5.03
5.14
5.14
5.11
5.21
5.59
6.25
7.01
7.59
7.77
7.46
6.75
5.76
4.57
3.20
1.70
0.20
-1.11
-2.04
-2.61
-2.98
-3.46
-4.28
-5.47
-6.84
-8.09
-9.03
-9.66
-10.24
-11.06
-12.28
-13.74
-14.96
-15.34
-14.45
-12.20
-8.92
-5.17
-1.52
1.65
4.19
6.18
7.78
9.17
10.47
11.76
13.09
14.45
15.74
16.82
17.64
18.25
18.91
20.00
21.84
24.46
27.50
30.34
32.27
32.90
32.27
30.94
29.76
29.63
31.12
34.34
38.74
43.12
45.82
45.15
40.01
30.39
17.58
3.91
-8.09
-16.60
-21.27
-23.22
-24.46
-26.94
-31.72
-38.69
-46.76
-54.52
-60.80
-65.01
-67.14
-67.47
-66.33
-63.92
-60.29
-55.55
-49.98
-44.04
-38.29
-33.14
-28.80
-25.12
-21.74
-18.32
-14.68
-10.97
-7.58
-4.89
-3.16
-2.30
-1.99
-1.78
-1.33
-0.45
0.83
2.35
3.86
5.14
6.03
6.51
6.74
6.99
7.50
8.35
9.39
10.31
10.78
10.73
10.31
9.88
9.67
9.73
9.76
9.34
8.12
6.01
3.26
0.27
-2.50
-4.80
-6.54
-7.79
-8.61
-8.99
-8.85
-8.05
-6.54
-4.46
-2.11
0.14
2.09
3.79
5.48
7.46
9.90
12.63
15.25
17.34
18.66
19.27
19.47
19.61
19.92
20.48
21.20
21.95
22.62
23.12
23.40
23.33
22.82
21.76
20.12
17.90
15.23
12.35
9.61
7.38
5.95
5.36
5.36
5.50
5.30
4.43
2.86
0.79
-1.43
-3.52
-5.36
-7.04
-8.76
-10.73
-13.01
-15.49
-17.86
-19.70
-20.60
-20.32
-18.91
-16.65
-13.98
-11.33
-8.97
-6.96
-5.24
-3.71
-2.36
-1.26
-0.47
-0.02
0.18
0.32
0.55
0.98
1.57
2.22
2.77
3.14
3.32
3.40
3.51
3.75
4.14
4.60
4.97
5.15
5.06
4.72
4.22
3.62
2.95
2.20
1.39
0.61
-0.03
-0.49
-0.81
-1.13
-1.61
-2.35
-3.31
-4.43
-5.68
-7.10
-8.72
-10.50
-12.18
-13.35
-13.59
-12.68
-10.75
-8.19
-5.51
-3.13
-1.22
0.29
1.56
2.74
3.87
4.92
5.83
6.57
7.22
7.84
8.50
9.16
9.71
10.00
9.88
9.31
8.38
7.27
6.21
5.38
4.86
4.54
4.29
3.98
3.56
3.11
2.74
2.48
2.24
1.86
1.08
-0.26
-2.17
-4.47
-6.90
-9.19
-11.17
-12.83
-14.26
-15.67
-17.20
-18.95
-20.97
-23.20
-25.69
-28.44
-31.48
-34.75
-38.01
-40.87
-42.87
-43.60
-42.88
-40.89
-38.08
-34.99
-32.09
-29.50
-27.05
-24.38
-21.23
-17.58
-13.74
-10.16
-7.21
-4.94
-3.09
-1.18
1.20
4.22
7.75
11.43
14.91
17.94
20.50
22.67
24.54
26.12
27.28
27.92
27.96
27.55
26.92
26.37
26.12
26.22
26.58
27.01
27.34
27.43
27.24
26.84
26.32
25.77
25.19
24.51
23.56
22.26
20.59
18.68
16.66
14.63
12.57
10.40
8.12
5.86
3.93
2.65
2.26
2.76
3.91
5.30
6.55
7.39
7.76
7.76
7.62
7.53
7.61
7.84
8.12
8.35
8.52
8.73
9.13
9.79
10.65
11.56
12.27
12.70
12.84
12.80
12.74
12.76
12.84
12.90
12.81
12.46
11.81
10.87
9.73
8.56
7.57
6.92
6.66
6.66
6.65
6.38
5.71
4.71
3.60
2.66
2.10
1.91
1.88
1.71
1.10
-0.18
-2.20
-4.89
-7.99
-11.10
-13.70
-15.33
-15.67
-14.70
-12.66
-10.06
-7.38
-5.04
-3.25
-1.98
-1.02
-0.14
0.86
2.03
3.29
4.48
5.42
6.00
6.18
6.04
5.69
5.33
5.16
5.32
5.87
6.76
7.81
8.75
9.34
9.39
8.86
7.84
6.45
4.82
3.09
1.38
-0.13
-1.30
-1.98
-2.18
-2.05
-1.90
-2.05
-2.71
-3.86
-5.33
-6.80
-8.04
-8.99
-9.75
-10.54
-11.55
-12.90
-14.56
-16.42
-18.26
-19.81
-20.77
-20.86
-19.92
-17.96
-15.20
-12.05
-8.94
-6.19
-3.90
-2.02
-0.39
1.08
2.41
3.52
4.42
5.16
5.91
6.83
7.96
9.18
10.21
10.83
10.90
10.51
9.85
9.19
8.72
8.46
8.36
8.24
7.95
7.37
6.49
5.36
4.04
2.59
1.01
-0.67
-2.31
-3.68
-4.51
-4.64
-4.10
-3.21
-2.43
-2.23
-2.91
-4.47
-6.69
-9.18
-11.62
-13.79
-15.60
-17.01
-17.96
-18.32
-17.98
-16.88
-15.09
-12.87
-10.49
-8.17
-5.94
-3.66
-1.15
1.66
4.57
7.20
9.12
10.09
10.19
9.81
9.45
9.51
10.11
11.07
12.09
12.83
13.09
12.84
12.21
11.38
10.56
9.91
9.44
9.06
8.62
7.97
7.11
6.15
5.31
4.78
4.62
4.71
4.78
4.58
4.00
3.14
2.26
1.65
1.45
1.59
1.79
1.73
1.19
0.18
-1.08
-2.33
-3.32
-3.92
-4.04
-3.55
-2.24
0.06
3.35
7.34
11.53
15.45
18.88
22.08
25.63
30.14
35.78
42.04
47.71
51.28
51.48
47.80
40.68
31.44
21.86
13.79
8.66
7.09
8.70
12.08
14.99
14.96
10.00
-0.71
-16.51
-35.41
-54.65
-71.53
-84.03
-91.25
-93.26
-90.92
-85.48
-78.31
-70.63
-63.38
-57.13
-52.05
-48.02
-44.69
-41.71
-38.78
-35.76
-32.66
-29.59
-26.81
-24.55
-23.03
-22.27
-22.09
-22.10
-21.81
-20.79
-18.79
-15.86
-12.23
-8.26
-4.29
-0.54
2.88
5.93
8.56
10.71
12.27
13.20
13.55
13.54
13.52
13.87
14.81
16.28
17.94
19.29
19.93
19.71
18.79
17.57
16.48
15.73
15.29
14.89
14.24
13.13
11.61
9.91
8.30
6.95
5.88
4.98
4.13
3.33
2.62
2.06
1.60
1.08
0.25
-1.08
-2.98
-5.28
-7.63
-9.61
-10.80
-10.97
-10.09
-8.36
-6.15
-3.80
-1.56
0.48
2.34
4.05
5.53
6.70
7.46
7.89
8.20
8.68
9.54
10.72
11.97
12.92
13.30
13.02
12.25
11.26
10.34
9.64
9.19
8.89
8.58
8.16
7.55
6.74
5.76
4.65
3.43
2.17
0.93
-0.27
-1.39
-2.44
-3.42
-4.35
-5.23
-6.06
-6.85
-7.72
-8.84
-10.39
-12.46
-14.91
-17.33
-19.20
-20.05
-19.67
-18.12
-15.75
-12.94
-10.02
-7.17
-4.45
-1.86
0.55
2.75
4.69
6.32
7.62
8.56
9.14
9.41
9.51
9.64
9.98
10.63
11.51
12.40
13.06
13.30
13.14
12.73
12.27
11.93
11.75
11.63
11.43
11.06
10.53
10.01
9.68
9.65
9.87
10.09
10.04
9.49
8.44
7.01
5.43
3.83
2.23
0.58
-1.21
-3.14
-5.14
-7.14
-9.11
-11.07
-13.05
-14.97
-16.60
-17.68
-17.93
-17.22
-15.54
-13.06
-10.01
-6.74
-3.61
-0.95
1.05
2.37
3.19
3.84
4.60
5.64
6.91
8.22
9.38
10.28
10.94
11.40
11.72
11.89
11.86
11.62
11.19
10.69
10.20
9.77
9.34
8.79
8.01
6.96
5.74
4.49
3.38
2.49
1.83
1.31
0.79
0.17
-0.64
-1.65
-2.81
-3.98
-5.02
-5.79
-6.37
-6.97
-7.88
-9.34
-11.32
-13.43
-15.06
-15.67
-14.97
-13.15
-10.67
-8.08
-5.74
-3.70
-1.86
-0.07
1.65
3.17
4.26
4.84
5.03
5.10
5.39
6.11
7.22
8.44
9.41
9.83
9.65
9.03
8.28
7.67
7.28
7.04
6.74
6.22
5.43
4.46
3.44
2.45
1.51
0.56
-0.45
-1.51
-2.59
-3.55
-4.29
-4.76
-5.01
-5.27
-5.78
-6.74
-8.15
-9.74
-11.06
-11.64
-11.17
-9.68
-7.42
-4.80
-2.17
0.20
2.25
3.98
5.38
6.46
7.21
7.62
7.72
7.59
7.28
6.85
6.30
5.64
4.92
4.28
3.93
4.03
4.59
5.40
6.08
6.29
5.85
4.86
3.58
2.33
1.24
0.30
-0.62
-1.66
-2.81
-4.01
-5.13
-6.14
-7.06
-8.01
-9.08
-10.32
-11.68
-13.12
-14.59
-16.07
-17.57
-19.07
-20.46
-21.45
-21.71
-20.92
-18.97
-16.04
-12.56
-9.07
-5.98
-3.46
-1.42
0.36
2.01
3.55
4.82
5.67
6.05
6.08
6.04
6.25
6.92
8.05
9.47
10.85
11.89
12.36
12.24
11.65
10.85
10.10
9.56
9.23
8.97
8.62
8.10
7.48
6.92
6.51
6.22
5.80
5.02
3.70
1.95
0.09
-1.52
-2.65
-3.36
-3.94
-4.82
-6.32
-8.57
-11.46
-14.62
-17.53
-19.67
-20.62
-20.23
-18.67
-16.36
-13.80
-11.36
-9.16
-7.08
-4.89
-2.51
-0.07
2.16
3.83
4.88
5.52
6.14
7.04
8.32
9.73
10.90
11.51
11.51
11.14
10.76
10.69
11.00
11.53
12.04
12.34
12.36
12.20
11.97
11.72
11.36
10.74
9.76
8.38
6.74
5.11
3.77
2.91
2.50
2.30
1.97
1.21
-0.12
-1.96
-4.12
-6.40
-8.71
-11.06
-13.39
-15.60
-17.37
-18.37
-18.32
-17.23
-15.36
-13.11
-10.88
-8.85
-7.02
-5.25
-3.45
-1.60
0.19
1.73
2.94
3.77
4.32
4.72
5.12
5.63
6.33
7.25
8.31
9.36
10.22
10.72
10.78
10.47
9.97
9.45
9.07
8.85
8.76
8.73
8.75
8.78
8.79
8.72
8.48
8.04
7.42
6.78
6.32
6.24
6.63
7.35
8.22
8.94
9.37
9.44
9.25
8.98
8.90
9.34
10.64
13.12
16.86
21.61
26.65
30.93
33.29
32.86
29.34
23.09
15.11
6.66
-0.95
-6.76
-10.34
-11.83
-11.91
-11.53
-11.63
-12.79
-15.14
-18.30
-21.64
-24.59
-26.83
-28.37
-29.41
-30.17
-30.67
-30.78
-30.30
-29.17
-27.54
-25.75
-24.19
-23.09
-22.46
-22.08
-21.69
-21.15
-20.54
-20.17
-20.34
-21.18
-22.53
-24.03
-25.23
-25.85
-25.81
-25.15
-23.93
-22.11
-19.60
-16.32
-12.40
-8.14
-3.97
-0.30
2.69
5.03
6.86
8.34
9.54
10.42
10.98
11.30
11.57
12.05
12.90
14.11
15.46
16.60
17.20
17.10
16.43
15.52
14.79
14.53
14.73
15.16
15.40
15.11
14.19
12.79
11.24
9.88
8.88
8.17
7.54
6.69
5.48
3.89
2.04
0.07
-1.87
-3.79
-5.73
-7.80
-10.02
-12.28
-14.39
-16.09
-17.14
-17.39
-16.85
-15.62
-13.89
-11.82
-9.56
-7.15
-4.60
-2.00
0.54
2.80
4.59
5.81
6.55
7.04
7.55
8.29
9.31
10.52
11.72
12.75
13.53
14.06
14.45
14.74
14.98
15.13
15.10
14.83
14.27
13.44
12.46
11.47
10.60
9.97
9.56
9.32
9.11
8.80
8.32
7.60
6.64
5.45
4.13
2.76
1.45
0.22
-0.97
-2.23
-3.71
-5.44
-7.38
-9.38
-11.26
-12.83
-13.94
-14.46
-14.26
-13.26
-11.50
-9.16
-6.54
-4.05
-1.91
-0.24
1.09
2.22
3.33
4.48
5.68
6.91
8.15
9.38
10.57
11.71
12.82
13.94
15.11
16.29
17.34
18.10
18.37
18.11
17.44
16.56
15.70
14.99
14.45
13.97
13.37
12.50
11.29
9.78
8.11
6.48
5.00
3.64
2.25
0.68
-1.15
-3.07
-4.86
-6.30
-7.35
-8.23
-9.26
-10.70
-12.55
-14.51
-16.13
-16.97
-16.78
-15.63
-13.81
-11.70
-9.58
-7.53
-5.45
-3.19
-0.72
1.79
4.02
5.62
6.40
6.49
6.20
5.91
5.87
6.08
6.41
6.66
6.75
6.76
6.83
7.09
7.51
7.88
7.90
7.34
6.19
4.72
3.36
2.43
2.07
2.09
2.18
2.03
1.53
0.74
-0.18
-1.10
-2.04
-3.07
-4.29
-5.71
-7.27
-8.84
-10.40
-11.97
-13.64
-15.52
-17.61
-19.81
-21.83
-23.24
-23.59
-22.64
-20.50
-17.62
-14.67
-12.20
-10.46
-9.29
-8.30
-7.08
-5.45
-3.51
-1.51
0.29
1.78
3.01
4.09
5.11
6.10
6.99
7.71
8.23
8.55
8.81
9.08
9.46
9.94
10.42
10.75
10.78
10.42
9.63
8.52
7.18
5.76
4.43
3.29
2.40
1.75
1.20
0.55
-0.39
-1.75
-3.48
-5.41
-7.30
-8.96
-10.28
-11.32
-12.23
-13.21
-14.41
-15.88
-17.54
-19.18
-20.52
-21.25
-21.17
-20.20
-18.42
-16.05
-13.39
-10.67
-8.07
-5.61
-3.28
-1.06
0.99
2.73
4.06
4.96
5.60
6.26
7.16
8.36
9.66
10.80
11.55
11.90
12.06
12.29
12.75
13.41
14.06
14.45
14.45
14.09
13.55
13.00
12.58
12.28
12.03
11.69
11.19
10.53
9.74
8.83
7.76
6.48
4.90
3.09
1.17
-0.65
-2.17
-3.29
-4.03
-4.54
-5.06
-5.88
-7.22
-9.17
-11.60
-14.12
-16.19
-17.36
-17.37
-16.29
-14.43
-12.11
-9.60
-7.03
-4.45
-2.02
0.08
1.61
2.50
2.81
2.80
2.71
2.73
2.90
3.17
3.46
3.64
3.62
3.34
2.80
2.08
1.34
0.75
0.35
0.07
-0.34
-1.03
-2.04
-3.20
-4.22
-4.88
-5.17
-5.30
-5.55
-6.14
-7.05
-8.09
-9.00
-9.58
-9.84
-9.96
-10.24
-10.97
-12.28
-14.08
-16.15
-18.08
-19.48
-20.01
-19.48
-17.87
-15.34
-12.18
-8.74
-5.40
-2.43
0.01
1.89
3.22
4.06
4.47
4.52
4.35
4.11
3.98
4.13
4.60
5.35
6.24
7.10
7.77
8.16
8.30
8.30
8.37
8.68
9.31
10.10
10.77
11.03
10.75
10.02
9.16
8.49
8.11
7.85
7.39
6.44
4.99
3.32
1.82
0.81
0.34
0.11
-0.32
-1.37
-3.22
-5.71
-8.41
-10.71
-12.04
-12.00
-10.55
-7.91
-4.60
-1.15
2.04
4.81
7.31
9.81
12.58
15.70
19.01
22.21
25.02
27.27
29.05
30.64
32.44
34.76
37.74
41.29
45.11
48.77
51.86
54.10
55.48
56.20
56.74
57.60
59.19
61.66
64.76
67.75
69.33
67.85
61.78
50.37
34.26
15.54
-2.80
-17.98
-28.61
-35.18
-39.65
-44.30
-50.54
-58.30
-66.29
-72.98
-77.45
-79.76
-80.67
-80.93
-80.73
-79.64
-76.92
-72.09
-65.26
-57.19
-48.91
-41.38
-35.07
-29.98
-25.68
-21.63
-17.45
-13.12
-8.98
-5.47
-2.91
-1.21
0.12
1.74
4.16
7.37
10.87
13.86
15.63
15.91
14.98
13.43
11.96
10.98
10.58
10.62
10.79
10.90
10.83
10.63
10.36
10.06
9.74
9.29
8.64
7.68
6.39
4.84
3.16
1.56
0.19
-0.92
-1.86
-2.82
-4.02
-5.59
-7.62
-10.01
-12.61
-15.22
-17.53
-19.29
-20.24
-20.23
-19.27
-17.53
-15.35
-13.06
-10.91
-8.92
-7.03
-5.12
-3.22
-1.45
-0.01
1.02
1.72
2.34
3.13
4.19
5.47
6.76
7.88
8.81
9.62
10.48
11.43
12.40
13.14
13.39
13.00
12.00
10.59
9.08
7.78
6.84
6.25
5.84
5.40
4.75
3.88
2.89
1.93
1.13
0.45
-0.23
-1.17
-2.53
-4.40
-6.69
-9.18
-11.56
-13.49
-14.74
-15.17
-14.79
-13.70
-12.00
-9.86
-7.37
-4.70
-2.01
0.46
2.50
3.97
4.88
5.43
5.89
6.52
7.43
8.54
9.60
10.38
10.75
10.75
10.58
10.44
10.48
10.64
10.76
10.63
10.12
9.22
8.09
6.92
5.86
4.95
4.12
3.21
2.13
0.86
-0.50
-1.80
-2.88
-3.71
-4.33
-4.94
-5.72
-6.87
-8.47
-10.56
-13.08
-15.96
-19.03
-22.03
-24.61
-26.33
-26.83
-25.92
-23.73
-20.61
-17.12
-13.80
-10.93
-8.59
-6.58
-4.63
-2.55
-0.34
1.82
3.68
5.07
5.97
6.53
6.96
7.44
7.98
8.54
9.09
9.73
10.57
11.72
13.07
14.34
15.21
15.44
15.07
14.34
13.52
12.80
12.15
11.40
10.39
9.14
7.78
6.53
5.57
4.93
4.51
4.11
3.56
2.71
1.59
0.25
-1.23
-2.91
-4.90
-7.38
-10.42
-13.83
-17.13
-19.73
-21.10
-21.04
-19.73
-17.62
-15.21
-12.83
-10.63
-8.62
-6.79
-5.19
-3.92
-3.11
-2.74
-2.66
-2.64
-2.45
-1.91
-1.00
0.16
1.37
2.35
2.96
3.13
3.00
2.81
2.79
3.03
3.42
3.66
3.48
2.76
1.67
0.63
0.07
0.24
1.03
2.05
2.83
3.06
2.78
2.23
1.68
1.27
0.90
0.35
-0.60
-1.97
-3.59
-5.23
-6.69
-7.88
-8.82
-9.54
-9.96
-9.97
-9.40
-8.20
-6.43
-4.28
-1.96
0.37
2.65
4.92
7.21
9.52
11.79
13.91
15.77
17.26
18.36
19.12
19.67
20.16
20.71
21.42
22.29
23.31
24.42
25.56
26.67
27.71
28.68
29.62
30.59
31.68
32.89
34.07
35.04
35.61
35.78
35.80
36.08
36.99
38.64
40.85
43.17
45.11
46.35
46.91
47.11
47.44
48.38
50.23
53.15
57.09
61.75
66.48
70.31
72.02
70.69
66.19
59.48
52.29
46.26
41.85
37.65
30.76
18.02
-2.46
-30.17
-62.35
-94.91
-123.96
-146.76
-162.09
-169.78
-170.26
-164.20
-152.58
-136.91
-119.20
-101.71
-86.37
-74.27
-65.39
-58.83
-53.19
-47.16
-40.03
-31.88
-23.48
-15.91
-10.06
-6.24
-4.14
-3.03
-2.11
-0.84
0.89
2.81
4.48
5.51
5.64
4.85
3.22
0.96
-1.75
-4.70
-7.66
-10.33
-12.36
-13.43
-13.34
-12.14
-10.08
-7.58
-5.02
-2.66
-0.58
1.30
3.08
4.83
6.48
7.92
9.02
9.69
9.99
10.09
10.26
10.76
11.75
13.17
14.81
16.31
17.41
17.94
17.99
17.79
17.52
17.29
16.98
16.40
15.43
14.13
12.74
11.59
10.92
10.76
10.89
10.98
10.75
10.08
9.09
8.01
7.04
6.26
5.55
4.70
3.48
1.75
-0.46
-2.98
-5.44
-7.45
-8.61
-8.71
-7.79
-6.16
-4.24
-2.44
-0.96
0.28
1.50
2.91
4.55
6.24
7.66
8.56
8.87
8.73
8.50
8.51
9.04
10.12
11.60
13.19
14.61
15.70
16.45
16.90
17.10
17.00
16.57
15.79
14.75
13.64
12.70
12.06
11.80
11.82
11.98
12.07
11.89
11.32
10.33
9.11
8.00
7.32
7.17
7.33
7.35
6.80
5.66
4.39
3.88
4.98
8.14
13.11
19.03
24.90
29.99
34.16
37.93
42.03
47.06
53.17
60.00
66.96
73.41
78.68
82.05
82.73
80.05
74.02
65.68
56.92
49.67
44.72
40.94
35.39
24.70
6.65
-18.58
-48.41
-78.93
-106.53
-128.97
-145.51
-156.32
-161.63
-161.48
-155.96
-145.74
-132.37
-118.09
-105.05
-94.57
-86.80
-80.83
-75.28
-69.01
-61.50
-53.06
-44.47
-36.61
-29.98
-24.61
-20.07
-15.76
-11.29
-6.51
-1.64
3.01
7.13
10.57
13.34
15.58
17.49
19.27
21.07
22.91
24.66
26.08
26.87
26.89
26.13
24.76
23.04
21.24
19.55
18.09
16.93
16.06
15.42
14.84
14.16
13.15
11.72
9.75
7.27
4.36
1.20
-1.99
-5.00
-7.65
-9.90
-11.75
-13.23
-14.23
-14.60
-14.18
-12.89
-10.89
-8.45
-5.91
-3.50
-1.31
0.61
2.23
3.41
4.02
3.93
3.26
2.32
1.54
1.35
1.93
3.20
4.79
6.30
7.38
7.92
8.02
7.93
7.86
7.90
8.03
8.15
8.21
8.17
8.08
7.99
7.90
7.83
7.75
7.64
7.42
7.01
6.24
5.03
3.37
1.38
-0.72
-2.80
-4.80
-6.72
-8.54
-10.14
-11.22
-11.48
-10.71
-8.89
-6.32
-3.40
-0.54
2.00
4.15
6.05
7.83
9.55
11.15
12.41
13.14
13.29
13.01
12.63
12.44
12.58
13.01
13.53
13.97
14.29
14.56
14.88
15.28
15.66
15.79
15.50
14.72
13.51
12.12
10.78
9.69
8.91
8.32
7.69
6.79
5.48
3.78
1.86
-0.06
-1.75
-3.10
-4.16
-5.04
-5.93
-7.06
-8.59
-10.65
-13.23
-16.16
-19.08
-21.55
-23.14
-23.61
-22.96
-21.44
-19.38
-17.04
-14.55
-11.88
-8.95
-5.79
-2.57
0.40
2.81
4.47
5.43
5.88
6.15
6.51
7.12
7.95
8.90
9.81
10.58
11.21
11.71
12.11
12.38
12.42
12.14
11.44
10.36
9.05
7.72
6.58
5.79
5.38
5.25
5.24
5.18
4.95
4.56
4.05
3.49
2.88
2.16
1.24
0.09
-1.21
-2.45
-3.41
-3.97
-4.19
-4.32
-4.73
-5.69
-7.25
-9.18
-11.03
-12.34
-12.80
-12.32
-11.06
-9.35
-7.55
-5.92
-4.66
-3.78
-3.17
-2.61
-1.90
-0.89
0.39
1.77
3.01
3.96
4.60
5.01
5.35
5.62
5.80
5.83
5.77
5.83
6.21
7.03
8.16
9.26
9.89
9.77
8.89
7.54
6.16
5.19
4.89
5.19
5.83
6.43
6.66
6.42
5.80
5.10
4.60
4.42
4.50
4.57
4.32
3.47
1.96
-0.16
-2.68
-5.33
-7.81
-9.84
-11.18
-11.74
-11.49
-10.52
-8.97
-6.96
-4.67
-2.27
0.06
2.16
3.91
5.31
6.40
7.26
7.90
8.34
8.62
8.81
9.04
9.40
9.94
10.59
11.27
11.93
12.55
13.13
13.62
13.90
13.82
13.30
12.36
11.15
9.89
8.77
7.86
7.11
6.43
5.68
4.79
3.75
2.55
1.22
-0.22
-1.71
-3.19
-4.59
-5.90
-7.15
-8.44
-9.92
-11.69
-13.79
-16.07
-18.24
-19.90
-20.63
-20.14
-18.36
-15.54
-12.16
-8.86
-6.16
-4.37
-3.40
-2.92
-2.51
-1.86
-0.83
0.50
1.98
3.46
4.88
6.21
7.44
8.52
9.40
10.02
10.41
10.61
10.72
10.81
10.86
10.80
10.46
9.70
8.39
6.59
4.54
2.60
1.15
0.41
0.31
0.46
0.36
-0.39
-1.95
-4.09
-6.41
-8.44
-9.94
-10.87
-11.50
-12.08
-12.86
-13.96
-15.32
-16.77
-18.07
-19.09
-19.66
-19.82
-19.57
-18.90
-17.72
-15.93
-13.47
-10.45
-7.18
-4.06
-1.45
0.48
1.78
2.64
3.28
3.82
4.37
4.94
5.62
6.43
7.39
8.40
9.34
10.12
10.67
10.97
11.01
10.79
10.30
9.63
8.87
8.20
7.70
7.38
7.14
6.83
6.36
5.74
5.09
4.53
4.09
3.74
3.36
2.83
2.07
1.07
-0.20
-1.75
-3.61
-5.82
-8.25
-10.73
-12.88
-14.36
-14.90
-14.40
-12.98
-10.94
-8.63
-6.33
-4.24
-2.31
-0.49
1.30
3.06
4.68
6.05
7.06
7.69
7.96
7.98
7.81
7.53
7.15
6.70
6.25
5.82
5.48
5.21
5.05
5.00
5.12
5.38
5.72
5.99
5.99
5.58
4.70
3.46
2.05
0.67
-0.49
-1.36
-1.92
-2.24
-2.43
-2.67
-3.20
-4.21
-5.74
-7.56
-9.26
-10.32
-10.39
-9.35
-7.41
-4.97
-2.39
0.10
2.47
4.75
6.99
9.16
11.20
13.03
14.61
15.93
16.92
17.47
17.41
16.62
15.13
13.12
10.95
9.02
7.69
7.11
7.19
7.53
7.68
7.17
5.82
3.77
1.45
-0.59
-1.98
-2.61
-2.72
-2.70
-2.93
-3.62
-4.76
-6.18
-7.66
-9.08
-10.38
-11.59
-12.69
-13.66
-14.52
-15.30
-16.11
-17.06
-18.10
-19.08
-19.70
-19.66
-18.80
-17.14
-14.92
-12.45
-10.02
-7.85
-6.08
-4.79
-3.97
-3.55
-3.31
-2.99
-2.32
-1.21
0.26
1.87
3.32
4.45
5.19
5.61
5.80
5.82
5.64
5.17
4.34
3.11
1.49
-0.41
-2.47
-4.47
-6.25
-7.68
-8.79
-9.71
-10.72
-12.01
-13.67
-15.61
-17.59
-19.38
-20.83
-21.97
-22.94
-23.96
-25.13
-26.45
-27.76
-28.80
-29.30
-29.08
-28.08
-26.31
-23.96
-21.22
-18.29
-15.42
-12.76
-10.48
-8.61
-7.18
-6.07
-5.15
-4.25
-3.23
-2.08
-0.85
0.31
1.32
2.15
2.87
3.63
4.61
5.90
7.47
9.14
10.63
11.70
12.21
12.16
11.73
11.18
10.75
10.51
10.41
10.18
9.62
8.64
7.44
6.34
5.69
5.67
6.12
6.64
6.76
6.15
4.75
2.82
0.71
-1.19
-2.59
-3.31
-3.18
-2.13
-0.18
2.46
5.49
8.56
11.36
13.77
15.79
17.56
19.25
21.03
23.01
25.13
27.12
28.57
29.07
28.40
26.74
24.61
22.65
21.34
20.82
20.86
21.06
21.13
20.96
20.66
20.30
19.87
19.25
18.29
17.00
15.52
14.12
12.94
11.96
10.97
9.71
8.01
5.91
3.62
1.39
-0.58
-2.26
-3.72
-5.07
-6.45
-7.94
-9.63
-11.54
-13.65
-15.83
-17.81
-19.32
-20.09
-20.03
-19.21
-17.84
-16.14
-14.27
-12.33
-10.32
-8.28
-6.22
-4.23
-2.36
-0.71
0.69
1.87
2.88
3.81
4.73
5.68
6.65
7.53
8.20
8.53
8.48
8.10
7.55
7.00
6.60
6.38
6.27
6.13
5.83
5.33
4.65
3.88
3.05
2.14
1.03
-0.35
-2.01
-3.83
-5.61
-7.15
-8.39
-9.40
-10.41
-11.68
-13.38
-15.53
-17.90
-20.06
-21.50
-21.77
-20.69
-18.42
-15.44
-12.36
-9.67
-7.57
-5.96
-4.59
-3.23
-1.82
-0.50
0.58
1.39
2.07
2.85
3.96
5.48
7.32
9.26
11.06
12.47
13.35
13.67
13.56
13.24
12.97
12.93
13.11
13.36
13.40
13.04
12.19
10.90
9.34
7.62
5.84
4.04
2.27
0.61
-0.86
-2.07
-3.08
-4.02
-5.14
-6.73
-8.98
-11.88
-15.14
-18.22
-20.50
-21.47
-20.96
-19.12
-16.38
-13.25
-10.12
-7.22
-4.60
-2.21
-0.02
2.05
4.02
5.92
7.72
9.40
10.89
12.19
13.30
14.21
14.92
15.40
15.65
15.75
15.85
16.11
16.66
17.43
18.23
18.77
18.85
18.40
17.52
16.45
15.36
14.39
13.56
12.85
12.24
11.71
11.23
10.79
10.33
9.74
8.98
8.10
7.15
6.21
5.23
4.00
2.25
-0.16
-3.12
-6.26
-9.03
-11.00
-12.00
-12.16
-11.76
-11.07
-10.21
-9.22
-8.13
-7.10
-6.40
-6.25
-6.77
-7.79
-8.96
-9.91
-10.37
-10.32
-9.94
-9.50
-9.19
-9.05
-8.95
-8.67
-8.00
-6.87
-5.41
-3.87
-2.58
-1.72
-1.33
-1.30
-1.37
-1.35
-1.10
-0.62
-0.04
0.49
0.89
1.12
1.27
1.40
1.49
1.51
1.31
0.78
-0.12
-1.37
-2.86
-4.45
-6.03
-7.54
-8.94
-10.32
-11.74
-13.32
-15.05
-16.87
-18.55
-19.73
-20.15
-19.66
-18.33
-16.40
-14.10
-11.61
-9.04
-6.39
-3.71
-1.13
1.20
3.17
4.77
6.12
7.36
8.57
9.73
10.74
11.47
11.92
12.18
12.43
12.86
13.52
14.30
14.94
15.17
14.78
13.77
12.30
10.68
9.23
8.18
7.60
7.36
7.22
6.91
6.25
5.22
3.93
2.56
1.25
0.05
-1.11
-2.34
-3.81
-5.61
-7.79
-10.30
-13.04
-15.75
-18.12
-19.82
-20.54
-20.14
-18.68
-16.41
-13.72
-10.96
-8.39
-6.12
-4.09
-2.22
-0.46
1.13
2.42
3.34
3.90
4.27
4.70
5.39
6.47
7.86
9.40
10.89
12.18
13.20
13.96
14.51
14.87
15.05
14.99
14.60
13.87
12.84
11.69
10.63
9.86
9.44
9.27
9.10
8.73
7.99
6.93
5.76
4.74
4.14
4.04
4.37
4.87
5.19
4.99
4.14
2.84
1.68
1.52
3.23
7.29
13.57
21.21
28.97
35.66
40.65
44.11
46.93
50.25
55.06
61.82
70.30
79.61
88.25
94.46
96.52
93.37
85.10
73.17
60.04
48.26
39.33
32.81
26.42
16.88
1.50
-20.59
-48.03
-77.77
-106.41
-131.34
-151.32
-166.19
-176.21
-181.39
-181.45
-176.19
-166.05
-152.49
-137.60
-123.45
-111.33
-101.34
-92.66
-84.13
-75.03
-65.45
-56.27
-48.62
-43.42
-40.80
-40.21
-40.63
-41.00
-40.60
-39.14
-36.74
-33.64
-30.17
-26.54
-22.89
-19.28
-15.73
-12.23
-8.77
-5.48
-2.54
-0.18
1.48
2.55
3.38
4.47
6.23
8.91
12.43
16.58
21.07
25.73
30.49
35.33
40.21
45.01
49.50
53.42
56.59
58.95
60.61
61.85
62.97
64.23
65.74
67.39
68.95
70.11
70.62
70.36
69.33
67.58
65.26
62.42
59.14
55.43
51.29
46.74
41.81
36.55
31.06
25.49
19.95
14.58
9.53
4.96
1.10
-1.80
-3.58
-4.24
-4.05
-3.49
-3.03
-2.99
-3.40
-4.03
-4.55
-4.74
-4.69
-4.59
-4.76
-5.29
-6.04
-6.68
-6.87
-6.44
-5.43
-4.15
-2.98
-2.24
-2.11
-2.46
-3.02
-3.40
-3.31
-2.62
-1.45
-0.09
1.10
1.88
2.17
2.08
1.86
1.71
1.77
1.97
2.14
2.07
1.62
0.77
-0.45
-1.91
-3.56
-5.32
-7.17
-9.11
-11.12
-13.14
-14.98
-16.42
-17.17
-17.08
-16.13
-14.50
-12.55
-10.55
-8.67
-6.89
-5.04
-2.99
-0.76
1.45
3.27
4.42
4.81
4.56
3.99
3.48
3.25
3.34
3.59
3.78
3.73
3.48
3.18
3.06
3.24
3.66
4.06
4.19
3.93
3.35
2.70
2.21
1.99
1.90
1.69
1.10
0.01
-1.49
-3.18
-4.83
-6.26
-7.43
-8.40
-9.29
-10.29
-11.50
-13.01
-14.77
-16.60
-18.24
-19.40
-19.84
-19.43
-18.21
-16.30
-13.89
-11.22
-8.49
-5.88
-3.50
-1.45
0.24
1.54
2.41
2.86
2.99
2.94
2.94
3.18
3.72
4.46
5.17
5.63
5.70
5.45
5.09
4.84
4.82
4.95
5.08
5.06
4.87
4.61
4.47
4.55
4.79
4.99
4.91
4.45
3.65
2.70
1.83
1.13
0.50
-0.22
-1.24
-2.62
-4.30
-6.06
-7.75
-9.26
-10.66
-12.07
-13.63
-15.28
-16.82
-17.84
-17.90
-16.70
-14.20
-10.75
-6.88
-3.22
-0.16
2.15
3.83
5.12
6.21
7.20
8.06
8.73
9.22
9.60
10.00
10.55
11.32
12.30
13.47
14.72
15.97
17.09
18.01
18.66
19.04
19.15
18.97
18.53
17.79
16.81
15.66
14.47
13.34
12.33
11.43
10.54
9.58
8.49
7.26
5.93
4.52
3.02
1.38
-0.40
-2.36
-4.42
-6.58
-8.78
-11.02
-13.23
-15.21
-16.65
-17.18
-16.49
-14.50
-11.47
-7.87
-4.26
-1.04
1.63
3.85
5.79
7.57
9.19
10.53
11.55
12.24
12.74
13.19
13.66
14.15
14.59
14.96
15.32
15.78
16.36
16.99
17.48
17.59
17.20
16.31
15.04
13.55
11.96
10.33
8.65
6.91
5.02
2.93
0.55
-2.13
-5.00
-7.85
-10.37
-12.35
-13.71
-14.63
-15.41
-16.39
-17.77
-19.54
-21.54
-23.45
-24.94
-25.71
-25.60
-24.56
-22.69
-20.19
-17.31
-14.29
-11.31
-8.49
-5.86
-3.47
-1.32
0.59
2.25
3.66
4.80
5.63
6.05
6.03
5.59
4.93
4.37
4.24
4.80
6.05
7.79
9.63
11.19
12.26
12.80
12.89
12.69
12.32
11.88
11.45
11.11
10.93
10.92
11.01
11.05
10.84
10.27
9.27
7.97
6.56
5.32
4.47
4.14
4.37
5.13
6.32
7.75
9.13
10.00
9.97
8.80
6.62
3.89
1.18
-1.23
-3.51
-6.30
-10.31
-15.91
-22.82
-30.14
-36.74
-41.63
-44.32
-44.89
-43.76
-41.51
-38.65
-35.51
-32.28
-29.01
-25.69
-22.31
-18.90
-15.55
-12.42
-9.69
-7.45
-5.70
-4.32
-3.22
-2.32
-1.58
-1.02
-0.63
-0.37
-0.22
-0.14
-0.14
-0.26
-0.57
-1.11
-1.88
-2.85
-4.00
-5.28
-6.67
-8.15
-9.68
-11.12
-12.22
-12.65
-12.10
-10.39
-7.61
-4.18
-0.69
2.30
4.37
5.41
5.61
5.37
5.12
5.25
5.89
6.94
8.13
9.16
9.87
10.32
10.70
11.22
11.99
12.88
13.68
14.12
14.08
13.58
12.78
11.87
10.96
10.19
9.54
8.99
8.44
7.79
7.00
6.09
5.21
4.51
4.04
3.71
3.35
2.80
1.99
1.01
-0.05
-1.14
-2.35
-3.82
-5.65
-7.80
-10.10
-12.31
-14.21
-15.66
-16.56
-16.87
-16.58
-15.71
-14.35
-12.64
-10.73
-8.66
-6.44
-4.05
-1.48
1.13
3.57
5.62
7.08
7.93
8.27
8.30
8.24
8.23
8.30
8.38
8.42
8.39
8.32
8.22
8.01
7.52
6.61
5.19
3.34
1.27
-0.81
-2.78
-4.60
-6.39
-8.24
-10.21
-12.28
-14.40
-16.47
-18.44
-20.31
-22.11
-23.90
-25.65
-27.24
-28.56
-29.47
-29.99
-30.33
-30.77
-31.52
-32.59
-33.65
-34.21
-33.76
-31.97
-28.84
-24.60
-19.67
-14.50
-9.49
-4.89
-0.91
2.41
5.09
7.25
8.98
10.37
11.46
12.25
12.76
13.05
13.21
13.31
13.39
13.41
13.32
13.12
12.87
12.72
12.76
13.01
13.34
13.55
13.44
12.92
12.06
11.04
10.01
9.07
8.21
7.32
6.34
5.26
4.15
3.14
2.38
1.94
1.86
2.03
2.34
2.62
2.71
2.47
1.86
0.89
-0.26
-1.29
-1.90
-1.82
-0.97
0.56
2.54
4.71
6.90
9.03
11.18
13.41
15.69
17.88
19.73
21.04
21.75
21.99
22.05
22.22
22.72
23.58
24.63
25.60
26.25
26.45
26.24
25.73
25.11
24.48
23.87
23.19
22.38
21.45
20.48
19.65
19.08
18.76
18.51
18.10
17.32
16.13
14.69
13.24
11.98
10.95
10.09
9.22
8.24
7.11
5.86
4.50
2.98
1.22
-0.86
-3.25
-5.76
-8.07
-9.77
-10.54
-10.22
-8.95
-7.03
-4.90
-2.85
-1.08
0.43
1.77
3.03
4.27
5.47
6.61
7.60
8.36
8.80
8.91
8.80
8.67
8.78
9.20
9.82
10.32
10.45
10.05
9.26
8.31
7.38
6.49
5.48
4.17
2.47
0.44
-1.70
-3.75
-5.60
-7.27
-8.89
-10.71
-12.92
-15.68
-18.95
-22.50
-26.04
-29.32
-32.23
-34.86
-37.40
-39.90
-42.29
-44.36
-45.85
-46.68
-46.82
-46.38
-45.31
-43.55
-40.93
-37.42
-33.18
-28.57
-24.02
-19.85
-16.18
-12.90
-9.76
-6.50
-2.97
0.82
4.71
8.45
11.75
14.40
16.30
17.42
17.91
17.95
17.82
17.79
18.03
18.64
19.57
20.68
21.80
22.72
23.27
23.26
22.55
21.01
18.62
15.46
11.78
7.92
4.21
0.89
-1.96
-4.31
-6.20
-7.65
-8.71
-9.40
-9.71
-9.58
-8.93
-7.75
-6.19
-4.62
-3.56
-3.46
-4.54
-6.59
-9.07
-11.21
-12.38
-12.17
-10.56
-7.76
-4.23
-0.38
3.43
6.95
10.10
12.86
15.23
17.27
19.09
20.87
22.82
25.11
27.79
30.70
33.55
36.04
38.03
39.63
41.13
42.89
45.07
47.60
50.19
52.44
54.05
54.94
55.32
55.61
56.31
57.77
60.08
62.97
65.82
67.81
68.05
65.81
60.86
53.54
44.82
35.87
27.55
19.82
11.72
1.74
-11.35
-27.74
-46.38
-65.29
-82.35
-96.00
-105.55
-111.04
-112.79
-111.10
-106.17
-98.35
-88.27
-76.89
-65.25
-54.20
-44.23
-35.38
-27.35
-19.69
-12.03
-4.14
3.94
11.94
19.49
26.26
32.06
36.95
41.19
45.05
48.81
52.55
56.26
59.80
62.98
65.55
67.19
67.57
66.37
63.44
58.85
52.86
45.83
38.11
29.91
21.38
12.60
3.65
-5.44
-14.78
-24.60
-35.09
-46.22
-57.57
-68.32
-77.52
-84.50
-89.08
-91.69
-93.00
-93.62
-93.73
-93.08
-91.21
-87.75
-82.70
-76.47
-69.70
-62.99
-56.64
-50.65
-44.79
-38.88
-32.91
-27.20
-22.13
-17.98
-14.71
-11.94
-9.19
-6.14
-2.86
0.23
2.60
3.92
4.26
4.02
3.71
3.70
4.05
4.64
5.26
5.78
6.21
6.60
7.02
7.43
7.75
7.88
7.79
7.46
6.90
6.11
5.01
3.60
1.90
0.07
-1.66
-3.11
-4.26
-5.30
-6.56
-8.33
-10.72
-13.58
-16.59
-19.37
-21.64
-23.24
-24.00
-23.75
-22.25
-19.39
-15.31
-10.42
-5.27
-0.43
3.81
7.41
10.53
13.38
16.01
18.37
20.31
21.78
22.82
23.62
24.39
25.21
26.05
26.75
27.19
27.31
27.17
26.86
26.45
25.93
25.30
24.59
23.90
23.39
23.11
22.96
22.68
22.01
20.78
19.06
17.11
15.25
13.73
12.54
11.53
10.38
8.88
7.00
4.87
2.74
0.82
-0.79
-2.16
-3.51
-5.04
-6.89
-9.07
-11.50
-14.02
-16.50
-18.81
-20.83
-22.42
-23.39
-23.50
-22.56
-20.52
-17.53
-13.92
-10.13
-6.58
-3.55
-1.10
0.83
2.41
3.79
5.03
6.09
6.93
7.51
7.90
8.22
8.64
9.23
10.01
10.80
11.38
11.52
11.12
10.27
9.22
8.28
7.68
7.51
7.65
7.86
7.95
7.77
7.35
6.79
6.21
5.70
5.22
4.70
3.99
3.00
1.69
0.12
-1.60
-3.31
-4.94
-6.54
-8.28
-10.34
-12.76
-15.36
-17.72
-19.33
-19.76
-18.89
-16.93
-14.33
-11.61
-9.11
-6.90
-4.85
-2.77
-0.59
1.57
3.45
4.86
5.72
6.21
6.58
7.03
7.66
8.40
9.18
9.96
10.80
11.77
12.83
13.84
14.58
14.94
14.90
14.57
14.13
13.71
13.34
13.01
12.68
12.30
11.88
11.39
10.78
9.96
8.88
7.50
5.91
4.25
2.65
1.25
0.06
-0.97
-1.98
-3.13
-4.58
-6.45
-8.78
-11.53
-14.58
-17.78
-20.94
-23.89
-26.37
-28.17
-29.04
-28.79
-27.36
-24.87
-21.72
-18.39
-15.32
-12.71
-10.48
-8.39
-6.23
-4.00
-1.94
-0.34
0.61
1.02
1.25
1.73
2.72
4.21
5.87
7.28
8.15
8.41
8.28
8.05
8.02
8.28
8.77
9.36
10.01
10.74
11.60
12.62
13.65
14.44
14.70
14.34
13.46
12.38
11.48
11.00
11.01
11.38
11.83
12.10
12.03
11.54
10.67
9.55
8.34
7.23
6.32
5.62
4.96
4.07
2.66
0.57
-2.08
-4.91
-7.35
-8.85
-9.02
-7.83
-5.53
-2.58
0.56
3.51
6.06
8.14
9.75
10.99
11.94
12.68
13.29
13.78
14.16
14.36
14.36
14.12
13.70
13.18
12.67
12.31
12.15
12.22
12.47
12.81
13.06
13.02
12.51
11.49
10.07
8.52
7.17
6.23
5.74
5.52
5.31
4.84
4.03
2.93
1.71
0.59
-0.31
-0.96
-1.47
-2.02
-2.78
-3.89
-5.32
-6.96
-8.61
-10.11
-11.45
-12.75
-14.24
-16.09
-18.36
-20.92
-23.54
-25.94
-27.87
-29.13
-29.58
-29.18
-28.04
-26.33
-24.29
-21.97
-19.18
-15.57
-10.72
-4.49
2.88
10.71
18.17
24.47
29.10
31.91
33.01
32.68
31.26
29.15
26.81
24.65
23.00
21.93
21.23
20.46
19.15
17.02
14.15
10.96
8.05
5.93
4.78
4.43
4.42
4.32
3.86
3.06
2.10
1.18
0.35
-0.49
-1.53
-2.91
-4.61
-6.42
-8.08
-9.41
-10.40
-11.27
-12.37
-13.91
-15.91
-18.06
-19.90
-21.00
-21.16
-20.42
-18.99
-17.02
-14.52
-11.38
-7.50
-2.95
1.97
6.80
11.10
14.60
17.27
19.37
21.29
23.46
26.15
29.34
32.73
35.86
38.31
39.94
41.04
42.19
43.99
46.86
50.74
55.22
59.58
62.99
64.58
63.59
59.59
52.71
43.86
34.51
26.17
19.70
14.84
10.22
3.99
-5.23
-17.70
-32.41
-47.59
-61.47
-72.96
-81.77
-88.22
-92.75
-95.62
-96.91
-96.67
-95.24
-93.22
-91.27
-89.81
-88.67
-87.19
-84.41
-79.58
-72.50
-63.69
-54.14
-44.97
-37.02
-30.53
-25.23
-20.44
-15.54
-10.15
-4.34
1.44
6.59
10.66
13.56
15.55
17.17
18.89
20.95
23.31
25.66
27.73
29.29
30.37
31.11
31.68
32.19
32.67
33.04
33.23
33.23
33.10
32.96
32.87
32.78
32.50
31.74
30.29
28.06
25.18
21.94
18.75
15.96
13.77
12.16
10.87
9.50
7.64
5.04
1.68
-2.26
-6.49
-10.82
-15.15
-19.39
-23.30
-26.41
-28.09
-27.89
-25.74
-22.10
-17.80
-13.70
-10.36
-7.85
-5.85
-3.85
-1.53
1.20
4.12
6.87
9.14
10.78
11.82
12.38
12.63
12.70
12.73
12.82
13.08
13.54
14.18
14.83
15.31
15.45
15.20
14.66
14.06
13.61
13.49
13.67
14.02
14.31
14.31
13.93
13.19
12.23
11.17
10.09
8.96
7.67
6.12
4.33
2.39
0.51
-1.20
-2.73
-4.20
-5.82
-7.76
-10.14
-12.93
-16.06
-19.36
-22.55
-25.35
-27.37
-28.28
-27.85
-26.05
-23.03
-19.17
-14.90
-10.66
-6.78
-3.40
-0.51
2.10
4.67
7.44
10.47
13.68
16.86
19.84
22.48
24.82
26.93
28.87
30.68
32.30
33.75
35.04
36.32
37.70
39.22
40.80
42.21
43.20
43.59
43.33
42.48
41.25
39.81
38.18
36.19
33.45
29.55
24.17
17.28
9.22
0.57
-7.97
-15.87
-22.93
-29.33
-35.50
-41.88
-48.59
-55.33
-61.44
-66.10
-68.75
-69.29
-68.13
-65.91
-63.23
-60.32
-57.13
-53.45
-49.25
-44.84
-40.71
-37.41
-35.13
-33.71
-32.64
-31.36
-29.49
-26.96
-24.00
-20.95
-18.14
-15.70
-13.62
-11.75
-10.00
-8.38
-7.07
-6.32
-6.31
-7.04
-8.30
-9.72
-10.90
-11.61
-11.82
-11.68
-11.39
-11.06
-10.68
-10.18
-9.57
-8.98
-8.71
-9.11
-10.42
-12.65
-15.53
-18.55
-21.09
-22.56
-22.55
-20.94
-17.95
-14.05
-9.88
-5.93
-2.55
0.24
2.59
4.71
6.76
8.77
10.70
12.51
14.21
15.85
17.48
19.10
20.65
22.00
23.01
23.64
23.89
23.85
23.59
23.17
22.56
21.74
20.71
19.51
18.24
16.98
15.77
14.60
13.40
12.10
10.61
8.91
6.95
4.78
2.47
0.17
-1.92
-3.63
-4.89
-5.83
-6.75
-8.05
-10.06
-12.92
-16.47
-20.22
-23.50
-25.67
-26.31
-25.37
-23.15
-20.17
-16.90
-13.61
-10.34
-7.00
-3.55
-0.13
3.00
5.56
7.43
8.75
9.82
10.95
12.28
13.77
15.25
16.59
17.79
18.91
20.03
21.16
22.20
23.00
23.48
23.61
23.43
23.01
22.38
21.53
20.45
19.18
17.75
16.25
14.75
13.28
11.86
10.44
8.97
7.39
5.65
3.73
1.67
-0.50
-2.63
-4.61
-6.33
-7.76
-9.02
-10.34
-11.98
-14.16
-16.93
-20.18
-23.58
-26.68
-29.04
-30.26
-30.09
-28.50
-25.63
-21.83
-17.55
-13.15
-8.94
-4.99
-1.35
2.01
4.99
7.46
9.32
10.61
11.51
12.33
13.31
14.53
15.86
17.01
17.74
17.91
17.60
16.99
16.30
15.61
14.89
13.97
12.73
11.12
9.21
7.20
5.30
3.65
2.31
1.19
0.18
-0.84
-1.92
-3.04
-4.21
-5.42
-6.70
-8.09
-9.57
-11.04
-12.45
-13.82
-15.28
-17.02
-19.20
-21.78
-24.59
-27.36
-29.86
-32.06
-34.07
-36.07
-38.27
-40.78
-43.63
-46.71
-49.75
-52.31
-53.78
-53.57
-51.34
-47.12
-41.40
-34.89
-28.31
-22.13
-16.52
-11.40
-6.56
-1.90
2.55
6.68
10.28
13.29
15.74
17.82
19.75
21.77
23.96
26.27
28.58
30.74
32.70
34.50
36.27
38.06
39.80
41.32
42.36
42.77
42.54
41.87
41.01
40.21
39.55
38.94
38.13
36.85
34.93
32.42
29.61
26.92
24.72
23.18
22.15
21.29
20.23
18.76
16.89
14.84
12.89
11.26
9.99
8.96
8.03
7.02
5.84
4.46
2.89
1.20
-0.48
-1.98
-3.10
-3.56
-3.12
-1.55
1.20
5.00
9.45
14.00
18.11
21.39
23.80
25.55
27.01
28.46
29.97
31.44
32.63
33.43
33.83
33.93
33.84
33.60
33.16
32.47
31.46
30.01
27.82
24.35
18.82
10.53
-0.96
-15.50
-32.37
-50.36
-68.07
-84.08
-97.12
-106.17
-110.61
-110.34
-105.86
-98.21
-88.63
-78.25
-67.69
-57.03
-45.88
-33.59
-19.56
-3.37
15.02
35.10
55.63
74.65
89.81
98.93
100.69
95.13
83.61
68.31
51.49
34.92
19.66
6.14
-5.50
-15.22
-23.15
-29.58
-35.01
-39.97
-44.81
-49.46
-53.45
-56.14
-57.04
-56.06
-53.53
-50.13
-46.59
-43.48
-41.01
-39.02
-37.06
-34.59
-31.19
-26.71
-21.38
-15.68
-10.13
-5.09
-0.69
3.22
6.90
10.52
14.10
17.48
20.47
22.95
24.93
26.48
27.69
28.56
29.11
29.41
29.55
29.64
29.66
29.43
28.70
27.23
25.01
22.22
19.16
16.09
13.07
10.02
6.78
3.33
-0.16
-3.32
-5.73
-7.01
-7.00
-5.86
-4.01
-1.91
0.10
2.04
4.23
7.15
11.11
16.09
21.63
27.00
31.44
34.36
35.43
34.67
32.40
29.25
25.96
23.12
20.93
18.98
16.57
13.05
8.46
3.64
0.03
-0.95
1.42
6.88
14.44
22.92
31.60
40.37
49.53
59.39
69.97
80.98
92.02
102.74
112.79
121.63
128.38
131.97
131.42
126.30
116.83
103.72
87.78
69.63
49.75
28.83
8.01
-11.14
-27.22
-39.57
-48.72
-56.16
-63.67
-72.65
-83.54
-95.88
-108.56
-120.15
-129.01
-133.45
-131.87
-123.21
-107.54
-86.31
-62.25
-38.55
-17.92
-1.84
9.59
17.24
22.27
25.66
27.95
29.43
30.43
31.33
32.55
34.36
36.74
39.42
42.06
44.51
46.78
49.00
51.16
52.92
53.62
52.52
49.18
43.77
37.18
30.58
24.92
20.49
16.79
12.88
7.93
1.73
-5.30
-12.24
-18.27
-22.90
-26.10
-28.16
-29.38
-30.00
-30.14
-30.04
-30.13
-31.07
-33.61
-38.27
-45.07
-53.32
-61.74
-68.78
-73.23
-74.68
-73.61
-71.21
-68.78
-67.26
-66.99
-67.85
-69.43
-71.38
-73.43
-75.25
-76.41
-76.31
-74.44
-70.53
-64.78
-57.75
-50.23
-42.91
-36.21
-30.32
-25.19
-20.72
-16.79
-13.30
-10.13
-7.16
-4.29
-1.44
1.36
3.99
6.30
8.08
9.18
9.58
9.38
8.81
8.19
7.78
7.73
7.95
8.24
8.25
7.73
6.48
4.49
1.91
-1.05
-4.04
-6.68
-8.62
-9.59
-9.50
-8.42
-6.60
-4.30
-1.76
0.86
3.48
6.05
8.47
10.60
12.29
13.41
13.92
13.90
13.54
13.06
12.63
12.36
12.25
12.21
12.06
11.65
10.83
9.55
7.92
6.16
4.55
3.31
2.52
2.05
1.72
1.30
0.74
0.11
-0.39
-0.62
-0.57
-0.46
-0.62
-1.40
-2.96
-5.22
-7.80
-10.29
-12.39
-14.05
-15.50
-17.18
-19.46
-22.52
-26.25
-30.26
-34.05
-37.14
-39.22
-40.13
-39.90
-38.69
-36.71
-34.13
-31.12
-27.81
-24.29
-20.73
-17.26
-13.94
-10.79
-7.79
-4.92
-2.30
-0.15
1.26
1.73
1.22
-0.12
-2.00
-4.12
-6.21
-8.12
-9.74
-11.09
-12.25
-13.44
-14.96
-17.05
-19.74
-22.64
-24.93
-25.58
-23.64
-18.70
-11.06
-1.68
8.10
17.01
24.24
29.57
33.18
35.48
36.79
37.29
37.12
36.47
35.61
34.87
34.44
34.29
34.20
33.82
32.84
31.06
28.27
24.35
19.14
12.66
5.15
-2.84
-10.58
-17.34
-22.66
-26.48
-29.11
-31.00
-32.61
-34.22
-35.83
-37.24
-38.16
-38.26
-37.37
-35.50
-32.87
-29.89
-27.05
-24.73
-23.04
-21.71
-20.17
-17.78
-14.17
-9.59
-4.94
-1.62
-0.85
-3.15
-7.76
-12.77
-15.63
-14.11
-7.20
4.33
17.98
30.23
37.58
37.71
30.26
17.05
1.64
-11.57
-18.68
-17.35
-7.47
8.82
27.93
45.96
59.87
68.29
71.54
71.05
68.50
65.01
60.89
55.85
49.57
42.09
34.02
26.19
19.33
13.84
9.74
6.88
5.18
4.65
5.29
6.90
9.01
10.95
12.12
12.20
11.29
9.83
8.45
7.73
7.97
9.06
10.56
11.80
12.23
11.66
10.42
9.32
9.30
11.10
14.89
20.16
25.98
31.28
35.22
37.45
38.11
37.62
36.48
35.10
33.63
32.03
30.13
27.65
24.39
20.30
15.59
10.69
6.19
2.56
0.10
-1.31
-2.07
-2.67
-3.51
-4.70
-6.08
-7.39
-8.45
-9.27
-10.04
-10.92
-12.05
-13.38
-14.83
-16.37
-18.08
-20.12
-22.61
-25.59
-28.93
-32.41
-35.74
-38.68
-40.98
-42.40
-42.73
-41.81
-39.65
-36.36
-32.25
-27.68
-23.01
-18.52
-14.36
-10.62
-7.34
-4.52
-2.20
-0.41
0.87
1.71
2.26
2.71
3.19
3.78
4.44
5.13
5.82
6.60
7.58
8.87
10.50
12.34
14.13
15.57
16.46
16.71
16.48
16.05
15.74
15.77
16.08
16.40
16.31
15.44
13.62
10.97
7.82
4.50
1.22
-2.01
-5.31
-8.82
-12.59
-16.52
-20.42
-24.05
-27.14
-29.44
-30.73
-30.94
-30.15
-28.60
-26.57
-24.23
-21.44
-17.87
-13.10
-6.81
1.05
10.21
20.12
29.98
38.84
45.72
49.78
50.56
48.13
43.03
36.06
28.00
19.29
10.10
0.46
-9.40
-18.83
-26.82
-32.37
-34.88
-34.44
-31.78
-27.95
-23.93
-20.21
-16.84
-13.61
-10.41
-7.35
-4.73
-2.81
-1.57
-0.63
0.54
2.35
4.91
7.95
11.06
13.84
16.06
17.74
19.03
20.18
21.32
22.47
23.51
24.25
24.59
24.50
24.10
23.65
23.34
23.35
23.73
24.51
25.69
27.29
29.31
31.69
34.22
36.56
38.37
39.34
39.36
38.43
36.74
34.48
31.81
28.77
25.31
21.36
16.88
11.99
6.92
1.98
-2.55
-6.50
-9.76
-12.34
-14.24
-15.54
-16.34
-16.83
-17.21
-17.65
-18.19
-18.74
-19.13
-19.22
-18.94
-18.35
-17.61
-16.92
-16.47
-16.39
-16.72
-17.33
-17.98
-18.34
-18.12
-17.21
-15.68
-13.77
-11.77
-9.89
-8.27
-6.90
-5.79
-4.95
-4.44
-4.35
-4.78
-5.82
-7.42
-9.40
-11.41
-13.12
-14.24
-14.69
-14.62
-14.30
-14.00
-13.88
-13.95
-14.07
-14.12
-14.00
-13.72
-13.38
-13.10
-12.91
-12.76
-12.44
-11.72
-10.40
-8.46
-6.06
-3.54
-1.21
0.74
2.35
3.85
5.40
7.04
8.52
9.38
9.14
7.51
4.55
0.72
-3.23
-6.55
-8.66
-9.27
-8.39
-6.20
-2.91
1.28
6.19
11.67
17.51
23.44
29.07
33.91
37.36
38.83
37.94
34.75
29.85
24.29
19.30
15.78
14.09
13.83
14.07
13.70
11.80
7.92
2.11
-5.14
-13.10
-20.98
-28.01
-33.60
-37.33
-38.99
-38.59
-36.35
-32.67
-28.13
-23.34
-18.83
-14.91
-11.55
-8.54
-5.53
-2.32
1.10
4.49
7.55
10.07
12.00
13.49
14.75
15.93
17.04
17.97
18.46
18.35
17.60
16.38
15.05
14.01
13.55
13.75
14.51
15.55
16.58
17.41
17.93
18.17
18.19
18.11
17.98
17.84
17.65
17.34
16.89
16.37
15.91
15.55
15.21
14.57
13.31
11.21
8.41
5.26
2.26
-0.23
-2.16
-3.70
-5.17
-6.80
-8.73
-11.02
-13.72
-16.83
-20.26
-23.70
-26.66
-28.58
-29.00
-27.74
-24.93
-20.94
-16.32
-11.57
-7.13
-3.19
0.24
3.29
6.15
8.90
11.48
13.74
15.51
16.69
17.32
17.46
17.20
16.60
15.77
14.83
13.96
13.28
12.76
12.32
11.79
11.13
10.39
9.73
9.28
9.01
8.75
8.22
7.20
5.65
3.66
1.45
-0.84
-3.13
-5.46
-7.90
-10.50
-13.21
-15.84
-18.18
-20.06
-21.42
-22.34
-22.93
-23.28
-23.46
-23.57
-23.82
-24.49
-25.79
-27.73
-30.00
-32.06
-33.28
-33.22
-31.66
-28.66
-24.38
-19.04
-12.93
-6.44
-0.14
5.33
9.48
12.17
13.64
14.40
14.98
15.66
16.48
17.26
17.80
17.97
17.87
17.69
17.69
18.03
18.76
19.75
20.76
21.55
21.89
21.68
20.94
19.79
18.40
16.90
15.32
13.63
11.78
9.76
7.70
5.79
4.19
2.96
2.03
1.23
0.41
-0.52
-1.58
-2.77
-4.11
-5.73
-7.77
-10.28
-13.23
-16.42
-19.62
-22.56
-25.11
-27.32
-29.39
-31.60
-34.10
-36.82
-39.39
-41.29
-41.97
-41.09
-38.63
-34.86
-30.22
-25.14
-19.94
-14.84
-9.99
-5.50
-1.52
1.86
4.63
6.87
8.70
10.26
11.59
12.69
13.52
14.09
14.48
14.89
15.45
16.19
17.02
17.75
18.19
18.31
18.18
17.98
17.81
17.69
17.50
17.05
16.28
15.23
14.11
13.15
12.53
12.20
11.94
11.40
10.32
8.56
6.24
3.65
1.13
-1.01
-2.66
-3.79
-4.59
-5.26
-6.04
-7.11
-8.56
-10.35
-12.33
-14.25
-15.87
-16.98
-17.50
-17.52
-17.31
-17.26
-17.75
-19.01
-20.99
-23.36
-25.57
-27.05
-27.32
-26.21
-23.85
-20.62
-17.00
-13.38
-9.98
-6.76
-3.58
-0.29
3.08
6.31
9.06
11.09
12.28
12.78
12.86
12.86
13.02
13.48
14.21
15.08
15.87
16.41
16.61
16.55
16.46
16.62
17.19
18.13
19.17
19.96
20.26
20.04
19.47
18.87
18.54
18.67
19.25
20.08
20.84
21.17
20.85
19.96
18.87
18.18
18.45
19.90
22.30
25.01
27.28
28.60
29.06
29.40
30.84
34.78
42.34
54.06
69.52
87.22
104.52
118.10
124.52
121.34
108.00
86.31
60.13
34.23
12.84
-1.54
-8.66
-9.93
-7.47
-3.15
1.85
6.84
11.19
14.06
14.59
12.29
7.39
0.87
-5.98
-12.17
-17.34
-21.79
-26.11
-30.81
-36.02
-41.60
-47.26
-52.84
-58.28
-63.54
-68.41
-72.44
-75.16
-76.23
-75.74
-74.15
-72.13
-70.10
-68.06
-65.51
-61.73
-56.27
-49.17
-41.01
-32.64
-24.74
-17.60
-11.06
-4.78
1.47
7.61
13.27
18.00
21.54
24.01
25.91
27.87
30.28
33.01
35.35
36.21
34.63
30.28
23.65
15.95
8.65
2.98
-0.38
-1.40
-0.49
1.53
3.70
4.87
3.96
0.29
-6.21
-14.84
-24.30
-33.23
-40.74
-46.66
-51.52
-56.18
-61.36
-67.34
-73.84
-80.13
-85.25
-88.27
-88.47
-85.55
-79.72
-71.70
-62.59
-53.58
-45.70
-39.57
-35.31
-32.68
-31.18
-30.39
-30.01
-30.01
-30.41
-31.17
-32.02
-32.37
-31.41
-28.32
-22.58
-14.10
-3.35
8.81
21.30
33.05
43.16
51.05
56.49
59.68
61.06
61.14
60.25
58.25
54.57
48.37
38.87
25.77
9.47
-8.96
-27.98
-45.93
-61.36
-73.18
-80.74
-83.82
-82.55
-77.46
-69.42
-59.52
-48.89
-38.43
-28.62
-19.43
-10.59
-1.76
7.06
15.58
23.26
29.64
34.51
38.00
40.47
42.31
43.75
44.81
45.34
45.11
43.94
41.90
39.28
36.64
34.59
33.58
33.64
34.39
35.12
35.08
33.74
30.99
27.10
22.52
17.82
13.46
9.78
6.95
4.97
3.67
2.76
1.88
0.67
-1.07
-3.45
-6.34
-9.44
-12.28
-14.36
-15.34
-15.23
-14.50
-13.94
-14.37
-16.20
-19.23
-22.73
-25.75
-27.50
-27.62
-26.24
-23.75
-20.60
-17.13
-13.55
-10.00
-6.61
-3.54
-0.88
1.34
3.20
4.85
6.41
7.94
9.35
10.50
11.19
11.28
10.75
9.70
8.32
6.85
5.57
4.72
4.45
4.74
5.41
6.13
6.58
6.57
6.14
5.52
4.92
4.36
3.63
2.37
0.35
-2.33
-5.22
-7.65
-8.98
-8.96
-7.74
-5.81
-3.74
-1.92
-0.48
0.73
1.91
3.18
4.52
5.76
6.75
7.45
7.90
8.26
8.64
9.11
9.66
10.27
10.90
11.53
12.10
12.59
12.94
13.14
13.22
13.19
13.07
12.84
12.45
11.90
11.23
10.53
9.88
9.33
8.88
8.49
8.06
7.50
6.74
5.74
4.55
3.29
2.10
1.09
0.28
-0.42
-1.18
-2.15
-3.44
-5.06
-6.97
-9.11
-11.35
-13.58
-15.56
-17.05
-17.77
-17.53
-16.31
-14.25
-11.65
-8.86
-6.23
-3.91
-1.95
-0.20
1.52
3.36
5.38
7.49
9.56
11.37
12.78
13.72
14.24
14.49
14.69
15.03
15.56
16.22
16.83
17.22
17.39
17.41
17.45
17.60
17.83
17.95
17.78
17.22
16.31
15.21
14.07
12.96
11.84
10.64
9.31
7.92
6.58
5.37
4.37
3.48
2.61
1.61
0.42
-0.97
-2.50
-4.08
-5.65
-7.17
-8.67
-10.16
-11.69
-13.29
-14.99
-16.83
-18.84
-21.03
-23.35
-25.76
-28.20
-30.73
-33.47
-36.55
-39.95
-43.43
-46.51
-48.57
-49.08
-47.79
-44.85
-40.74
-36.09
-31.39
-26.91
-22.68
-18.55
-14.41
-10.21
-6.11
-2.29
1.04
3.82
6.13
8.23
10.41
12.86
15.61
18.52
21.41
24.09
26.51
28.73
30.78
32.66
34.24
35.36
35.92
35.91
35.49
34.85
34.20
33.64
33.20
32.79
32.29
31.60
30.71
29.66
28.53
27.42
26.35
25.25
24.00
22.44
20.48
18.11
15.45
12.71
10.14
7.89
5.99
4.26
2.49
0.48
-1.80
-4.24
-6.67
-8.92
-11.00
-12.98
-15.04
-17.31
-19.84
-22.60
-25.52
-28.51
-31.42
-34.06
-36.18
-37.47
-37.65
-36.60
-34.34
-31.09
-27.24
-23.19
-19.28
-15.64
-12.23
-8.88
-5.43
-1.84
1.79
5.31
8.61
11.73
14.83
18.09
21.55
25.15
28.64
31.73
34.15
35.68
36.21
35.71
34.34
32.38
30.23
28.27
26.75
25.77
25.23
24.97
24.74
24.27
23.36
21.87
19.82
17.38
14.83
12.56
10.86
9.96
9.95
10.75
12.03
13.31
13.97
13.52
11.74
8.82
5.27
1.64
-1.72
-4.78
-7.68
-10.57
-13.40
-15.96
-18.07
-19.73
-21.23
-22.97
-25.30
-28.32
-31.86
-35.56
-39.00
-41.79
-43.63
-44.34
-43.92
-42.60
-40.90
-39.45
-38.83
-39.31
-40.77
-42.74
-44.61
-45.89
-46.41
-46.38
-46.27
-46.55
-47.44
-48.71
-49.72
-49.61
-47.69
-43.63
-37.61
-30.16
-21.92
-13.43
-5.06
2.99
10.53
17.28
22.97
27.42
30.67
33.05
35.05
37.10
39.39
41.74
43.68
44.71
44.53
43.23
41.23
39.07
37.22
35.82
34.73
33.65
32.32
30.66
28.82
27.13
26.00
25.80
26.81
29.14
32.67
37.10
41.98
46.89
51.56
55.92
60.05
63.92
67.26
69.37
69.28
66.04
59.17
48.91
36.28
22.81
10.05
-0.82
-9.30
-15.44
-19.66
-22.45
-24.20
-25.20
-25.69
-25.98
-26.29
-26.77
-27.29
-27.57
-27.24
-26.06
-24.07
-21.48
-18.69
-16.06
-13.88
-12.25
-11.22
-10.72
-10.65
-10.88
-11.25
-11.60
-11.84
-11.94
-11.97
-12.02
-12.19
-12.43
-12.60
-12.50
-11.99
-11.09
-10.03
-9.17
-8.83
-9.09
-9.79
-10.60
-11.12
-11.15
-10.75
-10.16
-9.74
-9.83
-10.59
-11.97
-13.75
-15.59
-17.16
-18.24
-18.83
-19.14
-19.43
-19.88
-20.49
-21.04
-21.23
-20.83
-19.78
-18.20
-16.31
-14.28
-12.19
-10.06
-7.96
-6.00
-4.38
-3.27
-2.72
-2.63
-2.76
-2.89
-2.86
-2.65
-2.32
-1.97
-1.64
-1.30
-0.85
-0.17
0.79
1.97
3.17
4.14
4.61
4.51
3.95
3.19
2.51
1.97
1.38
0.45
-1.06
-3.09
-5.22
-6.96
-7.95
-8.19
-7.98
-7.74
-7.72
-7.87
-7.97
-7.77
-7.22
-6.51
-5.96
-5.89
-6.47
-7.79
-9.78
-12.28
-15.00
-17.54
-19.46
-20.40
-20.20
-18.95
-16.96
-14.60
-12.16
-9.81
-7.59
-5.51
-3.58
-1.85
-0.34
0.95
2.05
3.00
3.80
4.42
4.82
5.00
5.08
5.25
5.68
6.48
7.63
9.00
10.39
11.63
12.63
13.35
13.79
13.98
13.94
13.72
13.35
12.91
12.41
11.81
11.01
9.92
8.58
7.16
5.92
5.03
4.49
4.07
3.43
2.35
0.79
-1.07
-2.90
-4.43
-5.67
-6.79
-8.13
-10.00
-12.58
-15.76
-19.21
-22.43
-24.89
-26.21
-26.19
-24.94
-22.71
-19.82
-16.61
-13.28
-10.01
-6.94
-4.20
-1.92
-0.17
1.07
1.93
2.58
3.23
3.98
4.88
5.93
7.10
8.41
9.92
11.73
13.84
16.15
18.42
20.40
21.98
23.27
24.58
26.31
28.80
32.17
36.36
41.09
45.94
50.40
53.88
55.76
55.58
53.24
49.01
43.57
37.69
31.99
26.82
22.18
17.95
14.01
10.32
6.81
3.34
-0.41
-4.83
-10.13
-16.23
-22.72
-28.95
-34.28
-38.24
-40.60
-41.36
-40.62
-38.59
-35.51
-31.70
-27.48
-23.24
-19.29
-15.84
-12.94
-10.55
-8.56
-6.85
-5.30
-3.87
-2.51
-1.28
-0.25
0.48
0.90
1.10
1.35
1.93
3.07
4.76
6.71
8.47
9.58
9.84
9.30
8.26
7.08
6.02
5.21
4.69
4.45
4.45
4.62
4.77
4.69
4.18
3.16
1.76
0.22
-1.17
-2.24
-2.90
-3.21
-3.32
-3.43
-3.80
-4.60
-5.91
-7.56
-9.32
-10.93
-12.25
-13.31
-14.25
-15.30
-16.60
-18.25
-20.23
-22.38
-24.39
-25.81
-26.19
-25.19
-22.81
-19.38
-15.56
-11.96
-8.99
-6.72
-4.92
-3.29
-1.65
-0.03
1.34
2.23
2.58
2.56
2.57
3.00
4.12
5.86
7.96
10.00
11.71
13.00
14.01
14.95
15.92
16.88
17.64
17.99
17.86
17.31
16.50
15.65
14.84
14.09
13.33
12.46
11.40
10.14
8.70
7.17
5.64
4.19
2.88
1.67
0.50
-0.77
-2.22
-3.88
-5.71
-7.62
-9.57
-11.61
-13.78
-16.09
-18.38
-20.33
-21.49
-21.49
-20.19
-17.75
-14.56
-11.12
-7.82
-4.87
-2.28
0.05
2.21
4.19
5.91
7.26
8.16
8.70
9.04
9.37
9.84
10.45
11.13
11.75
12.22
12.59
12.98
13.48
14.08
14.63
14.91
14.75
14.09
13.02
11.77
10.57
9.58
8.83
8.30
7.86
7.43
6.97
6.46
5.90
5.24
4.38
3.24
1.85
0.29
-1.28
-2.71
-4.01
-5.23
-6.46
-7.69
-8.83
-9.73
-10.38
-10.99
-11.93
-13.58
-16.00
-18.91
-21.65
-23.50
-23.96
-22.90
-20.59
-17.50
-14.10
-10.70
-7.47
-4.49
-1.84
0.43
2.25
3.62
4.61
5.31
5.87
6.40
7.05
7.91
8.99
10.17
11.28
12.12
12.63
12.90
13.17
13.71
14.64
15.87
17.20
18.39
19.33
20.03
20.50
20.65
20.17
18.62
15.70
11.44
6.27
0.90
-3.91
-7.66
-10.21
-11.73
-12.54
-12.94
-13.15
-13.32
-13.55
-13.93
-14.47
-15.14
-15.85
-16.46
-16.86
-17.01
-16.98
-16.93
-17.05
-17.52
-18.44
-19.65
-20.77
-21.26
-20.61
-18.51
-15.01
-10.48
-5.50
-0.62
3.80
7.61
10.83
13.61
16.03
18.17
19.99
21.43
22.44
22.98
23.09
22.86
22.45
22.03
21.72
21.52
21.30
20.92
20.30
19.46
18.52
17.64
16.89
16.19
15.36
14.25
12.81
11.12
9.40
7.82
6.50
5.44
4.56
3.75
2.97
2.22
1.53
0.88
0.14
-0.84
-2.21
-3.96
-5.92
-7.85
-9.51
-10.76
-11.64
-12.34
-13.07
-14.04
-15.36
-17.09
-19.14
-21.37
-23.52
-25.20
-26.07
-25.88
-24.58
-22.33
-19.46
-16.27
-13.00
-9.76
-6.52
-3.28
-0.07
2.92
5.48
7.41
8.71
9.50
10.03
10.50
11.01
11.51
11.89
12.07
12.08
12.08
12.23
12.61
13.20
13.77
14.07
13.89
13.11
11.84
10.30
8.82
7.65
6.87
6.36
5.85
5.09
3.94
2.47
0.88
-0.65
-2.03
-3.33
-4.69
-6.20
-7.84
-9.46
-10.90
-12.08
-13.04
-13.97
-15.05
-16.41
-18.02
-19.77
-21.45
-22.83
-23.69
-23.83
-23.15
-21.58
-19.19
-16.14
-12.69
-9.16
-5.83
-2.96
-0.67
1.00
2.19
3.07
3.90
4.90
6.19
7.78
9.50
11.10
12.32
13.00
13.18
13.11
13.15
13.63
14.77
16.57
18.82
21.12
23.04
24.15
24.16
23.02
20.95
18.49
16.38
15.32
15.73
17.53
20.15
22.69
24.22
24.07
22.03
18.35
13.61
8.47
3.52
-0.90
-4.66
-7.77
-10.33
-12.51
-14.42
-16.20
-17.87
-19.44
-20.83
-21.99
-22.85
-23.37
-23.44
-22.88
-21.40
-18.63
-14.33
-8.45
-1.22
6.93
15.42
23.69
31.25
37.74
42.95
46.94
50.12
53.12
56.68
61.26
66.80
72.50
76.98
78.69
76.44
69.82
59.39
46.45
32.58
19.17
7.08
-3.39
-12.31
-19.80
-25.83
-30.15
-32.49
-32.73
-31.04
-27.89
-23.87
-19.57
-15.39
-11.62
-8.44
-6.03
-4.59
-4.25
-5.00
-6.67
-9.01
-11.77
-14.84
-18.29
-22.29
-27.01
-32.53
-38.73
-45.30
-51.81
-57.68
-62.37
-65.44
-66.65
-66.01
-63.73
-60.18
-55.80
-50.92
-45.87
-40.85
-36.04
-31.53
-27.40
-23.73
-20.52
-17.79
-15.52
-13.67
-12.13
-10.75
-9.30
-7.61
-5.54
-3.08
-0.31
2.66
5.69
8.69
11.53
14.10
16.28
18.06
19.53
20.91
22.43
24.28
26.50
28.97
31.55
34.13
36.71
39.42
42.29
45.31
48.24
50.85
52.92
54.43
55.60
56.73
58.03
59.43
60.54
60.73
59.43
56.24
51.13
44.37
36.32
27.35
17.67
7.48
-3.03
-13.43
-23.23
-31.89
-39.03
-44.52
-48.51
-51.30
-53.21
-54.49
-55.24
-55.45
-55.08
-54.11
-52.58
-50.55
-48.18
-45.60
-42.88
-39.95
-36.65
-32.73
-28.02
-22.57
-16.70
-10.93
-5.84
-1.95
0.55
1.71
1.81
1.21
0.18
-1.16
-2.87
-5.03
-7.68
-10.67
-13.71
-16.45
-18.59
-20.07
-20.98
-21.56
-21.99
-22.35
-22.56
-22.54
-22.23
-21.71
-21.15
-20.76
-20.74
-21.17
-22.06
-23.32
-24.76
-26.13
-27.12
-27.50
-27.10
-25.83
-23.72
-20.87
-17.43
-13.59
-9.62
-5.77
-2.30
0.62
2.99
4.91
6.56
8.10
9.64
11.17
12.60
13.85
14.91
15.85
16.76
17.73
18.77
19.84
20.79
21.51
21.89
21.86
21.39
20.51
19.31
17.92
16.49
15.08
13.73
12.36
10.87
9.22
7.49
5.84
4.42
3.25
2.17
0.98
-0.44
-2.06
-3.64
-4.94
-5.84
-6.50
-7.19
-8.21
-9.65
-11.39
-13.19
-14.76
-15.91
-16.49
-16.35
-15.29
-13.22
-10.18
-6.44
-2.48
1.25
4.37
6.76
8.47
9.66
10.48
11.02
11.36
11.53
11.67
11.86
12.19
12.62
13.01
13.23
13.17
12.86
12.41
11.96
11.61
11.34
11.06
10.70
10.22
9.62
8.90
7.97
6.82
5.46
4.05
2.86
2.17
2.07
2.43
2.90
3.04
2.57
1.43
-0.14
-1.79
-3.20
-4.27
-5.10
-5.94
-7.04
-8.50
-10.31
-12.39
-14.67
-17.08
-19.49
-21.65
-23.10
-23.39
-22.24
-19.73
-16.30
-12.62
-9.27
-6.53
-4.33
-2.35
-0.28
2.00
4.31
6.32
7.73
8.41
8.51
8.39
8.47
8.96
9.82
10.71
11.25
11.22
10.68
10.00
9.63
9.86
10.62
11.53
12.12
12.06
11.38
10.37
9.42
8.75
8.42
8.24
7.98
7.54
6.90
6.16
5.39
4.61
3.74
2.70
1.44
-0.05
-1.64
-3.22
-4.60
-5.72
-6.57
-7.31
-8.23
-9.58
-11.46
-13.68
-15.79
-17.17
-17.33
-16.10
-13.77
-10.89
-8.15
-6.01
-4.53
-3.46
-2.39
-1.13
0.31
1.67
2.69
3.30
3.56
3.69
3.82
3.97
4.06
3.99
3.70
3.28
2.81
2.42
2.19
2.18
2.41
2.77
3.10
3.13
2.65
1.65
0.34
-0.90
-1.70
-1.88
-1.57
-1.04
-0.67
-0.66
-0.99
-1.50
-1.94
-2.15
-2.10
-1.83
-1.43
-1.01
-0.66
-0.49
-0.67
-1.29
-2.35
-3.58
-4.51
-4.55
-3.22
-0.30
3.93
8.86
13.71
17.82
20.85
22.83
24.07
25.04
26.09
27.42
28.97
30.56
31.93
32.96
33.73
34.55
35.83
37.91
40.89
44.54
48.34
51.51
53.19
52.68
49.57
44.05
36.91
29.43
22.94
18.35
15.63
13.87
11.49
7.00
-0.45
-10.71
-22.80
-35.42
-47.42
-58.11
-67.19
-74.60
-80.24
-83.87
-85.35
-84.67
-82.23
-78.66
-74.70
-70.82
-67.08
-63.19
-58.72
-53.43
-47.45
-41.32
-35.65
-30.90
-27.10
-23.93
-20.95
-17.86
-14.79
-12.13
-10.43
-10.03
-10.88
-12.52
-14.19
-15.11
-14.71
-12.84
-9.73
-6.01
-2.36
0.69
2.84
4.14
4.80
5.07
5.10
4.93
4.54
4.01
3.52
3.28
3.48
4.15
5.09
5.96
6.43
6.33
5.76
5.06
4.61
4.71
5.34
6.24
6.93
7.01
6.26
4.69
2.55
0.16
-2.11
-3.98
-5.28
-5.88
-5.81
-5.11
-3.89
-2.24
-0.20
2.22
4.95
7.86
10.72
13.26
15.29
16.75
17.71
18.34
18.82
19.24
19.64
19.97
20.20
20.35
20.47
20.66
20.93
21.24
21.44
21.40
21.02
20.32
19.46
18.58
17.80
17.11
16.40
15.54
14.46
13.22
11.93
10.74
9.68
8.73
7.75
6.58
5.12
3.40
1.53
-0.26
-1.77
-2.91
-3.73
-4.45
-5.38
-6.81
-8.92
-11.62
-14.63
-17.43
-19.49
-20.36
-19.86
-18.10
-15.41
-12.22
-8.88
-5.63
-2.55
0.31
2.91
5.14
6.94
8.27
9.21
9.90
10.50
11.10
11.70
12.25
12.69
12.99
13.25
13.56
13.98
14.50
15.00
15.30
15.25
14.81
14.06
13.16
12.28
11.49
10.79
10.14
9.48
8.80
8.13
7.52
6.96
6.48
6.01
5.51
4.94
4.23
3.34
2.24
1.02
-0.23
-1.36
-2.33
-3.20
-4.18
-5.48
-7.22
-9.37
-11.66
-13.72
-15.11
-15.48
-14.69
-12.78
-10.06
-6.95
-3.87
-1.14
1.11
2.91
4.39
5.65
6.72
7.53
8.07
8.35
8.41
8.32
8.10
7.75
7.24
6.61
5.90
5.21
4.57
3.92
3.12
2.00
0.44
-1.56
-3.88
-6.36
-8.78
-11.04
-13.14
-15.10
-17.02
-19.01
-21.18
-23.56
-26.12
-28.64
-30.77
-32.03
-31.98
-30.38
-27.30
-23.16
-18.55
-14.14
-10.39
-7.59
-5.77
-4.87
-4.74
-5.20
-5.98
-6.71
-6.90
-6.04
-3.74
0.16
5.46
11.69
18.24
24.54
30.12
34.73
38.22
40.49
41.41
40.94
39.18
36.52
33.54
30.90
29.08
28.23
28.12
28.27
28.25
27.74
26.70
25.27
23.66
22.10
20.73
19.56
18.53
17.48
16.18
14.49
12.41
10.14
7.97
6.23
5.04
4.29
3.71
2.94
1.81
0.27
-1.57
-3.58
-5.73
-8.04
-10.52
-13.10
-15.66
-18.04
-20.15
-22.00
-23.54
-24.67
-25.11
-24.53
-22.70
-19.62
-15.57
-11.01
-6.49
-2.44
0.88
3.39
5.21
6.57
7.75
8.97
10.35
11.81
13.21
14.39
15.27
15.87
16.34
16.81
17.37
18.01
18.60
18.96
18.89
18.28
17.13
15.52
13.68
11.83
10.15
8.70
7.49
6.45
5.53
4.69
3.90
3.13
2.31
1.37
0.26
-1.04
-2.46
-3.89
-5.22
-6.37
-7.31
-8.06
-8.62
-9.05
-9.44
-10.01
-10.98
-12.48
-14.50
-16.71
-18.62
-19.73
-19.75
-18.65
-16.70
-14.23
-11.48
-8.57
-5.51
-2.39
0.61
3.22
5.18
6.43
7.07
7.31
7.39
7.46
7.61
7.84
8.09
8.31
8.42
8.42
8.36
8.33
8.43
8.61
8.68
8.36
7.42
5.85
3.88
1.89
0.25
-0.88
-1.58
-2.10
-2.69
-3.50
-4.48
-5.50
-6.45
-7.28
-8.05
-8.88
-9.83
-10.91
-12.09
-13.36
-14.72
-16.21
-17.87
-19.67
-21.47
-23.01
-23.97
-24.01
-22.94
-20.77
-17.77
-14.35
-10.99
-8.01
-5.50
-3.36
-1.39
0.53
2.35
3.90
4.95
5.45
5.48
5.30
5.20
5.34
5.75
6.29
6.77
7.04
7.04
6.80
6.41
6.00
5.64
5.30
4.86
4.19
3.24
2.05
0.84
-0.21
-0.95
-1.44
-1.85
-2.40
-3.23
-4.30
-5.45
-6.45
-7.18
-7.63
-7.99
-8.47
-9.30
-10.56
-12.22
-14.11
-15.97
-17.51
-18.40
-18.36
-17.19
-14.85
-11.56
-7.73
-3.81
-0.18
3.03
5.90
8.58
11.22
13.72
15.94
17.68
18.87
19.64
20.19
20.72
21.31
21.94
22.46
22.76
22.79
22.59
22.30
22.06
21.94
21.81
21.42
20.44
18.64
15.99
12.69
9.06
5.42
1.97
-1.24
-4.25
-7.07
-9.65
-11.89
-13.65
-14.87
-15.59
-15.93
-16.16
-16.54
-17.34
-18.69
-20.58
-22.80
-25.02
-26.85
-27.93
-28.05
-27.12
-25.22
-22.56
-19.40
-16.00
-12.59
-9.34
-6.37
-3.76
-1.56
0.27
1.76
3.00
4.08
5.10
6.10
7.10
8.07
8.99
9.83
10.59
11.32
12.07
12.83
13.58
14.24
14.73
15.02
15.09
14.94
14.55
13.84
12.76
11.34
9.74
8.17
6.81
5.75
4.88
4.06
3.10
1.94
0.61
-0.75
-2.03
-3.12
-4.00
-4.68
-5.17
-5.54
-5.86
-6.29
-6.93
-7.84
-8.90
-9.79
-10.15
-9.58
-7.88
-5.10
-1.55
2.31
5.92
8.86
10.90
12.02
12.39
12.27
11.92
11.49
11.05
10.60
10.13
9.65
9.20
8.80
8.45
8.14
7.87
7.61
7.36
7.05
6.58
5.82
4.74
3.34
1.72
0.03
-1.63
-3.15
-4.49
-5.67
-6.74
-7.77
-8.86
-10.03
-11.21
-12.27
-13.06
-13.58
-13.95
-14.45
-15.40
-16.91
-18.90
-20.97
-22.62
-23.37
-22.95
-21.35
-18.83
-15.73
-12.41
-9.14
-6.09
-3.32
-0.87
1.26
3.06
4.55
5.79
6.83
7.73
8.55
9.31
10.07
10.81
11.55
12.25
12.84
13.28
13.53
13.67
13.74
13.81
13.91
14.01
14.04
13.96
13.74
13.41
12.98
12.48
11.93
11.32
10.72
10.18
9.81
9.69
9.83
10.10
10.24
9.94
8.96
7.30
5.26
3.39
2.35
2.72
4.78
8.36
12.85
17.25
20.58
22.12
21.77
20.00
17.63
15.32
13.19
10.78
7.23
1.83
-5.57
-14.43
-23.75
-32.50
-39.98
-45.91
-50.28
-53.16
-54.49
-54.14
-52.08
-48.52
-44.00
-39.26
-34.97
-31.50
-28.80
-26.47
-24.08
-21.30
-18.18
-15.05
-12.31
-10.30
-9.10
-8.52
-8.20
-7.79
-7.07
-6.03
-4.90
-3.98
-3.59
-3.89
-4.88
-6.44
-8.40
-10.61
-12.88
-15.04
-16.83
-17.96
-18.18
-17.38
-15.60
-13.05
-10.03
-6.82
-3.70
-0.89
1.50
3.46
5.11
6.60
8.10
9.61
11.02
12.17
12.96
13.36
13.50
13.55
13.62
13.78
14.00
14.23
14.43
14.54
14.49
14.25
13.81
13.17
12.39
11.52
10.58
9.54
8.38
7.16
5.95
4.90
4.08
3.48
2.99
2.46
1.74
0.77
-0.46
-1.92
-3.56
-5.40
-7.47
-9.81
-12.41
-15.08
-17.50
-19.21
-19.78
-19.02
-17.05
-14.33
-11.43
-8.83
-6.70
-4.92
-3.19
-1.32
0.68
2.56
4.00
4.78
4.97
4.88
4.99
5.63
6.88
8.52
10.15
11.41
12.09
12.26
12.11
11.87
11.64
11.37
10.98
10.40
9.68
8.93
8.29
7.84
7.55
7.29
6.92
6.32
5.45
4.35
3.07
1.65
0.15
-1.43
-3.06
-4.77
-6.56
-8.47
-10.45
-12.34
-13.87
-14.67
-14.48
-13.21
-11.03
-8.29
-5.40
-2.64
-0.17
1.94
3.71
5.08
6.05
6.67
7.09
7.46
8.01
8.86
10.07
11.61
13.37
15.15
16.71
17.84
18.43
18.55
18.38
18.13
17.95
17.82
17.59
17.04
16.01
14.46
12.46
10.20
7.83
5.50
3.26
1.11
-0.98
-3.04
-5.03
-6.89
-8.57
-10.11
-11.68
-13.52
-15.81
-18.62
-21.78
-24.97
-27.72
-29.57
-30.17
-29.29
-26.96
-23.42
-19.09
-14.46
-9.94
-5.78
-1.99
1.52
4.80
7.74
10.16
11.87
12.85
13.29
13.50
13.80
14.33
15.04
15.76
16.30
16.57
16.56
16.36
16.04
15.67
15.20
14.57
13.67
12.41
10.78
8.93
7.13
5.67
4.75
4.31
4.08
3.65
2.68
1.14
-0.79
-2.67
-4.18
-5.14
-5.72
-6.27
-7.17
-8.64
-10.66
-13.07
-15.62
-18.12
-20.44
-22.47
-24.00
-24.71
-24.28
-22.55
-19.63
-15.93
-12.06
-8.56
-5.76
-3.68
-2.09
-0.68
0.78
2.33
3.90
5.26
6.26
6.86
7.19
7.49
7.97
8.75
9.78
10.90
11.90
12.62
12.97
12.94
12.59
12.02
11.31
10.56
9.82
9.10
8.38
7.65
6.94
6.33
5.92
5.74
5.65
5.45
4.91
3.95
2.65
1.22
-0.12
-1.26
-2.25
-3.26
-4.40
-5.63
-6.71
-7.28
-6.92
-5.39
-2.67
1.00
5.23
9.58
13.73
17.51
20.85
23.76
26.22
28.30
30.15
32.04
34.30
37.08
40.16
42.84
44.15
43.21
39.66
33.86
26.65
19.01
11.53
4.23
-3.25
-11.37
-20.29
-29.86
-39.73
-49.49
-58.79
-67.21
-74.23
-79.15
-81.42
-80.78
-77.51
-72.31
-66.06
-59.54
-53.31
-47.75
-43.15
-39.75
-37.71
-36.94
-37.07
-37.53
-37.64
-36.87
-34.96
-31.85
-27.74
-22.90
-17.67
-12.35
-7.22
-2.50
1.72
5.43
8.76
11.88
14.95
18.02
21.08
24.01
26.65
28.91
30.67
31.96
32.84
33.43
33.85
34.15
34.27
34.07
33.43
32.22
30.50
28.36
25.93
23.35
20.67
17.95
15.23
12.57
9.99
7.56
5.33
3.30
1.49
-0.13
-1.61
-3.07
-4.57
-6.25
-8.17
-10.39
-12.87
-15.42
-17.75
-19.46
-20.22
-19.78
-18.18
-15.63
-12.51
-9.20
-6.02
-3.16
-0.73
1.28
2.92
4.32
5.58
6.78
7.91
8.93
9.82
10.56
11.20
11.81
12.38
12.90
13.31
13.61
13.86
14.11
14.38
14.61
14.66
14.39
13.74
12.74
11.53
10.32
9.32
8.63
8.21
7.91
7.43
6.52
5.08
3.24
1.30
-0.40
-1.65
-2.53
-3.35
-4.51
-6.31
-8.81
-11.76
-14.68
-17.04
-18.38
-18.47
-17.30
-15.09
-12.20
-8.97
-5.66
-2.38
0.76
3.67
6.15
7.99
9.08
9.46
9.39
9.23
9.34
9.84
10.65
11.53
12.24
12.66
12.85
12.96
13.13
13.43
13.75
13.96
13.88
13.44
12.65
11.64
10.60
9.70
9.09
8.79
8.72
8.69
8.46
7.85
6.84
5.51
4.10
2.79
1.69
0.69
-0.42
-1.91
-3.92
-6.41
-9.12
-11.72
-13.81
-15.09
-15.36
-14.55
-12.72
-10.12
-7.12
-4.13
-1.56
0.37
1.56
2.17
2.45
2.73
3.31
4.29
5.63
7.07
8.31
9.11
9.41
9.31
9.01
8.69
8.38
8.07
7.64
7.06
6.32
5.46
4.53
3.52
2.48
1.44
0.44
-0.52
-1.53
-2.72
-4.22
-6.04
-8.10
-10.19
-12.17
-14.00
-15.80
-17.74
-20.01
-22.68
-25.63
-28.59
-31.17
-33.06
-33.99
-33.94
-33.03
-31.49
-29.56
-27.35
-24.94
-22.32
-19.62
-17.01
-14.75
-12.98
-11.62
-10.45
-9.17
-7.64
-5.95
-4.33
-2.96
-1.84
-0.77
0.58
2.38
4.60
6.98
9.18
10.93
12.12
12.81
13.20
13.51
13.93
14.63
15.63
16.87
18.13
19.13
19.64
19.58
19.02
18.17
17.27
16.50
15.88
15.27
14.46
13.19
11.36
9.00
6.30
3.57
1.12
-0.73
-1.72
-1.69
-0.55
1.61
4.59
8.01
11.46
14.53
16.95
18.61
19.57
19.99
20.03
19.89
19.71
19.60
19.63
19.76
19.89
19.91
19.80
19.59
19.37
19.21
19.07
18.82
18.29
17.40
16.20
14.87
13.60
12.57
11.77
11.13
10.48
9.71
8.74
7.57
6.19
4.62
2.90
1.09
-0.72
-2.49
-4.23
-6.05
-8.10
-10.49
-13.21
-16.10
-18.87
-21.20
-22.77
-23.35
-22.85
-21.30
-18.88
-15.92
-12.77
-9.70
-6.82
-4.05
-1.26
1.64
4.48
6.99
8.82
9.79
10.00
9.73
9.41
9.32
9.57
10.02
10.41
10.51
10.17
9.40
8.32
7.13
5.95
4.85
3.77
2.63
1.39
0.02
-1.37
-2.63
-3.62
-4.32
-4.79
-5.25
-5.86
-6.74
-7.88
-9.14
-10.43
-11.67
-12.96
-14.49
-16.39
-18.64
-20.94
-22.85
-23.85
-23.64
-22.15
-19.63
-16.49
-13.23
-10.20
-7.59
-5.42
-3.55
-1.85
-0.23
1.29
2.62
3.63
4.22
4.38
4.16
3.69
3.12
2.61
2.29
2.21
2.36
2.61
2.77
2.62
2.05
1.07
-0.21
-1.67
-3.19
-4.79
-6.47
-8.20
-9.92
-11.50
-12.94
-14.34
-15.94
-17.97
-20.49
-23.30
-26.03
-28.33
-30.01
-31.23
-32.34
-33.73
-35.56
-37.66
-39.57
-40.67
-40.46
-38.72
-35.54
-31.26
-26.35
-21.15
-15.92
-10.75
-5.69
-0.82
3.68
7.64
10.99
13.78
16.18
18.38
20.48
22.37
23.88
24.83
25.18
25.07
24.75
24.48
24.41
24.54
24.77
24.93
24.94
24.74
24.36
23.89
23.42
23.06
22.82
22.64
22.31
21.60
20.36
18.61
16.54
14.41
12.40
10.55
8.72
6.69
4.30
1.49
-1.62
-4.80
-7.70
-9.88
-10.97
-10.73
-9.22
-6.81
-4.08
-1.57
0.40
1.86
3.10
4.42
6.00
7.73
9.42
10.80
11.74
12.29
12.59
12.84
13.18
13.71
14.44
15.33
16.31
17.27
18.12
18.78
19.24
19.46
19.46
19.18
18.57
17.57
16.20
14.52
12.66
10.72
8.80
6.94
5.13
3.38
1.66
-0.06
-1.82
-3.66
-5.56
-7.54
-9.59
-11.74
-14.00
-16.30
-18.47
-20.20
-21.16
-21.13
-20.10
-18.28
-16.01
-13.63
-11.31
-9.12
-7.01
-5.05
-3.36
-2.11
-1.45
-1.31
-1.46
-1.62
-1.53
-1.13
-0.53
0.03
0.38
0.47
0.41
0.33
0.33
0.33
0.19
-0.24
-1.01
-2.02
-3.08
-4.03
-4.81
-5.45
-6.06
-6.74
-7.52
-8.35
-9.12
-9.75
-10.22
-10.71
-11.40
-12.56
-14.31
-16.56
-18.93
-20.90
-21.95
-21.72
-20.18
-17.64
-14.61
-11.61
-9.02
-6.92
-5.16
-3.49
-1.65
0.44
2.69
4.82
6.53
7.61
8.04
7.98
7.67
7.38
7.25
7.35
7.63
8.01
8.44
8.90
9.39
9.88
10.27
10.42
10.19
9.53
8.52
7.38
6.37
5.65
5.20
4.86
4.33
3.40
2.02
0.36
-1.31
-2.70
-3.75
-4.56
-5.43
-6.64
-8.24
-10.03
-11.52
-12.21
-11.75
-10.09
-7.51
-4.41
-1.18
1.96
4.94
7.74
10.30
12.48
14.18
15.37
16.19
16.87
17.69
18.84
20.33
22.07
23.93
25.75
27.44
28.92
30.21
31.33
32.32
33.23
34.12
35.05
36.03
37.05
38.08
39.10
40.10
41.01
41.74
42.08
41.73
40.34
37.55
33.14
27.10
19.58
10.92
1.48
-8.46
-18.77
-29.43
-40.35
-51.21
-61.44
-70.23
-76.72
-80.33
-80.88
-78.70
-74.45
-68.95
-62.87
-56.65
-50.48
-44.43
-38.59
-33.13
-28.27
-24.15
-20.82
-18.04
-15.54
-13.06
-10.46
-7.82
-5.32
-3.13
-1.37
-0.03
0.96
1.69
2.28
2.79
3.32
3.91
4.56
5.17
5.56
5.57
5.11
4.23
3.16
2.16
1.46
1.13
1.09
1.06
0.76
-0.09
-1.59
-3.66
-6.14
-8.68
-10.96
-12.58
-13.26
-12.77
-11.08
-8.38
-5.00
-1.39
2.06
5.07
7.52
9.41
10.81
11.83
12.56
13.15
13.66
14.15
14.54
14.74
14.66
14.36
14.02
13.86
14.04
14.51
15.10
15.57
15.73
15.60
15.24
14.81
14.34
13.83
13.19
12.42
11.47
10.38
9.16
7.84
6.49
5.19
4.02
2.98
1.96
0.75
-0.87
-2.96
-5.38
-7.75
-9.67
-10.80
-11.04
-10.44
-9.16
-7.32
-4.96
-2.19
0.80
3.65
5.93
7.30
7.69
7.37
6.74
6.20
5.89
5.73
5.50
5.04
4.32
3.48
2.69
2.07
1.63
1.29
1.01
0.73
0.46
0.20
-0.10
-0.48
-1.03
-1.81
-2.87
-4.20
-5.70
-7.18
-8.42
-9.22
-9.54
-9.47
-9.25
-9.12
-9.26
-9.79
-10.75
-12.09
-13.69
-15.34
-16.75
-17.56
-17.52
-16.50
-14.59
-12.05
-9.18
-6.26
-3.43
-0.73
1.91
4.49
6.95
9.17
10.97
12.27
13.06
13.51
13.80
14.09
14.46
14.90
15.34
15.74
16.09
16.32
16.31
15.83
14.65
12.65
9.93
6.85
3.96
1.78
0.58
0.31
0.56
0.78
0.56
-0.23
-1.44
-2.76
-3.91
-4.81
-5.55
-6.28
-7.14
-8.12
-9.23
-10.54
-12.16
-14.19
-16.56
-18.94
-20.80
-21.59
-21.01
-19.10
-16.21
-12.84
-9.50
-6.57
-4.32
-2.90
-2.34
-2.51
-3.12
-3.77
-4.10
-3.92
-3.29
-2.46
-1.74
-1.33
-1.24
-1.37
-1.56
-1.68
-1.67
-1.54
-1.28
-0.90
-0.43
0.01
0.31
0.36
0.13
-0.31
-0.81
-1.22
-1.45
-1.52
-1.50
-1.50
-1.58
-1.82
-2.29
-3.04
-4.05
-5.17
-6.08
-6.32
-5.56
-3.74
-1.17
1.58
3.96
5.71
6.92
7.99
9.28
10.90
12.56
13.77
14.10
13.44
12.07
10.53
9.36
8.89
9.05
9.54
9.96
10.02
9.65
8.99
8.20
7.35
6.35
5.00
3.24
1.23
-0.69
-2.12
-2.83
-2.94
-2.83
-2.94
-3.60
-4.85
-6.56
-8.49
-10.45
-12.31
-13.97
-15.29
-16.10
-16.21
-15.50
-14.03
-11.97
-9.64
-7.35
-5.29
-3.58
-2.23
-1.26
-0.75
-0.86
-1.65
-3.06
-4.74
-6.24
-7.09
-7.02
-6.13
-4.75
-3.28
-1.98
-0.90
0.05
1.02
2.00
2.92
3.58
3.85
3.67
3.10
2.26
1.30
0.41
-0.35
-0.95
-1.53
-2.24
-3.18
-4.28
-5.24
-5.66
-5.14
-3.56
-1.09
1.82
4.71
7.23
9.27
10.95
12.40
13.65
14.50
14.71
14.10
12.76
11.08
9.58
8.70
8.53
8.86
9.24
9.28
8.80
7.87
6.78
5.75
4.94
4.32
3.80
3.17
2.31
1.08
-0.55
-2.47
-4.51
-6.44
-8.11
-9.53
-10.90
-12.46
-14.37
-16.62
-18.97
-21.13
-22.81
-23.85
-24.21
-23.93
-23.07
-21.67
-19.84
-17.68
-15.37
-13.04
-10.82
-8.76
-6.86
-5.13
-3.57
-2.26
-1.23
-0.51
-0.00
0.47
1.09
1.94
2.94
3.93
4.68
5.09
5.20
5.15
5.02
4.80
4.33
3.46
2.11
0.38
-1.49
-3.27
-4.81
-6.14
-7.38
-8.70
-10.20
-11.94
-13.85
-15.83
-17.79
-19.65
-21.36
-22.87
-24.11
-24.90
-25.02
-24.25
-22.41
-19.53
-15.83
-11.65
-7.35
-3.23
0.55
3.97
7.02
9.74
12.13
14.19
15.91
17.36
18.60
19.81
21.10
22.57
24.18
25.77
27.16
28.17
28.71
28.83
28.65
28.36
28.10
27.99
28.00
28.09
28.11
27.94
27.43
26.52
25.24
23.64
21.87
20.00
18.06
16.02
13.85
11.61
9.40
7.37
5.56
3.88
2.14
0.23
-1.80
-3.58
-4.60
-4.37
-2.67
0.36
4.29
8.61
12.93
17.02
20.82
24.33
27.50
30.29
32.69
34.81
36.78
38.80
40.95
43.20
45.33
46.94
47.52
46.58
43.79
39.17
33.10
26.14
18.81
11.36
3.69
-4.46
-13.31
-22.71
-32.12
-40.78
-48.00
-53.38
-56.90
-58.82
-59.39
-58.88
-57.43
-55.18
-52.37
-49.32
-46.39
-43.83
-41.76
-40.12
-38.78
-37.62
-36.59
-35.67
-34.77
-33.73
-32.31
-30.21
-27.21
-23.33
-18.80
-14.05
-9.50
-5.43
-1.82
1.53
4.83
8.19
11.48
14.45
16.83
18.55
19.69
20.53
21.32
22.16
23.02
23.74
24.18
24.31
24.21
24.05
23.96
24.00
23.99
23.75
23.10
22.04
20.78
19.65
18.89
18.52
18.29
17.78
16.62
14.61
11.90
8.85
5.90
3.37
1.35
-0.33
-1.98
-3.88
-6.18
-8.77
-11.42
-13.86
-15.96
-17.67
-19.03
-20.02
-20.56
-20.50
-19.71
-18.22
-16.19
-13.88
-11.49
-9.17
-6.95
-4.82
-2.78
-0.89
0.79
2.16
3.21
3.98
4.53
4.90
5.10
5.12
4.92
4.52
4.04
3.64
3.45
3.50
3.70
3.84
3.74
3.33
2.71
2.07
1.58
1.28
0.99
0.46
-0.54
-2.02
-3.74
-5.32
-6.37
-6.70
-6.49
-6.06
-5.87
-6.23
-7.27
-8.93
-10.98
-13.13
-15.03
-16.28
-16.55
-15.67
-13.71
-10.99
-7.97
-5.03
-2.39
-0.10
1.90
3.60
4.94
5.84
6.37
6.75
7.19
7.82
8.57
9.26
9.73
9.98
10.15
10.43
10.87
11.33
11.55
11.34
10.63
9.53
8.27
7.08
6.11
5.45
5.07
4.88
4.72
4.42
3.89
3.15
2.29
1.39
0.44
-0.69
-2.15
-4.01
-6.16
-8.33
-10.28
-11.78
-12.81
-13.37
-13.45
-12.99
-11.85
-10.01
-7.54
-4.73
-1.88
0.72
2.88
4.53
5.67
6.32
6.53
6.40
6.08
5.77
5.64
5.81
6.29
6.95
7.60
8.02
8.11
7.86
7.39
6.86
6.44
6.13
5.84
5.40
4.68
3.67
2.51
1.40
0.48
-0.21
-0.76
-1.35
-2.10
-3.03
-4.03
-4.91
-5.53
-5.90
-6.25
-6.90
-8.17
-10.18
-12.78
-15.49
-17.67
-18.74
-18.35
-16.56
-13.76
-10.57
-7.55
-5.03
-3.09
-1.59
-0.36
0.70
1.58
2.16
2.41
2.41
2.38
2.58
3.21
4.23
5.41
6.37
6.80
6.55
5.77
4.82
4.02
3.57
3.43
3.39
3.19
2.73
2.04
1.28
0.59
0.03
-0.46
-1.00
-1.69
-2.58
-3.62
-4.72
-5.79
-6.78
-7.64
-8.42
-9.22
-10.18
-11.42
-12.90
-14.39
-15.51
-15.81
-15.06
-13.25
-10.74
-7.98
-5.43
-3.37
-1.83
-0.71
0.16
0.84
1.41
1.87
2.27
2.65
3.06
3.52
4.01
4.50
4.92
5.18
5.18
4.90
4.40
3.88
3.52
3.46
3.65
3.87
3.86
3.42
2.60
1.60
0.73
0.18
-0.01
-0.01
-0.02
-0.19
-0.56
-1.03
-1.50
-1.91
-2.31
-2.83
-3.62
-4.73
-6.10
-7.54
-8.75
-9.48
-9.52
-8.80
-7.38
-5.39
-3.08
-0.71
1.42
3.12
4.29
5.04
5.62
6.30
7.25
8.37
9.37
9.97
10.01
9.64
9.19
9.00
9.15
9.48
9.65
9.39
8.64
7.62
6.62
5.82
5.17
4.40
3.28
1.73
-0.07
-1.82
-3.24
-4.24
-4.91
-5.50
-6.25
-7.29
-8.66
-10.27
-12.01
-13.79
-15.50
-17.04
-18.28
-19.10
-19.36
-19.01
-18.06
-16.60
-14.81
-12.94
-11.26
-9.95
-9.13
-8.74
-8.67
-8.71
-8.74
-8.72
-8.67
-8.68
-8.82
-9.11
-9.46
-9.74
-9.83
-9.66
-9.30
-8.88
-8.61
-8.62
-8.92
-9.36
-9.73
-9.86
-9.73
-9.46
-9.21
-9.05
-8.91
-8.59
-7.88
-6.73
-5.30
-3.90
-2.83
-2.28
-2.23
-2.48
-2.84
-3.11
-3.15
-2.85
-2.06
-0.68
1.31
3.69
6.12
8.15
9.45
10.01
10.02
9.85
9.74
9.72
9.62
9.27
8.63
7.90
7.41
7.42
8.02
8.98
9.97
10.66
10.92
10.83
10.58
10.36
10.27
10.23
10.00
9.31
7.94
5.87
3.30
0.61
-1.73
-3.36
-4.16
-4.32
-4.26
-4.43
-5.20
-6.66
-8.61
-10.63
-12.23
-13.00
-12.72
-11.33
-8.98
-5.88
-2.31
1.44
5.11
8.49
11.49
14.12
16.46
18.68
20.93
23.33
25.90
28.53
31.08
33.38
35.35
37.00
38.46
39.85
41.25
42.64
43.99
45.21
46.26
47.10
47.69
48.02
48.08
47.97
47.75
47.37
46.50
44.60
41.07
35.51
27.93
18.78
8.74
-1.53
-11.61
-21.38
-30.80
-39.78
-48.07
-55.42
-61.69
-66.99
-71.61
-75.70
-79.13
-81.35
-81.64
-79.46
-74.72
-67.93
-60.03
-52.08
-44.81
-38.56
-33.23
-28.45
-23.87
-19.29
-14.75
-10.46
-6.70
-3.60
-1.18
0.73
2.31
3.66
4.79
5.69
6.34
6.85
7.35
7.92
8.53
9.00
9.13
8.84
8.20
7.44
6.75
6.23
5.76
5.12
4.14
2.70
0.86
-1.19
-3.18
-4.78
-5.69
-5.70
-4.75
-3.01
-0.76
1.66
4.05
6.29
8.34
10.12
11.43
12.07
11.94
11.17
10.10
9.12
8.49
8.28
8.33
8.46
8.56
8.66
8.82
9.09
9.39
9.55
9.39
8.89
8.16
7.50
7.19
7.33
7.80
8.22
8.15
7.29
5.58
3.32
0.89
-1.32
-3.17
-4.77
-6.40
-8.36
-10.76
-13.47
-16.12
-18.28
-19.58
-19.86
-19.14
-17.62
-15.52
-13.04
-10.37
-7.68
-5.12
-2.81
-0.77
1.06
2.81
4.53
6.22
7.77
9.03
9.89
10.38
10.61
10.75
10.91
11.17
11.49
11.78
11.96
11.89
11.49
10.72
9.65
8.42
7.23
6.26
5.56
5.12
4.81
4.51
4.12
3.57
2.84
1.98
1.01
-0.06
-1.20
-2.43
-3.79
-5.36
-7.14
-9.06
-10.85
-12.14
-12.55
-11.81
-9.94
-7.23
-4.19
-1.31
1.06
2.88
4.36
5.79
7.35
9.00
10.54
11.73
12.47
12.86
13.13
13.49
13.99
14.53
14.93
15.15
15.21
15.30
15.57
16.03
16.54
16.81
16.58
15.64
13.97
11.74
9.32
7.10
5.40
4.32
3.69
3.15
2.30
0.90
-1.06
-3.31
-5.52
-7.45
-9.08
-10.68
-12.62
-15.19
-18.38
-21.74
-24.58
-26.17
-26.07
-24.26
-21.22
-17.64
-14.12
-10.98
-8.21
-5.63
-3.05
-0.54
1.73
3.46
4.60
5.27
5.77
6.42
7.33
8.42
9.41
10.11
10.45
10.59
10.78
11.24
12.00
12.91
13.65
13.91
13.51
12.52
11.22
10.01
9.21
8.98
9.12
9.27
8.96
7.88
5.98
3.49
0.79
-1.76
-3.95
-5.79
-7.48
-9.27
-11.36
-13.82
-16.50
-19.10
-21.26
-22.65
-23.01
-22.20
-20.25
-17.34
-13.75
-9.88
-6.06
-2.53
0.65
3.51
6.11
8.44
10.45
12.06
13.28
14.24
15.15
16.18
17.39
18.73
19.99
20.96
21.49
21.54
21.15
20.52
19.84
19.27
18.86
18.54
18.10
17.39
16.36
15.10
13.84
12.71
11.76
10.84
9.75
8.32
6.53
4.52
2.50
0.62
-1.08
-2.77
-4.67
-6.99
-9.76
-12.87
-16.03
-18.89
-21.18
-22.71
-23.39
-23.17
-22.01
-19.92
-16.95
-13.34
-9.41
-5.53
-2.01
1.02
3.57
5.78
7.78
9.70
11.55
13.34
15.01
16.51
17.84
19.05
20.26
21.61
23.13
24.75
26.29
27.59
28.62
29.50
30.45
31.66
33.12
34.71
36.20
37.47
38.55
39.66
41.00
42.65
44.58
46.58
48.44
49.95
51.03
51.75
52.33
53.03
54.09
55.65
57.61
59.50
60.47
59.30
54.68
45.75
32.44
15.78
-2.40
-20.06
-35.63
-48.48
-58.89
-67.63
-75.42
-82.56
