1702887704.00
64.000000
-0.00
-0.00
-0.00
-0.00
-0.00
-0.00
-0.00
-0.00
-0.00
-0.00
0.00
0.01
0.01
-0.00
-0.03
-0.05
-0.05
0.00
0.13
0.36
0.66
1.01
1.37
1.72
2.06
2.40
2.79
3.24
3.80
4.42
5.06
5.66
6.20
6.68
7.15
7.68
8.31
9.14
10.09
11.04
11.88
12.56
13.14
13.76
14.65
15.96
17.91
20.32
22.90
25.38
27.58
29.57
31.68
34.32
37.81
42.54
48.15
54.10
59.83
64.97
69.58
74.14
79.34
85.71
93.76
103.00
112.62
121.73
129.77
136.75
143.30
150.75
157.77
166.64
177.95
191.79
206.97
220.57
228.25
225.36
208.53
176.87
132.76
80.05
23.07
-34.94
-92.44
-149.16
-205.23
-260.37
-313.74
-363.87
-409.83
-450.91
-486.50
-515.74
-537.23
-549.22
-549.96
-538.37
-514.21
-478.67
-433.88
-382.45
-327.02
-269.84
-212.63
-156.66
-102.95
-52.37
-5.90
35.58
71.43
101.35
125.50
144.38
158.69
169.15
176.37
180.75
182.57
182.07
179.51
175.23
169.65
163.18
156.15
148.81
141.30
133.69
126.02
118.33
110.69
103.16
95.80
88.68
81.83
75.25
68.95
62.95
57.25
51.86
46.78
42.03
37.59
33.45
29.61
26.07
22.81
19.83
17.11
14.67
12.48
10.54
8.83
7.35
6.07
4.97
4.05
3.27
2.62
2.09
1.65
1.30
1.01
0.79
0.61
0.47
0.37
0.28
0.22
0.18
0.15
0.13
0.12
0.12
0.13
0.15
0.17
0.19
0.23
0.26
0.30
0.35
0.39
0.44
0.48
0.53
0.59
0.64
0.69
0.75
0.82
0.89
0.96
1.05
1.14
1.24
1.36
1.49
1.63
1.80
1.98
2.18
2.41
2.65
2.93
3.23
3.57
3.93
4.33
4.76
5.23
5.74
6.28
6.87
7.50
8.17
8.89
9.65
10.46
11.31
12.21
13.14
14.14
15.20
16.32
17.50
18.74
20.02
21.30
22.52
23.60
24.44
24.92
24.92
24.32
23.04
21.04
18.31
14.92
10.96
6.61
2.05
-2.50
-6.83
-10.74
-14.08
-16.73
-18.64
-19.79
-20.20
-19.96
-19.19
-18.02
-16.58
-15.00
-13.39
-11.77
-10.15
-8.49
-6.79
-5.06
-3.30
-1.55
0.18
1.88
3.60
5.42
7.44
9.63
11.95
14.34
16.71
19.00
21.20
23.37
25.70
28.46
31.56
34.93
38.42
41.82
44.93
47.70
50.23
52.91
56.23
60.15
64.54
69.09
73.33
76.78
79.21
80.72
81.89
83.48
85.47
87.64
89.33
89.51
87.05
80.93
70.38
54.43
36.72
18.59
0.61
-17.34
-35.81
-55.60
-77.54
-102.29
-130.03
-159.84
-190.00
-217.15
-237.13
-246.35
-243.30
-229.20
-207.56
-182.70
-158.05
-135.74
-115.88
-97.60
-80.10
-63.36
-48.00
-34.72
-23.71
-14.46
-6.43
0.88
7.50
12.92
16.38
17.31
15.74
12.30
8.09
3.99
0.54
-2.23
-4.74
-7.51
-10.91
-14.96
-19.53
-24.42
-29.73
-35.71
-42.58
-50.15
-57.51
-63.01
-64.65
-60.65
-50.14
-33.50
-12.37
10.93
33.96
54.74
72.11
85.63
95.43
101.86
105.39
106.47
105.56
103.11
99.54
95.22
90.41
85.28
79.96
74.66
69.62
65.15
61.46
58.58
56.23
53.94
51.12
47.34
42.40
36.40
29.64
22.49
15.19
7.79
0.18
-7.81
-16.15
-24.57
-32.52
-39.35
-44.59
-48.19
-50.54
-52.38
-54.42
-57.18
-60.72
-64.72
-68.47
-71.00
-71.15
-67.72
-59.64
-46.30
-27.76
-4.91
20.67
47.08
72.44
95.23
114.44
129.51
140.34
147.19
150.60
151.32
150.13
147.67
144.39
140.67
136.83
133.21
130.09
127.45
124.95
122.00
118.01
112.68
106.13
98.72
90.72
82.20
72.97
62.76
51.46
39.09
25.73
11.39
-3.96
-20.18
-36.71
-52.58
-66.82
-78.89
-89.10
-98.55
-108.62
-120.26
-133.39
-146.89
-159.07
-168.43
-174.25
-176.85
-177.34
-177.12
-177.50
-179.31
-182.86
-187.92
-193.60
-198.38
-200.27
-197.27
-188.06
-172.50
-151.85
-128.38
-104.66
-82.86
-64.20
-49.08
-37.31
-28.50
-22.37
-18.79
-17.64
-18.71
-21.63
-25.85
-30.76
-35.86
-40.88
-45.85
-51.07
-56.91
-63.64
-71.34
-79.90
-89.21
-99.28
-110.23
-122.31
-135.66
-150.18
-165.46
-180.78
-195.21
-207.84
-217.90
-224.99
-229.11
-230.69
-230.54
-229.74
-229.60
-231.31
-235.60
-242.14
-249.24
-253.93
-252.77
-243.01
-223.65
-195.84
-162.41
-126.78
-91.61
-58.10
-26.01
5.69
37.88
70.71
103.50
135.19
164.84
192.12
217.33
241.21
264.69
288.79
314.68
343.49
375.67
410.09
443.31
469.74
483.01
478.11
453.23
410.57
355.51
294.60
233.51
175.80
122.96
75.31
33.04
-3.36
-33.30
-56.73
-74.58
-88.65
-100.89
-112.53
-123.32
-131.40
-133.94
-128.14
-112.28
-86.17
-50.86
-7.83
41.74
97.06
157.04
219.32
279.69
332.56
372.33
395.10
399.81
388.30
364.40
332.49
296.33
258.49
220.44
183.00
146.71
112.05
79.51
49.58
22.81
-0.40
-19.92
-36.13
-49.88
-62.28
-74.23
-86.05
-97.27
-106.90
-113.96
-117.95
-119.27
-119.12
-119.19
-120.99
-125.19
-131.19
-137.05
-139.99
-137.25
-127.15
-109.90
-88.14
-66.52
-50.84
-46.05
-54.27
-73.13
-95.72
-112.04
-112.04
-89.05
-42.55
21.22
90.87
153.36
197.93
218.97
216.89
197.00
167.24
135.59
108.40
89.72
81.31
82.95
92.55
106.32
118.97
124.78
119.17
100.27
69.56
31.17
-10.01
-50.30
-88.44
-125.09
-161.11
-195.58
-224.80
-242.79
-243.38
-222.66
-180.84
-122.61
-55.92
10.40
68.93
115.31
148.68
170.81
184.82
193.71
199.54
203.27
205.12
205.09
203.25
199.70
194.14
185.91
174.05
157.87
137.41
113.70
88.38
63.14
39.04
16.24
-5.70
-27.35
-48.70
-68.92
-86.50
-99.69
-107.16
-108.45
-104.09
-95.40
-84.08
-71.69
-59.37
-47.75
-37.10
-27.64
-19.63
-13.43
-9.35
-7.50
-7.65
-9.28
-11.76
-14.49
-17.10
-19.47
-21.60
-23.50
-25.07
-26.06
-26.27
-25.66
-24.48
-23.25
-22.60
-23.08
-24.91
-27.98
-31.93
-36.37
-41.05
-45.92
-51.26
-57.64
-65.83
-76.68
-90.86
-108.46
-128.86
-150.54
-171.29
-188.52
-199.73
-202.92
-196.90
-181.56
-157.81
-127.51
-93.19
-57.66
-23.72
6.07
29.44
44.41
49.57
44.47
30.23
9.78
-12.44
-31.50
-43.45
-46.53
-41.63
-31.68
-20.32
-10.40
-3.16
1.83
5.87
10.09
14.88
19.73
23.65
25.80
25.91
24.35
21.87
19.13
16.39
13.47
9.93
5.38
-0.27
-6.79
-13.82
-20.97
-27.88
-34.06
-38.71
-40.64
-38.62
-31.74
-19.92
-4.17
13.65
31.21
46.42
57.80
64.78
67.59
66.99
63.93
59.31
53.82
47.86
41.73
35.65
29.85
24.54
19.90
15.95
12.63
9.81
7.34
5.15
3.12
1.07
-1.32
-4.45
-8.66
-14.10
-20.62
-27.84
-35.29
-42.59
-49.53
-56.16
-62.72
-69.62
-77.26
-85.94
-95.62
-105.74
-115.19
-122.26
-125.08
-122.08
-112.47
-96.60
-75.94
-52.72
-29.39
-8.11
9.69
23.37
32.99
39.02
42.07
42.66
41.26
38.31
34.27
29.71
25.15
21.07
17.73
15.30
13.81
13.21
13.39
14.06
14.80
15.06
14.32
12.24
8.87
4.56
-0.10
-4.59
-8.63
-12.33
-16.04
-20.23
-25.20
-31.04
-37.55
-44.41
-51.27
-58.04
-64.99
-72.62
-81.43
-91.57
-102.61
-113.31
-121.74
-125.63
-123.07
-113.22
-96.51
-74.54
-49.65
-24.45
-1.14
18.79
34.73
46.73
54.88
59.63
61.77
62.05
60.91
58.58
55.14
50.85
46.19
41.00
35.73
31.34
28.72
27.96
28.50
29.20
29.21
28.12
24.82
19.45
13.17
7.12
1.39
-4.73
-12.34
-21.74
-32.29
-44.31
-56.78
-67.47
-74.23
-76.07
-73.00
-66.12
-56.60
-35.82
-3.80
32.02
63.27
87.26
104.50
118.66
129.89
136.13
135.09
123.32
101.23
73.50
47.07
27.79
18.78
19.44
26.97
37.86
48.08
56.13
63.25
71.77
83.24
97.67
113.35
127.96
139.39
145.73
146.96
144.69
141.02
137.20
133.36
128.69
122.53
114.88
106.06
97.02
88.74
81.56
74.90
67.70
59.05
48.87
38.02
27.68
19.09
12.91
9.00
6.37
3.77
0.16
-4.88
-10.96
-17.23
-22.64
-26.41
-28.24
-28.45
-27.75
-26.95
-26.59
-26.77
-27.18
-27.32
-26.90
-26.05
-25.32
-25.36
-26.57
-28.74
-31.14
-32.77
-32.91
-31.55
-29.39
-27.56
-27.08
-28.30
-30.73
-33.34
-34.83
-33.81
-28.74
-17.92
-0.10
24.57
53.54
81.76
102.96
111.84
106.32
88.27
62.70
35.36
10.36
-11.07
-30.20
-49.39
-70.70
-95.08
-122.34
-151.50
-180.92
-208.39
-231.33
-247.27
-254.68
-253.67
-246.17
-235.34
-224.69
-217.14
-214.56
-217.73
-226.58
-240.38
-257.95
-277.69
-297.62
-315.47
-328.73
-334.81
-331.43
-317.21
-292.09
-257.51
-216.03
-170.34
-122.32
-72.62
-21.24
31.21
82.38
128.12
163.59
185.17
192.20
187.36
175.66
162.54
151.96
145.46
142.37
140.83
139.12
136.37
132.72
128.98
125.98
124.22
123.62
123.66
123.60
122.85
121.05
117.97
113.40
106.91
98.03
86.40
72.14
55.96
39.05
22.69
7.81
-5.16
-16.29
-25.91
-34.20
-41.05
-46.11
-49.12
-50.24
-50.27
-50.44
-51.89
-54.81
-58.00
-59.02
-54.95
-43.63
-24.50
1.08
30.45
60.59
89.03
114.44
136.40
155.21
171.43
185.70
198.61
210.56
221.55
231.15
238.52
242.66
242.75
238.32
229.36
216.42
200.67
183.95
168.53
156.70
150.00
148.72
151.61
156.36
160.35
161.46
158.50
151.13
139.51
123.94
104.80
82.76
58.95
35.00
12.57
-7.09
-23.49
-36.97
-48.40
-58.77
-68.96
-79.52
-90.66
-102.04
-112.82
-121.59
-126.95
-127.99
-124.76
-118.34
-110.26
-101.87
-93.84
-86.16
-78.57
-71.00
-63.84
-57.70
-52.93
-49.39
-46.48
-43.61
-40.56
-37.53
-34.93
-32.93
-31.25
-29.25
-26.35
-22.43
-18.04
-14.16
-11.63
-10.80
-11.32
-12.39
-13.19
-13.34
-13.05
-13.05
-14.23
-17.34
-22.73
-30.25
-39.26
-48.77
-57.76
-65.42
-71.46
-76.28
-80.90
-86.65
-94.87
-106.60
-122.14
-140.59
-159.65
-176.14
-187.07
-190.87
-188.30
-182.16
-176.02
-172.40
-171.67
-171.92
-170.35
-164.88
-155.27
-143.00
-130.17
-118.26
-107.49
-97.12
-86.25
-74.57
-62.52
-50.87
-40.43
-31.52
-23.88
-16.92
-9.96
-2.44
5.94
15.10
24.60
33.57
40.98
45.86
47.63
46.20
41.91
35.32
26.96
17.19
6.16
-6.06
-19.47
-34.03
-49.71
-66.32
-83.35
-99.74
-113.83
-123.39
-126.15
-120.41
-105.81
-83.78
-57.34
-30.32
-6.19
12.99
26.86
36.41
42.96
47.59
50.92
53.59
56.59
61.15
68.06
76.76
85.07
89.78
88.04
78.77
63.18
44.40
26.11
11.34
1.63
-2.91
-3.09
0.03
5.45
12.28
19.60
26.48
32.04
35.73
37.50
37.74
37.09
36.02
34.61
32.50
29.21
24.48
18.55
12.09
5.94
0.65
-3.72
-7.68
-12.03
-17.51
-24.43
-32.38
-40.24
-46.25
-48.31
-44.53
-33.65
-15.49
8.88
37.33
67.17
95.76
121.11
142.01
158.06
169.33
176.17
179.00
178.39
175.02
169.74
163.37
156.52
149.54
142.50
135.33
128.04
120.84
113.99
107.69
101.91
96.31
90.43
83.88
76.55
68.63
60.48
52.41
44.45
36.39
27.88
18.66
8.75
-1.53
-11.68
-21.21
-29.84
-37.62
-44.95
-52.54
-61.18
-71.53
-83.85
-97.69
-111.82
-124.21
-132.40
-134.05
-127.61
-112.82
-90.88
-64.21
-35.80
-8.54
15.40
34.83
49.45
59.57
65.76
68.68
68.96
67.20
64.08
60.33
56.68
53.78
52.03
51.57
52.27
53.84
55.92
58.18
60.20
61.56
61.75
60.35
57.14
52.26
46.07
39.07
31.62
23.91
15.90
7.60
-0.93
-9.39
-17.44
-24.83
-31.59
-38.09
-44.98
-53.02
-62.81
-74.52
-87.60
-100.64
-111.49
-117.63
-116.87
-107.98
-91.15
-67.95
-40.94
-12.98
13.37
36.32
54.88
68.74
78.07
83.30
85.09
84.18
81.43
77.70
73.76
70.26
67.63
66.12
65.78
66.50
68.07
70.23
72.64
74.88
76.54
77.13
76.28
73.81
69.79
64.54
58.50
52.07
45.47
38.70
31.73
24.59
17.50
10.79
4.71
-0.72
-5.85
-11.18
-17.17
-23.99
-31.38
-38.86
-45.94
-52.40
-58.33
-64.12
-70.28
-77.33
-85.71
-95.59
-106.78
-118.36
-128.60
-135.13
-135.52
-128.03
-112.28
-89.52
-62.27
-33.66
-6.56
17.04
36.13
50.63
60.92
67.60
71.24
72.44
71.85
70.20
68.18
66.34
65.02
64.34
64.26
64.75
65.75
67.23
69.08
71.03
72.70
73.70
73.64
72.33
69.74
65.99
61.35
56.13
50.69
45.31
40.18
35.35
30.75
26.26
21.78
17.27
12.73
8.24
3.81
-0.52
-4.76
-8.92
-12.98
-16.96
-20.95
-25.12
-29.71
-34.94
-40.85
-47.27
-53.81
-60.05
-65.69
-70.66
-75.25
-79.93
-85.34
-92.02
-100.22
-109.69
-119.42
-127.60
-131.94
-130.21
-121.03
-104.35
-81.58
-55.22
-28.05
-2.50
19.83
38.16
52.29
62.36
68.68
71.75
72.33
71.41
70.10
69.33
69.69
71.21
73.56
76.17
78.58
80.70
82.81
85.47
89.14
93.78
98.63
102.28
102.97
99.22
90.35
76.87
60.59
44.18
30.52
21.81
18.87
20.73
24.84
27.79
26.36
18.53
4.12
-15.22
-36.64
-57.08
-74.17
-86.77
-94.95
-99.62
-101.98
-103.24
-104.43
-106.35
-109.50
-113.94
-119.18
-124.29
-128.04
-129.44
-127.96
-123.78
-117.60
-110.43
-103.17
-96.47
-90.51
-85.09
-79.62
-73.36
-65.54
-55.62
-43.36
-28.96
-13.00
3.68
20.23
35.88
50.17
62.91
74.09
83.73
91.75
97.97
102.19
104.34
104.55
103.16
100.61
97.38
93.91
90.64
87.99
86.33
85.80
86.28
87.29
88.12
88.01
86.32
82.72
77.23
70.15
61.94
53.12
44.13
35.31
26.92
19.10
11.94
5.43
-0.46
-5.82
-10.77
-15.37
-19.65
-23.59
-27.14
-30.34
-33.28
-36.12
-39.00
-41.95
-44.94
-47.84
-50.60
-53.25
-55.97
-59.01
-62.52
-66.42
-70.39
-73.85
-76.19
-76.90
-75.73
-72.75
-68.28
-62.70
-56.37
-49.58
-42.58
-35.65
-29.15
-23.43
-18.72
-14.99
-11.94
-9.17
-6.29
-3.18
-0.02
2.89
5.23
6.87
7.89
8.52
8.96
9.31
9.57
9.62
9.43
9.03
8.49
7.89
7.23
6.35
5.11
3.40
1.25
-1.17
-3.64
-5.95
-8.02
-9.90
-11.76
-13.77
-16.04
-18.55
-21.13
-23.54
-25.59
-27.22
-28.57
-29.96
-31.73
-34.12
-37.11
-40.43
-43.62
-46.19
-47.70
-47.81
-46.30
-43.07
-38.21
-32.01
-25.00
-17.84
-11.20
-5.54
-1.00
2.51
5.27
7.54
9.41
10.84
11.75
12.11
12.08
11.93
11.95
12.32
13.04
13.98
14.92
15.65
16.08
16.22
16.12
15.83
15.34
14.61
13.54
12.05
10.09
7.68
4.96
2.13
-0.63
-3.16
-5.43
-7.51
-9.54
-11.65
-13.92
-16.34
-18.80
-21.21
-23.51
-25.73
-28.04
-30.58
-33.54
-36.91
-40.56
-44.23
-47.54
-50.08
-51.50
-51.49
-49.83
-46.45
-41.47
-35.21
-28.18
-20.93
-13.96
-7.58
-1.92
3.03
7.36
11.08
14.19
16.67
18.54
19.87
20.74
21.25
21.52
21.68
21.89
22.34
23.12
24.19
25.36
26.38
27.05
27.29
27.13
26.61
25.71
24.34
22.48
20.21
17.76
15.46
13.54
12.05
10.83
9.60
8.17
6.49
4.68
2.88
1.18
-0.53
-2.39
-4.58
-7.09
-9.81
-12.53
-15.12
-17.59
-20.12
-22.88
-25.99
-29.39
-32.95
-36.59
-40.35
-44.33
-48.61
-53.03
-57.16
-60.40
-62.17
-62.02
-59.77
-55.52
-49.54
-42.24
-34.12
-25.73
-17.59
-10.16
-3.70
1.72
6.27
10.17
13.64
16.79
19.62
22.08
24.12
25.78
27.17
28.45
29.73
31.05
32.43
33.81
35.15
36.37
37.35
37.88
37.77
36.91
35.31
33.22
30.98
28.88
27.10
25.61
24.29
22.94
21.45
19.76
17.85
15.75
13.51
11.23
9.02
6.98
5.12
3.37
1.59
-0.38
-2.58
-4.99
-7.55
-10.18
-12.84
-15.52
-18.30
-21.22
-24.33
-27.69
-31.36
-35.41
-39.83
-44.58
-49.41
-53.89
-57.48
-59.53
-59.48
-57.03
-52.20
-45.36
-37.21
-28.47
-19.83
-11.78
-4.57
1.76
7.26
12.00
16.07
19.50
22.31
24.51
26.12
27.21
27.91
28.42
28.95
29.67
30.62
31.75
32.89
33.86
34.48
34.61
34.18
33.18
31.70
29.92
28.11
26.44
25.02
23.74
22.37
20.68
18.51
15.86
12.84
9.62
6.32
3.00
-0.32
-3.66
-7.08
-10.65
-14.47
-18.58
-22.96
-27.49
-31.94
-36.15
-40.05
-43.71
-47.33
-51.06
-54.85
-58.36
-60.99
-62.03
-60.87
-57.21
-51.12
-43.05
-33.71
-23.93
-14.44
-5.75
1.89
8.54
14.30
19.32
23.57
26.97
29.46
31.11
32.15
32.85
33.44
33.96
34.44
34.89
35.42
36.21
37.33
38.71
40.08
41.13
41.59
41.41
40.68
39.62
38.38
37.05
35.61
33.97
32.08
29.90
27.46
24.87
22.26
19.80
17.58
15.59
13.68
11.67
9.42
6.89
4.23
1.63
-0.78
-2.94
-5.03
-7.26
-9.80
-12.73
-16.00
-19.41
-22.78
-25.92
-28.71
-31.11
-33.22
-35.33
-37.79
-40.92
-44.75
-48.92
-52.71
-55.25
-55.79
-53.94
-49.82
-43.87
-36.73
-29.04
-21.31
-13.93
-7.15
-1.12
4.08
8.45
12.02
14.85
17.00
18.59
19.69
20.44
20.89
21.18
21.36
21.54
21.84
22.36
23.20
24.37
25.83
27.43
29.02
30.42
31.49
32.17
32.44
32.35
31.98
31.41
30.70
29.84
28.76
27.38
25.70
23.81
21.92
20.19
18.70
17.34
15.94
14.33
12.47
10.47
8.50
6.63
4.77
2.75
0.32
-2.63
-6.09
-9.91
-13.86
-17.71
-21.25
-24.31
-26.87
-29.06
-31.24
-33.88
-37.44
-42.06
-47.46
-52.88
-57.30
-59.74
-59.58
-56.80
-51.86
-45.52
-38.50
-31.28
-24.04
-16.78
-9.49
-2.34
4.33
10.08
14.55
17.54
19.11
19.53
19.27
18.93
19.24
20.91
24.29
29.15
34.57
39.08
41.20
40.02
35.55
28.83
21.43
14.94
10.49
8.61
9.23
11.94
16.07
20.79
25.17
28.38
29.57
28.52
25.82
22.67
20.47
20.42
23.26
29.15
37.59
47.11
55.84
62.09
64.82
63.86
59.96
54.50
49.01
44.66
41.23
38.20
35.28
32.73
30.87
29.85
29.60
29.82
30.25
28.82
24.55
18.48
13.12
10.63
11.66
15.42
20.35
24.83
23.98
15.39
1.06
-13.92
-25.23
-31.46
-33.74
-34.35
-35.43
-44.37
-65.14
-95.40
-128.30
-157.90
-181.94
-201.22
-218.00
-235.04
-263.16
-309.54
-372.96
-444.74
-515.06
-577.07
-627.37
-665.41
-642.51
-538.98
-377.93
-208.96
-69.10
31.19
97.71
140.42
167.77
185.50
189.26
176.61
151.74
123.91
101.17
86.89
80.51
79.88
82.68
79.94
68.24
50.33
33.07
21.97
18.41
20.48
25.10
29.69
28.88
20.05
4.97
-12.06
-27.49
-40.08
-50.01
-57.60
-62.56
-65.45
-69.31
-73.90
-77.57
-78.81
-76.99
-72.27
-65.12
-56.41
-48.01
-41.39
-36.73
-33.33
-29.94
-25.17
-18.01
-7.94
4.62
18.49
32.66
46.53
59.71
72.27
84.91
98.56
114.32
132.65
153.33
176.59
202.11
228.75
255.13
280.76
306.32
334.35
367.53
407.14
453.96
504.51
550.84
583.19
594.48
582.50
551.82
509.94
464.16
423.13
391.12
367.50
348.95
332.71
316.74
301.74
287.66
273.29
262.05
256.08
254.50
254.12
252.18
246.44
238.76
231.12
194.74
118.93
14.78
-92.52
-182.26
-237.89
-269.89
-286.98
-295.44
-300.47
-302.80
-303.06
-304.84
-313.96
-335.23
-371.18
-417.53
-466.69
-509.54
-533.84
-532.06
-504.64
-458.74
-403.60
-347.43
-293.29
-242.60
-197.43
-158.97
-129.87
-112.98
-108.64
-112.90
-119.36
-120.82
-113.85
-99.75
-81.76
-63.98
-49.71
-40.56
-36.34
-36.07
-38.08
-41.03
-44.01
-45.78
-45.23
-41.54
-34.32
-23.56
-9.74
6.20
22.66
37.59
49.20
56.56
59.89
60.43
59.79
59.33
59.68
60.75
62.02
62.95
63.27
63.03
62.57
62.30
62.57
63.43
64.63
65.67
66.00
65.28
63.52
61.01
58.17
55.21
52.05
48.47
44.26
39.41
34.13
28.66
23.12
17.52
11.83
6.15
0.72
-4.17
-8.39
-11.99
-15.20
-18.33
-21.63
-25.28
-29.43
-34.21
-39.73
-45.89
-52.21
-57.80
-61.48
-62.23
-59.50
-53.58
-45.45
-36.44
-27.63
-19.48
-11.87
-4.35
3.37
11.23
18.82
25.65
31.41
36.07
39.72
42.40
44.06
44.58
44.09
42.88
41.46
40.23
39.34
38.64
37.87
36.78
35.30
33.42
31.12
28.33
25.08
21.58
18.27
15.65
14.01
13.19
12.76
12.18
11.17
9.86
8.61
7.65
6.86
5.73
3.62
0.11
-4.76
-10.47
-16.31
-21.62
-25.97
-29.23
-31.46
-32.84
-33.59
-34.03
-34.51
-35.36
-36.82
-38.89
-41.31
-43.58
-45.01
-44.95
-42.91
-38.69
-32.53
-25.00
-16.89
-9.02
-1.96
4.03
8.97
13.02
16.35
18.98
20.91
22.18
23.00
23.73
24.73
26.15
27.85
29.50
30.70
31.29
31.42
31.48
31.83
32.56
33.37
33.71
33.06
31.19
28.26
24.71
21.05
17.60
14.49
11.72
9.31
7.36
5.97
5.08
4.50
3.89
3.00
1.76
0.32
-1.08
-2.29
-3.37
-4.54
-6.02
-7.89
-9.95
-11.89
-13.45
-14.59
-15.56
-16.87
-19.00
-22.16
-26.19
-30.51
-34.36
-36.91
-37.58
-36.01
-32.31
-26.96
-20.69
-14.23
-8.10
-2.54
2.46
7.02
11.10
14.37
16.17
16.02
13.99
10.78
7.45
5.01
4.05
4.48
5.62
6.56
6.71
6.18
5.68
6.08
8.12
12.35
18.86
27.39
37.06
46.49
54.06
58.21
57.93
53.40
45.81
38.27
35.18
39.14
48.92
60.75
70.90
77.12
79.23
78.90
76.77
72.33
63.93
49.23
25.83
-8.17
-53.50
-109.45
-168.90
-222.86
-262.21
-280.63
-276.57
-253.15
-216.37
-172.94
-128.58
-87.69
-54.48
-32.65
-24.60
-29.89
-44.32
-60.83
-72.04
-72.98
-62.60
-43.76
-20.95
1.63
21.41
37.49
49.84
58.55
63.66
65.43
64.35
61.40
57.79
54.47
51.75
49.28
46.33
42.33
37.31
31.83
26.86
23.27
21.54
21.50
22.55
23.90
24.94
25.26
24.70
23.31
21.18
18.48
15.30
11.77
7.92
3.82
-0.52
-5.08
-9.91
-15.10
-20.71
-26.64
-32.44
-37.37
-40.48
-40.96
-38.38
-32.89
-25.18
-16.29
-7.33
0.79
7.49
12.62
16.37
19.21
21.65
24.06
26.52
28.79
30.46
31.16
30.82
29.66
28.19
26.93
26.23
26.14
26.46
26.88
27.10
26.95
26.32
25.20
23.63
21.80
20.05
18.91
18.85
20.09
22.39
25.11
27.44
28.69
28.57
27.23
25.15
22.86
20.75
18.94
17.28
15.48
13.22
10.36
6.97
3.33
-0.18
-3.25
-5.80
-7.96
-10.06
-12.52
-15.67
-19.73
-24.74
-30.56
-36.87
-43.12
-48.61
-52.60
-54.42
-53.73
-50.52
-45.09
-38.01
-29.90
-21.38
-12.98
-5.19
1.66
7.30
11.62
14.63
16.52
17.61
18.26
18.78
19.32
19.87
20.27
20.32
19.98
19.34
18.57
17.86
17.14
16.19
14.71
12.49
9.67
6.72
4.29
2.94
2.87
3.77
5.00
5.80
5.61
4.33
2.25
-0.11
-2.28
-3.97
-5.20
-6.19
-7.24
-8.69
-10.81
-13.81
-17.75
-22.43
-27.30
-31.59
-34.45
-35.20
-33.57
-29.72
-24.11
-17.36
-10.03
-2.57
4.67
11.43
17.46
22.57
26.68
29.75
31.89
33.29
34.29
35.28
36.59
38.36
40.42
42.39
43.85
44.45
44.19
43.36
42.31
41.32
40.37
39.24
37.72
35.60
32.70
28.89
24.34
19.32
14.32
9.85
6.33
4.10
3.03
2.53
1.85
0.67
-0.93
-2.52
-3.74
-4.49
-4.90
-5.55
-7.36
-11.00
-16.10
-21.41
-25.12
-25.58
-21.72
-12.79
0.99
18.33
37.19
55.51
71.23
82.80
89.41
89.22
83.35
75.94
71.40
71.27
74.16
77.54
79.89
80.06
77.08
70.01
56.90
34.53
-0.93
-50.07
-110.18
-174.60
-233.75
-277.69
-299.08
-295.82
-271.46
-232.92
-187.34
-140.31
-95.65
-56.67
-26.99
-10.14
-8.18
-20.12
-41.32
-64.73
-83.65
-94.09
-95.66
-90.58
-81.92
-72.05
-62.12
-52.45
-43.22
-35.12
-29.34
-27.04
-28.79
-34.03
-41.24
-48.34
-53.27
-54.49
-51.39
-44.35
-34.49
-23.32
-12.18
-1.95
6.95
14.48
20.77
26.10
30.97
36.07
42.08
49.26
57.15
64.56
70.03
72.51
71.74
68.25
62.96
56.65
49.74
42.50
35.35
29.03
24.43
22.16
22.24
24.07
26.77
29.46
31.60
33.01
33.67
33.65
32.97
31.58
29.46
26.57
22.85
18.28
12.86
6.68
-0.11
-7.36
-14.93
-22.64
-30.23
-37.25
-43.07
-47.03
-48.68
-47.88
-44.92
-40.30
-34.65
-28.37
-21.74
-14.78
-7.49
0.08
7.72
15.07
21.62
26.88
30.48
32.29
32.52
31.68
30.40
29.26
28.63
28.59
29.03
29.80
30.82
32.09
33.55
34.97
35.91
35.85
34.57
32.23
29.42
26.84
24.98
23.86
23.03
21.90
20.06
17.48
14.40
11.23
8.14
5.12
1.89
-1.88
-6.38
-11.65
-17.46
-23.39
-28.86
-33.31
-36.18
-37.10
-35.93
-32.75
-27.94
-21.92
-15.21
-8.26
-1.45
4.89
10.47
15.09
18.72
21.48
23.66
25.54
27.29
28.84
29.97
30.43
30.15
29.31
28.31
27.57
27.37
27.81
28.83
30.24
31.86
33.43
34.74
35.56
35.73
35.20
33.99
32.21
29.91
27.15
23.99
20.48
16.70
12.73
8.57
4.15
-0.64
-5.92
-11.76
-18.16
-24.94
-31.79
-38.16
-43.36
-46.66
-47.59
-46.04
-42.34
-37.14
-31.14
-24.90
-18.74
-12.73
-6.91
-1.27
4.08
9.01
13.33
16.93
19.73
21.70
22.94
23.61
23.98
24.28
24.77
25.52
26.46
27.43
28.18
28.49
28.24
27.37
25.90
23.94
21.65
19.20
16.69
14.11
11.40
8.42
5.16
1.69
-1.77
-5.00
-7.92
-10.67
-13.62
-17.15
-21.49
-26.53
-31.84
-36.78
-40.68
-43.08
-43.69
-42.54
-39.74
-35.50
-30.03
-23.55
-16.35
-8.77
-1.21
5.97
12.46
18.04
22.57
26.00
28.32
29.65
30.18
30.09
29.61
28.90
28.13
27.48
27.12
27.19
27.66
28.28
28.66
28.43
27.38
25.54
23.17
20.62
18.15
15.84
13.59
11.21
8.57
5.60
2.35
-1.11
-4.75
-8.60
-12.70
-17.08
-21.70
-26.42
-31.06
-35.43
-39.38
-42.72
-45.22
-46.56
-46.37
-44.44
-40.72
-35.45
-29.06
-22.08
-14.99
-8.11
-1.62
4.36
9.79
14.57
18.62
21.86
24.31
26.09
27.39
28.41
29.28
30.11
30.93
31.71
32.41
33.00
33.47
33.79
33.94
33.88
33.52
32.74
31.41
29.45
26.86
23.79
20.48
17.15
13.95
10.88
7.79
4.55
1.06
-2.64
-6.43
-10.17
-13.79
-17.37
-21.14
-25.33
-30.03
-35.06
-39.98
-44.18
-47.06
-48.16
-47.34
-44.64
-40.34
-34.76
-28.32
-21.42
-14.43
-7.67
-1.31
4.59
10.10
15.26
20.07
24.39
28.02
30.76
32.51
33.37
33.54
33.35
33.11
33.02
33.17
33.50
33.90
34.20
34.31
34.26
34.12
34.00
33.93
33.80
33.42
32.60
31.25
29.48
27.60
25.91
24.62
23.73
23.01
22.11
20.79
19.01
16.85
14.44
11.87
9.12
6.13
2.93
-0.45
-4.07
-8.29
-13.90
-21.91
-33.17
-47.73
-64.61
-81.92
-97.44
-109.31
-116.65
-119.55
-118.72
-114.97
-108.92
-100.97
-91.77
-82.39
-74.25
-68.65
-66.16
-66.07
-66.94
-67.26
-66.36
-64.34
-62.06
-60.62
-60.97
-63.43
-67.37
-71.74
-75.52
-78.38
-80.32
-81.72
-83.05
-84.63
-86.34
-87.12
-85.82
-81.76
-75.50
-67.56
-58.56
-49.15
-40.36
-33.19
-26.92
-20.57
-13.19
-5.67
2.41
11.10
19.40
24.15
21.24
10.26
-7.30
-28.26
-51.19
-70.38
-79.82
-75.29
-57.55
-31.05
2.90
42.47
85.06
122.66
153.72
180.08
206.19
235.12
268.73
313.09
370.08
434.92
491.30
530.08
549.19
554.64
554.56
519.23
433.21
300.99
184.15
94.69
31.40
-21.88
-67.86
-106.46
-137.36
-155.03
-156.51
-143.19
-126.63
-112.28
-102.14
-95.02
-91.20
-91.83
-93.73
-94.76
-95.10
-101.74
-116.09
-136.46
-158.89
-181.14
-202.34
-219.64
-231.25
-237.24
-242.24
-247.49
-252.32
-254.34
-252.07
-244.89
-231.57
-211.92
-187.01
-160.39
-134.02
-108.95
-85.37
-63.80
-44.82
-28.43
-14.51
-2.88
6.10
12.89
18.26
23.22
28.29
33.55
38.70
43.24
46.72
49.00
50.21
50.68
50.72
50.49
49.98
49.00
47.34
44.87
41.61
37.89
34.23
31.32
29.70
29.60
30.73
32.31
33.32
32.82
30.21
25.20
17.79
8.11
-3.69
-17.20
-31.63
-45.59
-57.27
-64.88
-67.16
-63.74
-55.28
-43.09
-28.81
-13.90
0.58
13.96
25.93
36.28
44.90
51.70
56.63
59.79
61.38
61.72
61.20
60.23
59.17
58.30
57.83
57.86
58.43
59.43
60.58
61.45
61.53
60.39
57.79
53.78
48.64
42.81
36.68
30.55
24.53
18.60
12.62
6.44
-0.06
-6.96
-14.17
-21.52
-28.78
-35.68
-42.14
-48.30
-54.66
-61.86
-70.46
-80.54
-91.45
-101.70
-109.28
-112.26
-109.42
-100.74
-87.41
-71.39
-54.81
-39.29
-25.61
-13.86
-3.69
5.25
13.10
19.77
25.13
29.23
32.39
35.19
38.28
42.21
47.32
53.75
61.43
70.09
79.29
88.41
96.64
103.22
107.66
110.04
111.09
112.02
114.18
118.69
126.23
136.95
150.67
166.84
184.46
201.69
215.63
222.54
218.63
201.44
170.96
130.19
84.52
40.10
1.93
-27.44
-48.34
-63.14
-74.93
-86.20
-98.17
-110.70
-122.82
-133.14
-140.34
-143.26
-141.09
-133.44
-120.52
-103.17
-82.81
-61.22
-40.22
-21.38
-5.76
6.22
14.71
20.37
24.06
26.63
28.68
30.52
32.24
33.85
35.44
37.14
39.07
41.17
43.11
44.35
44.32
42.56
38.85
33.20
25.71
16.65
6.36
-4.56
-15.35
-25.19
-33.48
-40.04
-45.14
-49.28
-52.92
-56.20
-59.06
-61.38
-63.33
-65.41
-68.40
-73.05
-79.84
-88.76
-99.32
-110.58
-121.14
-129.25
-133.06
-131.05
-122.47
-107.74
-88.34
-66.49
-44.49
-24.19
-6.67
7.76
19.28
28.31
35.22
40.27
43.68
45.63
46.32
46.03
45.13
44.04
43.21
42.99
43.55
44.79
46.42
48.01
49.16
49.55
49.08
47.69
45.43
42.28
38.28
33.46
27.94
21.96
15.80
9.75
4.05
-1.22
-6.09
-10.75
-15.47
-20.64
-26.63
-33.76
-42.04
-51.07
-59.86
-66.97
-70.76
-69.91
-63.77
-52.67
-37.77
-20.81
-3.58
12.51
26.56
38.15
47.22
53.83
58.07
60.07
60.09
58.58
56.15
53.49
51.19
49.56
48.58
47.99
47.43
46.66
45.56
44.22
42.74
41.11
39.16
36.55
32.91
28.03
21.95
14.95
7.47
-0.03
-7.18
-13.79
-19.88
-25.64
-31.38
-37.51
-44.44
-52.46
-61.57
-71.36
-80.79
-88.41
-92.51
-91.63
-85.05
-73.05
-56.91
-38.59
-20.11
-3.09
11.61
23.81
33.71
41.58
47.54
51.60
53.79
54.30
53.58
52.16
50.58
49.20
48.24
47.74
47.73
48.15
48.88
49.74
50.46
50.70
50.12
48.45
45.52
41.36
36.18
30.35
24.32
18.47
12.98
7.73
2.45
-3.23
-9.46
-16.14
-22.84
-29.04
-34.39
-38.83
-42.69
-46.63
-51.36
-57.49
-65.36
-74.86
-85.35
-95.66
-104.15
-109.00
-108.66
-102.31
-90.16
-73.42
-54.01
-33.92
-14.86
2.13
16.59
28.47
37.93
45.13
50.23
53.43
55.00
55.28
54.73
53.70
52.51
51.34
50.25
49.45
49.09
49.28
49.94
50.82
51.44
51.24
49.66
46.39
41.65
35.98
30.04
24.36
19.13
14.17
8.97
2.99
-4.00
-11.48
-18.62
-24.64
-29.23
-32.71
-35.93
-40.10
-46.31
-54.99
-64.86
-74.18
-81.56
-86.51
-89.63
-92.32
-96.53
-104.22
-116.49
-131.21
-145.32
-155.42
-158.56
-152.52
-136.15
-109.90
-76.29
-38.51
3.19
48.76
98.02
150.22
204.16
258.08
309.38
354.13
389.00
415.56
436.07
452.67
466.61
478.84
490.38
502.16
513.65
497.74
437.41
330.55
192.22
45.36
-89.40
-197.68
-269.62
-310.16
-326.52
-324.34
-311.53
-296.82
-287.61
-285.89
-289.63
-293.34
-291.51
-280.00
-255.54
-219.18
-175.23
-129.69
-88.10
-54.07
-28.92
-12.70
-3.56
2.69
9.29
17.63
27.63
38.93
51.76
66.28
81.35
95.06
106.08
113.32
117.60
120.78
124.49
129.48
135.27
140.14
142.17
140.11
133.37
121.94
108.83
96.18
85.35
76.74
69.80
63.52
56.83
49.01
39.98
30.22
20.13
10.05
0.07
-10.08
-20.87
-32.83
-46.39
-61.79
-79.16
-98.71
-120.15
-142.40
-163.55
-181.14
-192.88
-197.51
-195.40
-188.40
-179.40
-171.07
-165.07
-161.81
-160.79
-161.27
-162.78
-165.29
-168.94
-173.79
-179.38
-184.71
-188.63
-190.08
-188.50
-183.90
-176.73
-167.67
-157.52
-147.06
-136.84
-127.12
-117.47
-106.66
-92.64
-73.08
-46.26
-11.99
27.83
69.47
108.27
139.98
161.81
172.81
173.65
165.90
151.49
132.31
110.30
87.38
65.39
45.71
28.91
14.64
1.81
-10.91
-24.56
-39.42
-54.90
-69.63
-81.91
-90.29
-94.25
-94.62
-93.49
-93.51
-96.77
-103.97
-113.81
-123.32
-128.83
-127.12
-116.43
-96.66
-69.15
-36.36
-1.51
31.87
60.56
82.10
95.20
99.76
96.76
87.85
74.89
59.48
43.23
27.98
15.58
7.30
3.17
1.91
1.50
0.04
-4.11
-10.79
-17.58
-20.78
-17.31
-6.53
9.58
27.42
43.18
52.58
53.82
48.75
42.14
39.47
44.99
61.07
88.02
123.71
160.37
188.74
201.81
197.16
176.72
144.94
107.23
68.32
30.51
-10.77
-61.65
-125.37
-199.81
-278.71
-354.24
-418.49
-464.87
-465.85
-407.78
-301.77
-179.61
-71.88
7.47
59.59
92.38
113.61
128.00
134.06
130.66
120.94
111.42
109.58
118.26
134.72
152.66
165.05
164.56
148.71
121.45
91.30
66.74
52.17
47.30
49.69
55.68
60.84
63.09
63.51
65.23
70.81
80.43
92.00
102.71
109.40
110.01
105.73
100.61
99.07
103.07
111.59
121.92
131.61
139.15
144.27
147.59
149.68
151.20
151.31
149.41
145.53
140.53
135.20
130.53
127.19
125.15
123.64
121.40
117.23
109.90
101.74
93.88
87.18
82.08
78.48
75.85
73.34
70.33
66.36
61.31
54.74
46.55
36.95
26.34
15.26
4.25
-6.19
-15.69
-24.14
-32.00
-39.71
-47.50
-55.45
-63.54
-71.71
-80.00
-88.64
-97.93
-108.49
-120.87
-135.49
-152.54
-171.70
-191.82
-210.89
-226.25
-235.38
-236.83
-230.68
-218.46
-202.59
-185.32
-168.03
-151.05
-134.04
-116.71
-99.35
-82.78
-68.02
-55.71
-45.85
-37.87
-30.99
-24.62
-18.56
-12.96
-8.02
-3.79
-0.09
3.30
6.46
9.15
11.00
11.60
10.85
8.99
6.56
4.19
2.30
1.12
0.58
0.47
0.48
0.38
-0.02
-0.79
-1.80
-2.86
-3.67
-3.99
-3.76
-3.17
-2.56
-2.29
-2.59
-3.41
-4.52
-5.54
-6.24
-6.58
-6.77
-7.08
-7.66
-8.49
-9.35
-10.04
-10.46
-10.70
-10.95
-11.40
-12.07
-12.82
-13.44
-13.78
-13.85
-13.75
-13.65
-13.65
-13.68
-13.61
-13.28
-12.66
-11.84
-11.08
-10.53
-10.29
-10.26
-10.28
-10.29
-10.31
-10.46
-10.86
-11.44
-11.97
-12.20
-11.96
-11.30
-10.49
-9.82
-9.52
-9.59
-9.88
-10.20
-10.38
-10.33
-10.06
-9.61
-9.08
-8.58
-8.14
-7.74
-7.28
-6.62
-5.66
-4.46
-3.23
-2.19
-1.56
-1.42
-1.65
-2.09
-2.57
-2.98
-3.28
-3.45
-3.49
-3.38
-3.12
-2.80
-2.54
-2.47
-2.74
-3.34
-4.15
-4.92
-5.33
-5.21
-4.57
-3.70
-2.98
-2.69
-2.89
-3.37
-3.74
-3.67
-3.08
-2.14
-1.25
-0.73
-0.78
-1.31
-2.10
-2.82
-3.22
-3.22
-2.85
-2.21
-1.48
-0.82
-0.32
-0.07
-0.11
-0.52
-1.42
-2.94
-5.18
-8.05
-11.30
-14.42
-16.92
-18.43
-18.85
-18.33
-17.10
-15.45
-13.70
-12.23
-11.51
-12.12
-14.64
-19.52
-26.91
-36.54
-47.52
-58.59
-68.56
-76.58
-82.42
-86.57
-90.09
-94.38
-100.95
-111.16
-126.14
-146.48
-171.54
-198.99
-224.79
-244.40
-254.43
-254.13
-245.31
-231.73
-217.54
-205.55
-196.53
-189.51
-183.07
-176.42
-169.84
-163.18
-156.44
-149.86
-144.08
-139.87
-137.80
-138.18
-141.02
-145.85
-149.47
-148.56
-141.14
-127.09
-107.41
-83.18
-55.39
-25.09
6.73
42.48
84.11
131.29
181.20
230.47
277.01
320.30
360.77
399.21
440.56
488.39
542.47
598.33
650.16
693.39
725.32
744.63
724.50
650.05
527.35
381.91
240.76
119.56
22.29
-53.37
-111.80
-157.30
-189.27
-207.24
-213.14
-212.07
-209.28
-208.11
-209.67
-213.60
-218.85
-221.14
-217.84
-207.72
-192.91
-176.50
-161.01
-147.91
-137.82
-130.88
-125.02
-118.49
-110.16
-100.85
-91.74
-84.07
-78.75
-76.11
-75.85
-76.11
-74.73
-67.87
-56.41
-40.96
-23.23
-5.75
9.07
19.66
25.94
28.74
32.21
40.00
54.47
75.03
98.84
122.67
144.37
163.54
181.36
203.81
236.71
283.65
343.90
413.24
486.55
559.98
631.77
677.79
680.70
635.24
552.93
455.20
361.59
282.90
220.62
169.56
121.33
71.61
19.76
-31.06
-75.89
-110.19
-131.58
-140.93
-142.12
-140.12
-136.55
-130.35
-119.95
-105.45
-89.23
-74.69
-64.49
-59.49
-58.53
-57.95
-53.79
-43.86
-28.87
-11.82
3.45
13.74
16.82
15.54
12.68
10.74
10.96
13.04
15.53
16.84
15.96
12.86
8.25
2.87
-2.60
-8.00
-13.82
-20.81
-29.55
-40.11
-52.06
-64.60
-77.48
-90.53
-103.97
-118.37
-134.54
-153.21
-174.50
-197.38
-219.52
-237.93
-249.59
-252.62
-247.18
-235.33
-220.30
-205.16
-191.81
-180.64
-171.17
-162.57
-154.34
-146.44
-138.96
-131.84
-124.85
-117.79
-110.78
-104.28
-98.74
-94.36
-90.80
-87.47
-83.90
-79.99
-76.08
-72.58
-69.62
-66.88
-63.91
-60.46
-56.67
-53.01
-49.75
-46.60
-42.68
-36.95
-28.85
-18.77
-8.08
1.28
7.33
8.74
5.18
-2.51
-12.55
-22.67
-30.76
-35.58
-37.24
-37.31
-38.18
-42.26
-50.81
-63.11
-76.36
-86.26
-88.18
-78.50
-55.74
-21.04
21.98
68.02
111.38
147.42
173.48
189.32
196.41
196.68
191.16
179.16
158.71
127.86
86.36
36.70
-16.01
-65.37
-105.72
-133.71
-149.12
-154.53
-154.28
-153.22
-155.56
-163.97
-179.13
-199.62
-222.08
-242.06
-255.00
-257.44
-247.90
-227.21
-198.25
-165.05
-131.82
-101.86
-77.26
-58.60
-45.34
-36.24
-29.67
-24.13
-18.47
-12.12
-5.16
1.85
8.15
13.16
16.69
19.00
20.63
22.13
23.75
25.35
26.42
26.30
24.44
20.70
15.41
9.27
3.16
-2.23
-6.63
-10.19
-13.44
-16.95
-21.09
-25.84
-30.77
-35.21
-38.60
-40.71
-41.73
-42.17
-42.52
-42.93
-43.04
-41.99
-38.79
-32.73
-23.66
-12.08
1.12
15.10
29.41
44.29
60.45
78.94
100.81
127.01
158.03
193.49
231.66
269.26
301.92
325.24
336.22
334.24
321.28
301.05
277.61
254.05
231.98
211.78
193.43
177.26
164.01
154.43
148.60
145.52
143.26
139.68
133.25
123.68
111.96
99.69
88.34
78.49
69.75
61.22
52.07
42.11
31.83
22.08
13.45
5.91
-1.30
-9.25
-18.75
-29.71
-40.96
-50.46
-55.99
-55.99
-50.10
-39.32
-25.60
-11.19
2.01
12.87
21.01
26.54
29.77
30.97
30.41
28.43
25.57
22.51
19.94
18.43
18.24
19.24
21.05
23.04
24.65
25.46
25.33
24.38
23.00
21.65
20.71
20.29
20.12
19.66
18.27
15.54
11.43
6.36
1.00
-3.99
-8.28
-11.97
-15.55
-19.71
-25.15
-32.28
-41.16
-51.49
-62.47
-72.90
-81.31
-86.09
-85.85
-79.85
-68.22
-52.15
-33.58
-14.75
2.38
16.56
27.39
35.17
40.48
43.85
45.50
45.42
43.69
40.60
36.74
32.89
29.70
27.54
26.38
25.96
26.00
26.32
26.83
27.45
27.95
27.84
26.56
23.63
18.85
12.41
4.81
-3.32
-11.37
-18.95
-25.93
-32.38
-38.62
-45.01
-51.94
-59.73
-68.50
-77.98
-87.43
-95.65
-101.13
-102.50
-98.91
-90.35
-77.73
-62.61
-46.75
-31.68
-18.36
-7.13
2.12
9.73
16.02
21.20
25.33
28.43
30.47
31.52
31.67
31.17
30.36
29.62
29.28
29.52
30.28
31.31
32.26
32.85
32.94
32.55
31.72
30.41
28.41
25.43
21.20
15.72
9.27
2.34
-4.50
-10.84
-16.55
-21.81
-26.97
-32.46
-38.59
-45.49
-53.00
-60.62
-67.44
-72.30
-73.91
-71.28
-64.05
-52.68
-38.40
-22.86
-7.64
6.11
17.80
27.37
34.98
40.83
45.11
48.01
49.86
51.06
52.05
53.11
54.35
55.71
57.04
58.28
59.43
60.52
61.46
62.03
61.82
60.44
57.63
53.44
48.26
42.74
37.70
33.80
31.39
30.32
29.97
29.42
27.73
24.35
19.26
13.00
6.47
0.51
-4.34
-8.07
-11.13
-14.29
-18.31
-23.64
-30.18
-37.10
-42.93
-45.92
-44.45
-37.87
-26.80
-13.11
0.88
13.20
22.85
29.86
34.97
39.17
42.99
46.24
48.17
47.93
44.99
39.30
31.27
21.49
11.05
0.65
-9.81
-21.23
-34.80
-51.29
-70.52
-91.01
-110.08
-122.76
-124.39
-112.07
-85.77
-48.51
-5.73
35.79
69.41
90.33
100.21
103.75
106.73
113.83
127.62
148.29
173.80
200.58
224.41
247.03
270.44
295.37
320.51
343.69
363.63
380.52
395.59
409.59
429.05
457.13
491.46
524.49
547.29
553.95
543.51
519.59
451.78
329.38
163.01
-17.32
-179.47
-305.13
-392.08
-447.41
-476.68
-491.35
-492.40
-479.59
-455.08
-424.51
-394.61
-370.08
-353.19
-343.05
-338.12
-331.27
-317.47
-295.47
-267.69
-237.98
-209.28
-182.99
-159.57
-140.02
-121.98
-104.04
-86.27
-70.11
-57.08
-47.82
-42.00
-38.88
-38.25
-38.43
-38.38
-37.91
-37.58
-38.06
-39.76
-42.69
-46.66
-51.48
-55.82
-58.12
-57.09
-52.50
-45.63
-39.15
-36.14
-38.74
-47.14
-59.35
-72.36
-83.75
-92.73
-100.05
-106.97
-114.08
-120.70
-125.61
-128.02
-128.26
-127.61
-127.02
-126.07
-122.77
-114.63
-100.34
-80.94
-59.70
-40.67
-27.02
-19.88
-18.26
-19.82
-21.89
-22.08
-18.50
-9.76
4.96
25.51
50.46
77.27
102.97
125.06
142.25
154.43
162.16
166.07
166.45
163.35
156.82
147.14
134.82
120.54
104.98
88.76
72.48
56.82
42.61
30.67
21.63
15.69
12.55
11.51
11.69
12.37
12.98
13.04
12.07
9.39
4.45
-2.83
-11.64
-20.29
-26.61
-28.82
-26.28
-19.88
-11.73
-4.32
0.45
1.80
0.08
-3.71
-8.53
-13.63
-18.52
-22.64
-25.27
-25.59
-23.04
-17.68
-10.27
-2.11
5.48
11.54
15.63
17.56
17.04
13.41
5.87
-5.95
-21.38
-38.26
-53.17
-62.31
-62.76
-53.48
-35.73
-12.69
11.52
32.95
48.74
57.61
59.92
57.25
51.84
45.82
40.70
37.00
34.30
31.50
27.26
20.49
10.76
-1.35
-14.20
-25.31
-31.96
-32.04
-24.85
-11.59
4.98
21.32
34.25
41.71
42.98
38.44
28.95
15.49
-1.02
-19.74
-39.77
-59.93
-78.58
-93.62
-102.70
-103.84
-96.23
-80.88
-60.79
-40.32
-24.05
-15.63
-17.01
-28.27
-47.93
-73.36
-101.43
-128.95
-153.38
-173.33
-188.64
-199.76
-206.77
-208.48
-202.39
-185.81
-157.45
-118.77
-74.17
-29.67
9.11
38.73
58.67
70.79
77.83
82.04
84.25
84.03
80.46
73.24
63.29
52.73
44.05
39.13
38.53
41.38
45.85
49.84
51.56
49.67
43.48
33.14
19.96
6.63
-3.08
-5.41
2.01
18.97
42.53
68.13
91.43
110.03
124.23
136.38
149.23
164.21
180.45
194.95
203.85
203.92
193.67
173.60
145.73
112.69
77.10
41.20
6.84
-24.48
-51.65
-73.90
-90.55
-100.94
-104.37
-100.49
-89.82
-74.09
-56.13
-39.26
-26.42
-19.47
-18.94
-24.03
-32.89
-42.94
-51.31
-55.28
-53.07
-44.40
-30.68
-14.57
0.94
13.39
21.32
24.03
21.33
13.31
0.37
-16.40
-35.09
-52.98
-66.91
-73.81
-71.25
-57.91
-34.11
-1.99
34.45
69.94
98.81
116.43
120.36
110.98
91.19
65.31
37.72
11.81
-10.47
-28.44
-42.09
-51.62
-57.24
-59.34
-58.71
-56.51
-54.00
-52.04
-50.74
-49.45
-47.22
-43.41
-38.12
-32.24
-26.99
-23.40
-21.81
-21.81
-22.50
-22.95
-22.75
-22.17
-22.05
-23.38
-26.84
-32.45
-39.53
-46.91
-53.44
-58.39
-61.74
-64.20
-67.00
-71.66
-79.61
-91.67
-107.58
-125.45
-141.86
-152.54
-153.63
-143.11
-121.49
-91.58
-57.46
-23.03
8.92
36.92
60.30
78.51
90.76
96.32
95.03
87.71
76.09
62.28
48.04
34.39
21.66
9.77
-1.11
-10.31
-16.67
-19.02
-16.69
-10.02
-0.25
10.82
21.40
30.26
36.95
41.68
45.04
47.60
49.65
51.14
51.76
51.21
49.40
46.54
43.08
39.54
36.24
33.11
29.66
25.18
19.07
11.08
1.51
-9.00
-19.71
-30.16
-40.37
-50.87
-62.47
-75.95
-91.79
-109.87
-129.31
-148.43
-164.92
-176.33
-180.57
-176.57
-164.57
-146.09
-123.36
-98.76
-74.20
-50.86
-29.24
-9.47
8.44
24.49
38.72
51.36
62.84
73.84
85.14
97.49
111.30
126.54
142.61
158.46
172.93
185.05
194.35
200.95
205.32
208.02
209.27
208.77
205.82
199.54
189.24
174.66
156.14
134.49
110.93
86.80
63.35
41.58
22.10
5.12
-9.47
-22.00
-32.80
-42.20
-50.48
-57.88
-64.72
-71.30
-77.91
-84.76
-92.00
-99.70
-107.74
-115.69
-122.69
-127.47
-128.63
-125.00
-116.08
-102.24
-84.65
-64.93
-44.75
-25.53
-8.26
6.50
18.53
27.90
34.89
39.90
43.44
46.04
48.17
50.29
52.69
55.53
58.72
61.98
64.86
66.92
67.87
67.69
66.58
64.81
62.62
60.12
57.30
54.07
50.39
46.31
41.94
37.47
33.07
28.85
24.87
21.02
17.14
13.00
8.42
3.31
-2.18
-7.80
-13.26
-18.39
-23.26
-28.16
-33.51
-39.71
-47.01
-55.30
-64.08
-72.30
-78.50
-81.08
-78.73
-70.83
-57.84
-41.21
-22.97
-5.20
10.51
23.29
33.00
39.90
44.36
46.70
47.15
45.91
43.32
39.78
35.79
31.83
28.35
25.67
23.95
23.21
23.33
24.05
25.04
25.92
26.35
26.05
24.84
22.67
19.57
15.65
11.06
5.97
0.58
-4.94
-10.37
-15.54
-20.27
-24.51
-28.31
-31.90
-35.70
-40.20
-45.84
-52.71
-60.38
-67.75
-73.24
-75.16
-72.22
-64.05
-51.31
-35.52
-18.63
-2.41
11.90
23.71
32.92
39.71
44.25
46.63
46.94
45.37
42.36
38.53
34.63
31.26
28.79
27.30
26.61
26.45
26.55
26.67
26.62
26.18
25.09
23.14
20.20
16.23
11.39
5.88
-0.01
-6.04
-12.05
-17.93
-23.69
-29.33
-34.97
-40.74
-46.82
-53.39
-60.48
-67.98
-75.45
-82.05
-86.59
-87.72
-84.36
-76.07
-63.29
-47.21
-29.56
-12.11
3.66
16.82
27.00
34.34
39.25
42.27
44.10
45.20
45.71
45.48
44.27
42.05
39.18
36.40
34.50
34.35
36.17
39.26
42.28
43.86
43.23
40.42
36.12
31.30
27.55
25.89
26.48
28.60
31.01
32.22
30.72
25.29
15.75
4.67
-4.21
-7.30
-2.55
9.79
27.28
46.38
63.61
77.20
88.99
101.59
116.50
132.92
148.42
160.37
167.30
169.00
157.86
131.22
91.86
46.95
3.67
-34.24
-66.26
-93.31
-116.61
-137.97
-156.54
-171.21
-181.81
-189.34
-195.51
-201.76
-206.40
-208.13
-205.87
-197.87
-183.73
-164.77
-143.47
-122.31
-102.57
-84.18
-66.61
-49.33
-31.64
-13.89
2.59
16.28
26.28
32.76
36.65
38.63
38.86
37.24
33.22
26.22
16.05
3.30
-10.69
-24.06
-35.08
-42.20
-44.11
-40.22
-30.82
-17.10
-0.81
16.14
32.28
46.60
58.65
68.26
75.32
79.65
81.18
80.13
77.04
72.70
67.81
62.87
58.09
53.63
49.76
46.86
45.30
45.23
46.43
48.37
50.41
51.96
52.62
52.17
50.54
47.77
43.98
39.52
34.88
30.60
27.08
24.35
22.08
19.72
16.69
12.67
7.70
2.20
-3.21
-7.95
-11.70
-14.55
-16.92
-19.40
-22.45
-26.22
-30.43
-34.56
-38.08
-40.85
-43.30
-46.39
-51.30
-58.88
-69.07
-80.61
-91.05
-97.32
-96.65
-87.58
-70.59
-48.14
-23.83
-1.17
17.52
31.86
43.19
53.81
65.86
80.49
97.46
115.07
130.34
139.44
138.58
125.38
100.13
66.50
30.83
0.12
-20.49
-29.45
-29.00
-23.53
-17.27
-12.57
-9.50
-6.80
-3.28
1.20
5.74
9.05
10.25
9.13
5.99
1.38
-4.23
-10.44
-16.87
-23.01
-28.23
-31.86
-33.37
-32.57
-29.67
-25.47
-21.12
-17.97
-17.04
-18.75
-22.77
-28.11
-33.59
-38.24
-41.63
-43.99
-46.00
-48.59
-52.57
-58.40
-66.03
-74.89
-83.83
-91.40
-96.00
-96.24
-91.31
-81.19
-66.75
-49.55
-31.46
-14.22
0.90
13.29
22.86
29.85
34.53
37.12
37.82
36.91
34.90
32.43
30.16
28.53
27.64
27.28
27.13
26.98
26.83
26.86
27.24
27.92
28.61
28.81
28.10
26.23
23.20
19.23
14.68
9.90
5.19
0.72
-3.48
-7.55
-11.73
-16.24
-21.18
-26.42
-31.66
-36.50
-40.61
-43.90
-46.55
-48.93
-51.53
-54.87
-59.34
-65.10
-71.92
-79.04
-85.12
-88.44
-87.32
-80.71
-68.63
-52.24
-33.56
-14.87
2.01
16.03
26.99
35.22
41.22
45.35
47.82
48.77
48.43
47.21
45.64
44.19
43.18
42.69
42.61
42.83
43.26
43.89
44.72
45.65
46.42
46.64
45.95
44.11
41.07
37.00
32.12
26.74
21.15
15.58
10.27
5.38
0.90
-3.33
-7.65
-12.42
-17.83
-23.74
-29.80
-35.52
-40.51
-44.68
-48.24
-51.70
-55.67
-60.74
-67.31
-75.33
-84.14
-92.37
-98.10
-99.36
-94.75
-83.93
-67.83
-48.38
-27.94
-8.64
8.10
21.60
31.87
39.28
44.34
47.55
49.38
50.22
50.42
50.21
49.74
49.13
48.43
47.71
47.03
46.53
46.36
46.58
47.18
47.97
48.63
48.76
48.04
46.33
43.75
40.59
37.17
33.73
30.34
26.88
23.17
19.07
14.56
9.78
4.98
0.42
-3.66
-7.21
-10.37
-13.51
-17.07
-21.41
-26.60
-32.41
-38.35
-43.91
-48.80
-53.11
-57.27
-62.00
-67.97
-75.63
-84.84
-94.76
-103.90
-110.28
-111.92
-107.40
-96.31
-79.52
-58.95
-37.04
-16.07
2.30
17.30
28.92
37.55
43.74
47.96
50.58
51.93
52.39
52.37
52.18
52.04
51.97
51.87
51.65
51.31
51.01
50.99
51.44
52.37
53.48
54.32
54.35
53.26
51.04
47.95
44.42
40.74
37.06
33.26
29.17
24.64
19.69
14.52
9.39
4.57
0.24
-3.59
-7.04
-10.41
-14.01
-18.10
-22.77
-27.93
-33.27
-38.49
-43.40
-48.07
-52.81
-58.10
-64.43
-72.07
-80.87
-90.04
-98.21
-103.57
-104.29
-99.08
-87.64
-70.88
-50.69
-29.39
-9.11
8.60
23.01
34.04
41.99
47.34
50.56
52.13
52.52
52.23
51.72
51.32
51.21
51.36
51.64
51.97
52.35
52.93
53.87
55.26
56.96
58.56
59.48
59.19
57.49
54.54
50.85
46.99
43.35
39.99
36.72
33.21
29.25
24.76
19.90
14.95
10.17
5.77
1.81
-1.79
-5.29
-9.01
-13.28
-18.28
-23.89
-29.78
-35.50
-40.71
-45.33
-49.58
-53.90
-58.85
-64.93
-72.43
-81.16
-90.33
-98.47
-103.65
-103.92
-97.97
-85.56
-67.81
-46.82
-25.14
-5.04
11.99
25.39
35.36
42.51
47.44
50.56
52.13
52.31
51.37
49.72
47.87
46.21
44.97
44.15
43.58
43.19
42.99
43.09
43.53
44.14
44.51
44.19
42.79
40.27
36.79
32.66
28.17
23.39
18.32
13.00
7.59
2.38
-2.35
-6.46
-10.08
-13.51
-17.07
-20.95
-25.12
-29.35
-33.43
-37.18
-40.63
-43.97
-47.52
-51.68
-56.82
-63.15
-70.55
-78.34
-85.26
-89.64
-89.74
-84.35
-73.12
-56.88
-37.36
-16.88
2.37
18.80
31.65
40.96
47.25
51.17
53.23
53.79
53.09
51.48
49.40
47.31
45.60
44.45
43.85
43.65
43.73
44.03
44.57
45.29
46.03
46.50
46.35
45.26
43.09
39.90
35.90
31.36
26.60
21.83
17.19
12.73
8.41
4.12
-0.28
-4.96
-9.93
-15.10
-20.26
-25.12
-29.50
-33.36
-36.91
-40.54
-44.82
-50.31
-57.37
-65.86
-74.96
-83.15
-88.50
-89.15
-83.95
-72.87
-57.06
-38.51
-19.45
-1.75
13.46
25.74
35.19
42.14
46.97
50.00
51.50
51.77
51.17
50.06
48.79
47.61
46.61
45.80
45.15
44.70
44.55
44.75
45.28
45.88
46.15
45.73
44.38
42.19
39.40
36.31
33.01
29.46
25.48
21.00
16.13
11.12
6.27
1.77
-2.38
-6.33
-10.28
-14.37
-18.60
-22.95
-27.28
-31.53
-35.64
-39.68
-43.80
-48.31
-53.55
-59.87
-67.28
-75.27
-82.64
-87.69
-88.64
-84.19
-74.01
-58.95
-40.79
-21.70
-3.70
11.84
24.28
33.66
40.35
44.83
47.49
48.64
48.55
47.51
45.89
44.06
42.36
40.95
39.86
38.99
38.30
37.81
37.63
37.87
38.49
39.24
39.66
39.21
37.42
34.09
29.38
23.75
17.83
12.20
7.18
2.79
-1.25
-5.31
-9.72
-14.57
-19.71
-24.82
-29.57
-33.70
-37.17
-40.16
-43.04
-46.32
-50.52
-55.95
-62.62
-70.07
-77.24
-82.63
-84.59
-81.74
-73.52
-60.41
-43.88
-25.97
-8.79
6.09
17.90
26.58
32.53
36.27
38.23
38.72
37.99
36.30
33.98
31.36
28.75
26.42
24.53
23.20
22.47
22.33
22.65
23.23
23.72
23.72
22.86
20.87
17.68
13.47
8.65
3.75
-0.79
-4.69
-8.02
-11.13
-14.43
-18.22
-22.47
-26.85
-30.90
-34.26
-36.91
-39.20
-41.75
-45.20
-49.99
-56.15
-63.17
-69.96
-74.98
-76.58
-73.49
-65.21
-52.30
-36.19
-18.81
-2.01
12.83
25.02
34.39
41.08
45.36
47.53
47.94
47.04
45.34
43.35
41.45
39.91
38.81
38.11
37.72
37.52
37.48
37.61
37.89
38.25
38.43
38.04
36.66
34.00
30.08
25.18
19.77
14.30
9.08
4.14
-0.69
-5.60
-10.75
-16.14
-21.53
-26.60
-31.00
-34.56
-37.38
-39.93
-42.88
-46.99
-52.78
-60.21
-68.54
-76.34
-81.78
-83.08
-79.09
-69.61
-55.46
-38.26
-19.95
-2.37
13.08
25.59
34.90
41.15
44.81
46.43
46.65
45.98
44.87
43.55
42.19
40.80
39.41
38.05
36.81
35.87
35.40
35.53
36.18
37.02
37.54
37.12
35.35
32.09
27.58
22.34
16.95
11.85
7.11
2.49
-2.49
-8.27
-14.93
-22.15
-29.28
-35.61
-40.77
-44.86
-48.41
-52.22
-56.98
-63.03
-70.21
-77.73
-84.26
-88.11
-87.60
-81.56
-69.82
-53.38
-34.25
-14.80
2.85
17.47
28.74
37.07
43.02
47.00
49.12
49.40
48.00
45.41
42.36
39.63
37.77
36.97
37.07
37.75
38.68
39.59
40.29
40.60
40.36
39.43
37.69
35.01
31.34
26.63
20.90
14.29
7.08
-0.28
-7.32
-13.69
-19.27
-24.21
-28.83
-33.57
-38.82
-44.83
-51.70
-59.15
-66.52
-72.64
-76.02
-75.16
-69.09
-57.80
-42.30
-24.51
-6.60
9.54
22.78
32.81
39.93
44.66
47.39
48.32
47.55
45.31
42.09
38.58
35.52
33.37
32.22
31.81
31.72
31.57
31.18
30.56
29.75
28.73
27.34
25.34
22.42
18.40
13.25
7.16
0.48
-6.34
-12.90
-18.97
-24.58
-29.98
-35.61
-41.97
-49.40
-57.90
-67.02
-75.73
-82.62
-86.13
-85.02
-78.71
-67.48
-52.39
-34.99
-17.00
0.06
15.04
27.27
36.41
42.44
45.51
45.97
44.34
41.31
37.63
33.98
30.87
28.53
26.98
26.09
25.72
25.79
26.24
26.95
27.61
27.78
26.88
24.48
20.39
14.79
8.24
1.43
-4.97
-10.60
-15.52
-20.14
-25.12
-31.05
-38.34
-46.88
-56.02
-64.50
-70.66
-72.79
-69.63
-60.81
-47.05
-30.06
-12.03
4.98
19.54
31.01
39.38
44.92
47.82
48.18
46.06
41.78
36.06
29.91
24.43
20.40
18.03
16.91
16.31
15.48
14.07
12.22
10.38
9.03
8.26
7.66
6.38
3.50
-1.59
-8.93
-17.88
-27.35
-35.94
-42.43
-46.04
-46.74
-45.27
-43.06
-41.78
-42.71
-46.15
-51.03
-55.07
-55.41
-49.57
-36.46
-16.94
6.25
29.21
47.95
59.43
62.24
56.74
44.81
29.20
12.91
-1.39
-11.72
-17.13
-17.69
-14.39
-8.78
-2.63
2.49
5.50
6.14
4.89
2.92
1.71
2.52
5.92
11.50
17.85
23.14
25.89
25.59
22.93
19.51
17.16
17.19
19.94
24.86
30.82
36.63
41.36
44.53
46.08
46.14
44.85
42.25
38.17
32.28
24.21
13.79
1.38
-12.00
-24.71
-34.81
-40.41
-40.18
-33.62
-21.18
-4.17
15.46
35.53
53.97
69.08
79.75
85.51
86.49
83.42
77.38
69.48
60.67
51.58
42.71
34.73
28.51
24.90
24.08
25.00
25.27
21.76
11.69
-6.25
-31.40
-61.20
-92.06
-120.23
-142.57
-156.79
-161.57
-156.61
-142.62
-121.28
-95.13
-67.31
-41.29
-20.63
-8.51
-7.10
-17.01
-36.93
-63.88
-93.86
-122.59
-146.07
-161.02
-165.01
-156.76
-136.56
-106.40
-69.94
-31.78
3.53
32.53
53.53
66.62
73.29
75.77
76.38
76.94
78.40
80.75
83.20
84.69
84.41
82.20
78.51
74.22
70.22
67.08
64.86
63.15
61.23
58.39
54.21
48.79
42.69
36.64
31.16
26.39
22.03
17.70
13.15
8.47
3.95
-0.17
-3.93
-7.65
-11.72
-16.30
-21.14
-25.78
-29.83
-33.24
-36.31
-39.31
-42.12
-44.01
-43.73
-40.10
-32.52
-21.21
-7.10
8.59
24.89
41.25
57.46
73.28
88.18
101.35
111.85
118.95
122.40
122.56
120.14
116.08
111.18
106.01
100.81
95.52
89.93
83.76
76.80
68.91
60.09
50.44
40.14
29.52
19.11
9.64
1.89
-3.63
-6.95
-8.78
-10.36
-12.98
-17.43
-23.59
-30.45
-36.57
-40.66
-42.22
-41.71
-40.27
-39.24
-39.43
-40.94
-43.06
-44.74
-44.98
-43.20
-39.39
-34.00
-27.60
-20.75
-13.87
-7.28
-1.25
3.92
7.98
10.79
12.39
12.96
12.75
11.98
10.74
9.08
7.04
4.69
2.21
-0.17
-2.25
-3.89
-5.05
-5.78
-6.21
-6.52
-6.91
-7.57
-8.66
-10.31
-12.59
-15.54
-19.08
-23.05
-27.17
-31.18
-34.93
-38.40
-41.71
-45.03
-48.52
-52.31
-56.52
-61.24
-66.52
-72.27
-78.12
-83.54
-87.90
-90.71
-91.71
-90.73
-87.65
-82.19
-74.06
-63.22
-50.09
-35.61
-21.08
-7.77
3.46
12.27
18.73
23.14
25.78
26.90
26.83
26.07
25.33
25.29
26.50
29.12
32.89
37.27
41.60
45.38
48.33
50.43
51.83
52.65
52.94
52.65
51.74
50.21
48.21
45.96
43.63
41.31
39.01
36.71
34.45
32.32
30.40
28.70
27.14
25.58
23.89
21.94
19.63
16.87
13.56
9.63
5.15
0.30
-4.67
-9.56
-14.38
-19.42
-25.11
-31.82
-39.56
-47.84
-55.68
-61.85
-65.22
-65.10
-61.40
-54.65
-45.81
-36.00
-26.23
-17.27
-9.62
-3.50
1.04
4.10
5.86
6.51
6.27
5.37
4.05
2.63
1.44
0.75
0.72
1.33
2.44
3.82
5.26
6.66
7.95
9.17
10.41
11.77
13.27
14.77
15.91
16.26
15.45
13.35
10.19
6.40
2.43
-1.34
-4.81
-7.97
-10.83
-13.37
-15.54
-17.32
-18.82
-20.26
-21.87
-23.84
-26.29
-29.25
-32.66
-36.39
-40.21
-43.85
-47.11
-49.91
-52.41
-54.97
-58.01
-61.92
-66.96
-73.07
-79.80
-86.18
-90.72
-91.67
-87.49
-77.28
-61.31
-40.93
-18.28
4.26
24.70
41.78
55.06
64.68
71.14
75.04
76.97
77.46
76.97
75.90
74.60
73.28
72.06
70.96
69.99
69.15
68.50
68.10
67.93
67.78
67.26
65.86
63.13
58.89
53.35
47.07
40.83
35.38
31.16
28.23
26.26
24.75
23.26
21.60
19.80
18.08
16.67
15.61
14.81
14.06
13.17
12.01
10.59
8.93
7.05
4.90
2.38
-0.61
-4.15
-8.21
-12.67
-17.30
-21.82
-26.02
-29.81
-33.32
-36.85
-40.85
-45.76
-51.78
-58.72
-65.85
-72.06
-76.14
-77.15
-74.78
-69.47
-62.21
-54.27
-46.80
-40.54
-35.87
-32.79
-31.03
-30.22
-29.94
-29.83
-29.66
-29.38
-29.14
-29.14
-29.54
-30.31
-31.14
-31.45
-30.55
-27.86
-23.14
-16.60
-8.98
-1.31
5.31
10.05
12.50
12.78
11.42
9.22
6.94
5.18
4.18
3.89
4.00
4.15
4.04
3.51
2.51
1.04
-0.93
-3.38
-6.24
-9.33
-12.41
-15.33
-18.01
-20.57
-23.28
-26.37
-30.01
-34.10
-38.24
-41.86
-44.44
-45.79
-46.36
-47.26
-49.79
-54.81
-62.01
-69.55
-74.38
-73.17
-63.54
-45.02
-19.57
8.87
35.36
55.41
66.21
67.36
60.89
50.46
40.16
33.25
31.17
33.37
37.67
41.11
40.91
35.32
24.36
10.11
-3.50
-11.74
-10.80
0.47
19.79
41.93
60.73
71.54
72.93
66.98
57.79
49.53
44.71
43.87
46.11
50.19
55.18
60.46
65.40
69.10
70.62
69.46
66.01
61.55
57.75
55.85
55.92
56.65
55.65
50.32
38.77
20.52
-3.26
-30.18
-57.42
-82.70
-104.78
-123.56
-139.54
-153.08
-163.76
-170.28
-170.84
-163.96
-149.21
-127.57
-101.26
-73.16
-46.06
-22.02
-2.15
13.31
24.70
32.57
37.54
40.10
40.79
40.13
38.68
36.96
35.36
34.10
33.26
32.77
32.58
32.71
33.24
34.25
35.67
37.20
38.32
38.37
36.82
33.43
28.44
22.46
16.26
10.51
5.55
1.25
-2.79
-7.08
-11.96
-17.46
-23.32
-29.12
-34.53
-39.40
-43.81
-48.07
-52.57
-57.77
-64.06
-71.59
-79.97
-88.21
-94.73
-97.65
-95.42
-87.32
-73.77
-56.19
-36.60
-17.05
0.90
16.27
28.65
37.96
44.36
48.12
49.69
49.58
48.38
46.63
44.74
43.05
41.79
41.13
41.16
41.84
43.03
44.44
45.80
46.83
47.25
46.80
45.27
42.56
38.71
33.96
28.61
22.98
17.23
11.36
5.29
-1.04
-7.59
-14.25
-20.82
-27.17
-33.26
-39.18
-45.19
-51.68
-59.05
-67.49
-76.60
-85.31
-91.86
-94.32
-91.24
-82.14
-67.79
-49.93
-30.73
-12.12
4.60
18.85
30.52
39.70
46.51
51.06
53.60
54.56
54.54
54.06
53.57
53.24
53.10
53.08
53.18
53.44
53.87
54.39
54.80
54.78
53.97
52.13
49.17
45.17
40.42
35.28
30.05
24.91
19.82
14.59
8.99
3.00
-3.20
-9.23
-14.75
-19.67
-24.22
-28.88
-34.21
-40.72
-48.64
-57.93
-68.02
-77.78
-85.60
-89.64
-88.35
-81.01
-68.02
-50.83
-31.51
-12.14
5.69
21.09
33.83
44.02
51.90
57.66
61.44
63.45
63.97
63.42
62.27
60.92
59.65
58.56
57.66
56.98
56.53
56.32
56.31
56.23
55.75
54.45
52.05
48.50
44.00
38.91
33.58
28.22
22.84
17.34
11.61
5.70
-0.23
-5.97
-11.36
-16.39
-21.22
-26.12
-31.42
-37.44
-44.43
-52.48
-61.27
-69.96
-77.07
-80.80
-79.54
-72.41
-59.72
-42.94
-24.19
-5.64
11.16
25.46
37.22
46.71
54.17
59.67
63.23
64.94
65.14
64.38
63.22
62.10
61.23
60.67
60.39
60.40
60.74
61.45
62.47
63.57
64.34
64.35
63.24
60.82
57.16
52.54
47.41
42.28
37.59
33.56
30.16
27.10
23.96
20.41
16.32
11.82
7.28
3.07
-0.62
-3.88
-7.07
-10.65
-14.93
-19.97
-25.49
-31.04
-36.10
-40.39
-43.94
-47.10
-50.46
-54.67
-60.25
-67.40
-75.74
-84.31
-91.53
-95.51
-94.54
-87.62
-74.85
-57.52
-37.76
-17.90
0.14
15.22
27.10
36.14
42.89
47.82
51.20
53.15
53.84
53.55
52.66
51.61
50.71
50.09
49.69
49.37
49.06
48.78
48.63
48.67
48.84
48.91
48.48
47.22
44.91
41.56
37.42
32.84
28.21
23.81
19.77
16.01
12.37
8.61
4.60
0.38
-3.90
-7.96
-11.59
-14.77
-17.72
-20.77
-24.22
-28.23
-32.69
-37.33
-41.81
-45.93
-49.64
-53.15
-56.78
-60.92
-65.92
-71.93
-78.78
-85.84
-91.99
-95.73
-95.51
-90.24
-79.64
-64.50
-46.43
-27.47
-9.52
6.05
18.65
28.27
35.24
39.93
42.65
43.66
43.29
42.02
40.47
39.25
38.72
38.97
39.76
40.69
41.44
41.86
42.04
42.13
42.23
42.20
41.75
40.51
38.18
34.69
30.19
25.04
19.66
14.46
9.73
5.64
2.16
-0.94
-4.01
-7.39
-11.30
-15.72
-20.36
-24.84
-28.82
-32.25
-35.33
-38.50
-42.31
-47.22
-53.41
-60.70
-68.39
-75.27
-79.82
-80.48
-76.21
-66.84
-53.25
-37.08
-20.31
-4.68
8.67
19.31
27.32
33.03
36.81
38.99
39.93
39.97
39.46
38.66
37.74
36.82
35.93
35.16
34.62
34.43
34.65
35.29
36.24
37.33
38.29
38.77
38.40
36.90
34.17
30.43
26.18
22.00
18.32
15.29
12.71
10.21
7.47
4.30
0.80
-2.77
-6.13
-9.09
-11.66
-13.99
-16.36
-19.05
-22.29
-26.17
-30.57
-35.23
-39.82
-44.07
-47.86
-51.33
-54.84
-58.88
-63.88
-69.94
-76.64
-82.91
-87.26
-88.09
-84.26
-75.42
-62.25
-46.22
-29.19
-12.92
1.32
12.88
21.65
27.93
32.16
34.84
36.38
37.08
37.17
36.80
36.12
35.28
34.48
33.91
33.75
34.08
34.88
36.05
37.36
38.59
39.44
39.67
39.06
37.52
35.08
31.90
28.27
24.52
20.94
17.71
14.85
12.27
9.78
7.20
4.40
1.37
-1.80
-4.95
-7.85
-10.35
-12.41
-14.13
-15.80
-17.77
-20.34
-23.67
-27.71
-32.19
-36.77
-41.11
-45.03
-48.59
-52.07
-55.93
-60.60
-66.34
-72.95
-79.65
-85.08
-87.58
-85.63
-78.41
-66.12
-49.99
-31.92
-13.99
2.06
15.17
24.99
31.68
35.70
37.60
37.92
37.16
35.74
34.02
32.32
30.82
29.66
28.92
28.61
28.72
29.21
29.98
30.89
31.71
32.23
32.20
31.44
29.82
27.30
23.95
19.96
15.64
11.30
7.21
3.52
0.23
-2.77
-5.69
-8.68
-11.87
-15.34
-19.06
-23.00
-27.01
-30.89
-34.53
-37.89
-41.15
-44.70
-49.01
-54.47
-61.20
-68.89
-76.67
-83.25
-87.04
-86.61
-81.10
-70.53
-55.89
-38.92
-21.65
-5.89
7.21
17.17
24.12
28.53
30.93
31.84
31.65
30.75
29.51
28.29
27.38
26.89
26.76
26.89
27.16
27.54
28.13
29.04
30.22
31.36
31.93
31.35
29.28
25.78
21.31
16.52
11.99
8.00
4.49
1.18
-2.29
-6.22
-10.68
-15.61
-20.76
-25.81
-30.49
-34.66
-38.45
-42.30
-46.79
-52.41
-59.21
-66.60
-73.28
-77.57
-77.85
-73.08
-63.21
-49.21
-32.78
-15.85
-0.07
13.50
24.46
32.85
38.90
42.83
44.89
45.34
44.59
43.18
41.57
40.13
39.02
38.22
37.65
37.26
37.08
37.10
37.32
37.62
37.80
37.58
36.69
34.88
32.02
28.13
23.43
18.32
13.23
8.49
4.25
0.39
-3.30
-7.07
-11.08
-15.33
-19.71
-24.11
-28.36
-32.36
-36.12
-39.72
-43.45
-47.71
-52.97
-59.59
-67.63
-76.56
-85.19
-91.82
-94.52
-91.77
-82.97
-68.70
-50.63
-31.07
-12.24
4.25
17.68
28.06
35.86
41.53
45.41
47.68
48.50
48.21
47.29
46.25
45.47
45.15
45.25
45.69
46.36
47.26
48.38
49.62
50.75
51.42
51.24
49.99
47.66
44.44
40.61
36.45
32.12
27.69
23.18
18.56
13.88
9.20
4.68
0.42
-3.49
-7.06
-10.49
-14.03
-17.91
-22.19
-26.76
-31.31
-35.62
-39.66
-43.67
-48.19
-53.78
-60.84
-69.32
-78.53
-87.15
-93.41
-95.48
-92.01
-82.53
-67.75
-49.36
-29.55
-10.45
6.41
20.31
31.23
39.47
45.39
49.28
51.34
51.84
51.19
49.89
48.46
47.33
46.76
46.84
47.52
48.63
49.96
51.27
52.34
52.96
53.03
52.46
51.18
49.16
46.36
42.81
38.64
34.02
29.14
24.17
19.22
14.41
9.86
5.64
1.77
-1.92
-5.69
-9.81
-14.43
-19.42
-24.51
-29.34
-33.68
-37.65
-41.58
-46.00
-51.46
-58.22
-66.22
-74.84
-82.83
-88.48
-89.97
-85.86
-75.71
-60.32
-41.53
-21.75
-3.19
12.67
25.25
34.75
41.69
46.61
49.89
51.73
52.38
52.11
51.30
50.32
49.42
48.77
48.37
48.21
48.25
48.47
48.85
49.33
49.74
49.83
49.33
47.99
45.69
42.47
38.56
34.24
29.73
25.19
20.61
15.95
11.25
6.62
2.26
-1.68
-5.23
-8.61
-12.12
-16.05
-20.42
-25.06
-29.65
-33.92
-37.81
-41.53
-45.50
-50.21
-56.09
-63.28
-71.45
-79.68
-86.47
-90.05
-88.81
-81.83
-69.27
-52.42
-33.34
-14.30
2.74
16.58
26.81
33.65
37.66
39.50
39.74
38.85
37.22
35.23
33.25
31.61
30.53
30.06
30.07
30.40
30.89
31.52
32.29
33.18
33.98
34.28
33.60
31.61
28.28
23.94
19.16
14.50
10.31
6.60
3.14
-0.40
-4.27
-8.54
-13.08
-17.66
-21.97
-25.84
-29.24
-32.40
-35.72
-39.64
-44.54
-50.51
-57.25
-63.96
-69.37
-71.97
-70.38
-63.78
-52.30
-37.03
-19.84
-2.76
12.49
24.93
34.30
40.85
44.96
46.99
47.26
46.10
44.01
41.57
39.32
37.62
36.61
36.23
36.35
36.87
37.72
38.82
39.99
40.96
41.40
41.03
39.72
37.50
34.63
31.44
28.22
25.13
22.18
19.17
15.91
12.21
8.06
3.66
-0.70
-4.74
-8.36
-11.69
-15.03
-18.67
-22.75
-27.18
-31.70
-36.03
-40.03
-43.80
-47.64
-51.95
-57.13
-63.32
-70.36
-77.58
-83.78
-87.43
-86.92
-81.17
-69.98
-54.28
-35.89
-17.06
0.17
14.46
25.31
32.91
37.80
40.62
41.90
42.09
41.58
40.75
39.93
39.34
39.04
39.00
39.14
39.44
39.92
40.64
41.64
42.83
43.98
44.76
44.84
43.98
42.10
39.25
35.64
31.59
27.42
23.37
19.54
15.89
12.23
8.43
4.46
0.42
-3.42
-6.79
-9.49
-11.56
-13.28
-15.11
-17.49
-20.66
-24.62
-29.10
-33.67
-37.93
-41.65
-44.89
-47.99
-51.52
-56.06
-62.05
-69.44
-77.62
-85.29
-90.68
-92.02
-87.97
-78.15
-63.24
-44.90
-25.22
-6.30
10.22
23.42
33.04
39.31
42.82
44.23
44.14
43.10
41.55
39.82
38.22
36.94
36.10
35.72
35.79
36.19
36.82
37.60
38.42
39.16
39.69
39.77
39.15
37.62
35.09
31.62
27.51
23.12
18.81
14.79
11.05
7.48
3.94
0.41
-3.01
-6.15
-9.00
-11.67
-14.44
-17.62
-21.36
-25.57
-29.95
-34.11
-37.80
-41.03
-44.10
-47.52
-51.85
-57.47
-64.35
-71.85
-78.79
-83.52
-84.40
-80.20
-70.58
-56.20
-38.64
-19.92
-1.99
13.61
26.08
35.20
41.18
44.46
45.63
45.27
43.96
42.21
40.39
38.72
37.28
36.09
35.14
34.50
34.29
34.57
35.31
36.31
37.22
37.61
37.12
35.58
33.03
29.67
25.78
21.63
17.42
13.26
9.21
5.30
1.55
-2.06
-5.57
-9.06
-12.63
-16.38
-20.31
-24.36
-28.34
-32.06
-35.43
-38.51
-41.52
-44.82
-48.79
-53.76
-59.91
-67.04
-74.47
-80.88
-84.59
-83.90
-77.79
-66.27
-50.47
-32.37
-14.20
2.16
15.55
25.54
32.25
36.13
37.71
37.56
36.18
34.01
31.44
28.83
26.48
24.67
23.57
23.24
23.59
24.39
25.37
26.20
26.61
26.32
25.13
22.92
19.66
15.49
10.61
5.34
-0.07
-5.43
-10.69
-15.84
-20.88
-25.75
-30.32
-34.47
-38.20
-41.63
-45.07
-48.89
-53.46
-59.01
-65.56
-72.70
-79.61
-85.00
-87.41
-85.55
-78.67
-66.99
-51.58
-34.17
-16.70
-0.87
12.20
22.05
28.74
32.70
34.47
34.61
33.64
31.96
29.90
27.72
25.57
23.55
21.83
20.68
20.44
21.33
23.28
25.72
27.69
28.05
25.93
21.23
14.72
7.88
2.24
-1.21
-2.31
-1.60
-0.17
0.77
0.26
-2.30
-6.85
-12.56
-17.73
-20.09
-17.50
-9.24
3.22
16.68
27.59
33.79
35.57
35.41
36.70
41.99
51.94
64.06
74.37
78.99
76.19
66.87
53.28
37.49
21.01
4.74
-10.82
-25.33
-39.33
-53.07
-66.33
-78.41
-88.25
-94.72
-97.12
-95.50
-90.33
-81.24
-68.51
-52.75
-35.03
-16.71
0.64
15.57
27.02
34.76
39.49
42.43
45.02
48.31
52.60
57.49
62.14
65.68
67.66
68.11
67.34
65.77
63.59
60.66
56.60
51.07
43.96
35.72
27.24
19.65
13.97
10.78
10.11
11.49
14.19
17.46
20.56
22.78
23.37
21.62
17.15
10.23
1.88
-6.28
-12.63
-16.10
-16.58
-14.93
-12.43
-10.33
-9.32
-9.43
-10.27
-11.33
-12.34
-13.27
-14.29
-15.53
-16.91
-18.12
-18.80
-18.74
-18.06
-17.16
-16.56
-16.66
-17.46
-18.64
-19.69
-20.20
-20.11
-19.76
-19.83
-21.03
-23.89
-28.63
-35.02
-42.37
-49.54
-55.03
-57.28
-55.07
-47.95
-36.54
-22.40
-7.56
6.09
17.39
25.98
32.23
36.73
40.01
42.34
43.78
44.32
44.00
42.98
41.46
39.67
37.76
35.82
33.85
31.84
29.77
27.71
25.78
24.06
22.56
21.12
19.48
17.50
15.18
12.80
10.74
9.34
8.74
8.83
9.36
9.99
10.39
10.23
9.18
6.95
3.41
-1.26
-6.53
-11.62
-15.72
-18.20
-18.77
-17.39
-14.27
-9.69
-3.98
2.49
9.30
16.07
22.40
27.95
32.41
35.35
36.29
34.74
30.46
23.67
15.11
6.07
-1.91
-7.35
-9.25
-7.37
-2.32
4.56
11.48
16.69
18.90
17.55
12.90
5.71
-3.00
-12.30
-21.51
-30.18
-38.05
-44.89
-50.48
-54.67
-57.47
-59.11
-60.05
-60.86
-62.09
-63.97
-66.46
-69.07
-71.06
-71.54
-69.66
-64.81
-56.82
-45.90
-32.70
-18.17
-3.42
10.45
22.53
32.24
39.27
43.70
45.82
46.11
45.14
43.43
41.47
39.60
38.09
37.07
36.59
36.62
37.07
37.76
38.46
38.90
38.78
37.84
35.89
32.87
28.88
24.14
19.04
14.02
9.47
5.55
2.17
-1.04
-4.55
-8.72
-13.58
-18.85
-23.98
-28.49
-32.16
-35.22
-38.27
-42.16
-47.55
-54.66
-62.95
-71.18
-77.62
-80.50
-78.60
-71.64
-60.35
-46.26
-31.15
-16.55
-3.47
7.74
17.09
24.77
30.93
35.64
38.98
41.06
42.13
42.49
42.44
42.25
42.13
42.23
42.65
43.46
44.62
46.05
47.58
48.97
49.97
50.32
49.84
48.42
46.17
43.28
40.07
36.80
33.56
30.25
26.62
22.48
17.77
12.68
7.58
2.77
-1.62
-5.71
-9.75
-13.97
-18.42
-22.97
-27.39
-31.51
-35.33
-39.01
-42.82
-47.07
-52.09
-58.08
-65.04
-72.58
-79.78
-85.24
-87.35
-84.76
-76.86
-64.14
-48.10
-30.84
-14.45
-0.46
10.45
18.39
23.94
27.76
30.35
31.98
32.81
33.00
32.77
32.40
32.11
32.00
31.99
31.93
31.67
31.20
30.63
30.15
29.92
29.90
29.83
29.28
27.81
25.17
21.44
16.97
12.27
7.81
3.85
0.40
-2.78
-6.02
-9.61
-13.73
-18.33
-23.16
-27.84
-32.01
-35.46
-38.22
-40.60
-43.08
-46.23
-50.49
-56.17
-63.12
-70.84
-78.25
-83.93
-86.34
-84.26
-77.22
-65.67
-50.93
-34.72
-18.77
-4.31
8.07
18.28
26.50
32.95
37.67
40.70
42.14
42.34
41.82
41.17
40.76
40.66
40.63
40.32
39.51
38.29
36.96
35.93
35.42
35.30
35.16
34.45
32.69
29.67
25.50
20.57
15.47
10.88
7.36
5.22
4.39
4.45
4.73
4.54
3.39
1.14
-2.01
-5.64
-9.37
-12.97
-16.53
-20.38
-24.99
-30.78
-37.97
-46.38
-55.26
-63.35
-69.06
-70.93
-67.99
-60.14
-48.17
-33.56
-18.05
-3.16
10.05
21.14
30.10
37.15
42.54
46.45
49.06
50.54
51.10
50.95
50.31
49.31
48.06
46.73
45.54
44.77
44.60
45.03
45.83
46.59
46.86
46.31
44.83
42.49
39.46
35.83
31.71
27.10
22.11
16.91
11.76
6.88
2.38
-1.78
-5.81
-9.90
-14.24
-18.82
-23.51
-28.08
-32.33
-36.22
-39.80
-43.35
-47.22
-51.79
-57.39
-64.21
-72.09
-80.38
-87.91
-93.04
-94.12
-89.94
-80.17
-65.63
-48.01
-29.42
-11.81
3.55
16.14
26.05
33.67
39.44
43.65
46.48
48.14
48.90
49.06
48.94
48.76
48.62
48.51
48.38
48.21
47.97
47.68
47.29
46.79
46.18
45.56
45.09
44.94
45.14
45.50
45.62
44.97
43.13
39.89
35.35
29.87
23.89
17.74
11.57
5.35
-1.03
-7.65
-14.47
-21.33
-27.99
-34.23
-39.92
-45.02
-49.57
-53.71
-57.60
-61.31
-64.79
-67.72
-69.46
-69.16
-65.90
-59.08
-48.64
-35.25
-20.20
-5.09
8.57
19.70
27.80
32.89
35.33
35.81
35.04
33.80
32.80
32.50
33.11
34.43
35.99
37.23
37.72
37.27
36.05
34.39
32.74
31.44
30.61
30.14
29.66
28.69
26.79
23.74
19.63
14.89
10.11
5.82
2.28
-0.61
-3.23
-6.07
-9.43
-13.35
-17.65
-22.03
-26.25
-30.27
-34.21
-38.37
-43.11
-48.72
-55.26
-62.38
-69.20
-74.41
-76.53
-74.38
-67.49
-56.30
-42.07
-26.58
-11.55
1.66
12.33
20.31
25.81
29.24
31.01
31.48
30.99
29.95
28.77
27.89
27.64
28.19
29.45
31.14
32.88
34.30
35.09
35.13
34.43
33.10
31.27
28.98
26.19
22.77
18.69
14.06
9.24
4.68
0.75
-2.40
-4.95
-7.25
-9.65
-12.31
-15.14
-17.94
-20.53
-22.90
-25.15
-27.50
-30.15
-33.23
-36.81
-41.00
-45.91
-51.53
-57.59
-63.29
-67.42
-68.56
-65.58
-58.07
-46.55
-32.42
-17.50
-3.45
8.59
18.18
25.39
30.56
33.98
35.85
36.32
35.66
34.27
32.61
31.13
30.09
29.55
29.36
29.33
29.26
29.06
28.67
28.09
27.28
26.20
24.79
22.96
20.68
17.92
14.77
11.39
8.03
4.92
2.26
0.03
-1.91
-3.85
-6.05
-8.68
-11.78
-15.22
-18.82
-22.40
-25.80
-28.95
-31.89
-34.80
-38.01
-41.96
-46.96
-53.02
-59.56
-65.47
-69.20
-69.30
-64.91
-56.02
-43.58
-29.17
-14.52
-1.02
10.53
19.92
27.36
33.18
37.62
40.76
42.56
42.99
42.10
40.10
37.33
34.16
31.00
28.14
25.80
24.04
22.86
22.18
21.90
21.91
22.09
22.26
22.21
21.59
20.11
17.61
14.20
10.31
6.49
3.18
0.52
-1.66
-3.73
-6.01
-8.56
-11.28
-13.95
-16.43
-18.78
-21.15
-23.79
-26.94
-30.77
-35.34
-40.44
-45.52
-49.63
-51.62
-50.49
-45.75
-37.72
-27.36
-16.02
-4.93
5.04
13.55
20.53
26.02
29.94
32.17
32.60
31.41
29.03
26.13
23.35
21.16
19.71
18.94
18.63
18.56
18.50
18.24
17.57
16.29
14.32
11.74
8.73
5.50
2.19
-1.19
-4.66
-8.28
-12.03
-15.83
-19.56
-23.11
-26.45
-29.61
-32.76
-36.13
-40.01
-44.60
-49.87
-55.47
-60.66
-64.38
-65.50
-63.11
-56.77
-46.76
-34.04
-20.06
-6.37
5.70
15.36
22.40
27.07
29.81
31.02
31.02
30.09
28.54
26.73
25.05
23.78
22.99
22.58
22.39
22.24
22.08
21.86
21.55
21.09
20.32
19.14
17.51
15.43
12.91
9.90
6.31
2.10
-2.62
-7.62
-12.55
-17.08
-21.06
-24.58
-27.91
-31.45
-35.52
-40.31
-45.82
-51.77
-57.57
-62.34
-65.02
-64.58
-60.39
-52.41
-41.27
-28.18
-14.54
-1.66
9.57
18.72
25.76
30.87
34.26
36.13
36.68
36.18
35.01
33.59
32.36
31.60
31.40
31.60
31.99
32.35
32.58
32.71
32.78
32.69
32.23
31.06
28.91
25.72
21.68
17.21
12.77
8.65
4.92
1.44
-2.04
-5.74
-9.77
-14.09
-18.53
-22.86
-26.86
-30.46
-33.78
-37.14
-41.02
-45.87
-51.93
-59.01
-66.38
-72.80
-76.84
-77.13
-72.84
-64.01
-51.50
-36.81
-21.65
-7.34
5.29
16.04
25.05
32.41
38.09
41.88
43.69
43.73
42.59
41.04
39.78
39.22
39.37
39.99
40.72
41.31
41.66
41.80
41.78
41.58
41.07
40.04
38.27
35.59
31.97
27.59
22.81
18.06
13.70
9.81
6.22
2.65
-1.19
-5.38
-9.79
-14.20
-18.41
-22.40
-26.27
-30.23
-34.44
-39.06
-44.22
-50.05
-56.57
-63.47
-69.91
-74.56
-75.92
-72.74
-64.62
-52.21
-37.02
-21.03
-5.99
7.00
17.58
25.90
32.31
37.02
40.06
41.45
41.31
40.10
38.42
36.87
35.83
35.38
35.35
35.50
35.71
35.98
36.30
36.56
36.45
35.53
33.43
30.01
25.53
20.52
15.57
11.14
7.40
4.25
1.42
-1.38
-4.35
-7.59
-11.07
-14.69
-18.32
-21.91
-25.56
-29.51
-34.12
-39.72
-46.38
-53.75
-60.94
-66.65
-69.42
-68.03
-61.87
-51.22
-37.20
-21.55
-6.06
7.80
19.27
28.19
34.85
39.62
42.71
44.16
44.01
42.45
39.97
37.23
34.88
33.34
32.70
32.71
33.03
33.40
33.72
33.99
34.19
34.18
33.67
32.33
29.92
26.49
22.35
18.00
13.89
10.29
7.19
4.33
1.38
-1.92
-5.63
-9.60
-13.60
-17.42
-20.98
-24.44
-28.10
-32.39
-37.68
-44.14
-51.61
-59.45
-66.60
-71.68
-73.33
-70.59
-63.14
-51.51
-36.96
-21.13
-5.74
7.91
19.08
27.68
34.05
38.65
41.86
43.82
44.56
44.12
42.81
41.08
39.48
38.38
37.87
37.80
37.91
38.05
38.16
38.27
38.34
38.10
37.16
35.10
31.67
26.88
21.06
14.77
8.62
3.12
-1.44
-5.09
-8.11
-10.87
-13.67
-16.59
-19.41
-21.83
-23.61
-24.79
-25.73
-27.10
-29.59
-33.72
-39.51
-46.45
-53.51
-59.26
-62.22
-61.27
-55.91
-46.47
-34.02
-20.10
-6.25
6.26
16.72
24.87
30.81
34.79
37.07
37.90
37.59
36.53
35.12
33.79
32.78
32.16
31.83
31.64
31.47
31.30
31.18
31.14
31.12
30.94
30.32
28.98
26.75
23.62
19.79
15.64
11.64
8.15
5.32
2.92
0.48
-2.52
-6.43
-11.15
-16.23
-21.02
-25.01
-28.06
-30.50
-32.89
-35.83
-39.75
-44.68
-50.29
-55.91
-60.54
-62.97
-62.04
-57.03
-47.91
-35.55
-21.46
-7.42
5.13
15.31
22.94
28.28
31.68
33.45
33.75
32.81
30.95
28.72
26.70
25.34
24.82
25.01
25.57
26.14
26.47
26.54
26.46
26.37
26.28
26.06
25.41
24.05
21.79
18.67
14.94
11.03
7.30
4.00
1.14
-1.48
-4.11
-6.91
-9.90
-12.98
-15.97
-18.80
-21.51
-24.25
-27.24
-30.63
-34.57
-39.18
-44.49
-50.34
-56.26
-61.35
-64.44
-64.33
-60.21
-51.95
-40.24
-26.45
-12.23
0.98
12.26
21.30
28.21
33.23
36.52
38.15
38.21
37.02
35.09
33.10
31.58
30.79
30.65
30.86
31.12
31.23
31.24
31.27
31.44
31.74
32.00
31.90
31.11
29.39
26.62
22.96
18.74
14.43
10.47
7.09
4.27
1.75
-0.84
-3.85
-7.39
-11.39
-15.57
-19.62
-23.27
-26.40
-29.03
-31.37
-33.69
-36.36
-39.70
-43.93
-48.97
-54.29
-58.93
-61.60
-61.11
-56.70
-48.41
-37.08
-24.14
-11.17
0.54
10.24
17.72
23.19
26.92
29.16
30.05
29.78
28.69
27.26
26.02
25.39
25.48
26.06
26.67
26.91
26.61
25.87
25.03
24.36
23.93
23.51
22.67
21.04
18.45
15.06
11.29
7.62
4.40
1.69
-0.70
-3.13
-5.91
-9.15
-12.78
-16.55
-20.18
-23.54
-26.63
-29.62
-32.71
-36.11
-40.00
-44.41
-49.25
-54.15
-58.41
-61.07
-61.03
-57.42
-49.90
-38.93
-25.73
-11.93
0.90
11.64
19.85
25.67
29.48
31.62
32.35
31.84
30.36
28.44
26.68
25.66
25.65
26.52
27.88
29.23
30.19
30.57
30.38
29.71
28.61
27.06
24.97
22.29
19.08
15.50
11.81
8.26
4.97
1.87
-1.22
-4.55
-8.24
-12.20
-16.22
-20.04
-23.43
-26.42
-29.24
-32.26
-35.86
-40.24
-45.25
-50.37
-54.69
-57.10
-56.57
-52.43
-44.66
-33.95
-21.51
-8.73
3.18
13.43
21.64
27.75
31.85
34.12
34.85
34.44
33.44
32.41
31.74
31.56
31.69
31.84
31.71
31.19
30.32
29.31
28.37
27.62
27.04
26.45
25.62
24.31
22.33
19.67
16.42
12.75
8.90
5.03
1.24
-2.51
-6.25
-10.04
-13.85
-17.54
-21.00
-24.13
-26.96
-29.67
-32.53
-35.82
-39.72
-44.28
-49.31
-54.40
-58.77
-61.39
-61.18
-57.29
-49.51
-38.43
-25.33
-11.83
0.61
11.11
19.41
25.71
30.38
33.56
35.28
35.54
34.53
32.71
30.68
29.02
28.01
27.67
27.75
27.95
28.04
27.92
27.64
27.22
26.73
26.11
25.28
24.08
22.37
20.02
17.07
13.72
10.30
7.15
4.48
2.27
0.26
-1.89
-4.51
-7.70
-11.31
-15.07
-18.72
-22.14
-25.37
-28.65
-32.24
-36.36
-41.13
-46.52
-52.25
-57.76
-62.18
-64.41
-63.39
-58.46
-49.62
-37.71
-24.15
-10.58
1.70
11.92
19.93
25.93
30.24
33.08
34.55
34.84
34.28
33.43
32.84
32.85
33.45
34.31
34.94
35.00
34.46
33.61
32.85
32.51
32.64
32.97
32.95
32.09
30.08
27.01
23.38
19.86
17.03
15.15
13.96
12.81
11.00
8.13
4.32
0.24
-3.20
-5.28
-5.81
-5.27
-4.61
-4.92
-6.99
-11.00
-16.51
-22.40
-27.19
-29.34
-27.71
-22.06
-13.43
-4.20
2.49
3.75
-1.96
-14.00
-29.54
-44.35
-54.37
-57.06
-52.19
-41.57
-28.05
-14.19
-1.45
9.82
19.88
28.81
36.19
41.27
43.53
43.14
40.95
38.05
35.21
32.48
29.35
25.21
19.82
13.58
7.34
2.00
-1.87
-4.30
-5.84
-7.22
-9.11
-11.83
-15.27
-19.03
-22.58
-25.53
-27.76
-29.43
-30.87
-32.41
-34.27
-36.45
-38.79
-41.06
-43.10
-44.85
-46.38
-47.87
-49.38
-50.83
-51.91
-52.15
-51.01
-48.06
-43.17
-36.52
-28.65
-20.30
-12.18
-4.87
1.32
6.28
10.05
12.75
14.58
15.79
16.67
17.46
18.31
19.17
19.88
20.25
20.14
19.64
18.96
18.38
18.08
18.06
18.12
17.93
17.14
15.59
13.30
10.52
7.62
4.94
2.65
0.74
-0.97
-2.73
-4.73
-7.03
-9.56
-12.16
-14.73
-17.25
-19.88
-22.84
-26.42
-30.75
-35.76
-41.12
-46.17
-50.01
-51.57
-49.96
-44.62
-35.60
-23.64
-10.00
3.89
16.80
27.93
36.98
43.98
49.05
52.30
53.84
53.84
52.64
50.74
48.70
46.96
45.75
45.08
44.75
44.50
44.07
43.32
42.22
40.86
39.39
37.82
35.97
33.50
30.04
25.42
19.81
13.74
7.88
2.72
-1.61
-5.35
-8.94
-12.72
-16.71
-20.64
-24.16
-27.05
-29.47
-31.90
-34.94
-39.02
-44.22
-50.13
-56.01
-60.99
-64.24
-65.12
-63.25
-58.50
-51.08
-41.52
-30.72
-19.73
-9.57
-0.91
6.03
11.41
15.55
18.71
20.99
22.38
23.01
23.15
23.25
23.71
24.69
26.04
27.39
28.39
28.93
29.15
29.27
29.40
29.38
28.77
27.13
24.27
20.39
16.14
12.36
9.83
9.07
10.12
12.62
15.83
18.82
20.62
20.48
18.06
13.49
7.39
0.65
-5.84
-11.48
-16.06
-19.71
-22.78
-25.60
-28.35
-30.98
-33.26
-34.86
-35.41
-34.63
-32.30
-28.36
-22.95
-16.39
-9.18
-1.90
4.91
10.83
15.68
19.46
22.32
24.42
25.85
26.60
26.68
26.13
25.17
24.07
23.12
22.51
22.29
22.39
22.67
22.99
23.18
23.07
22.55
21.50
19.89
17.81
15.38
12.74
10.01
7.26
4.51
1.76
-0.99
-3.78
-6.61
-9.46
-12.25
-14.90
-17.35
-19.60
-21.77
-24.00
-26.46
-29.21
-32.29
-35.78
-39.81
-44.50
-49.83
-55.46
-60.63
-64.27
-65.28
-62.90
-56.92
-47.82
-36.65
-24.60
-12.83
-2.13
7.02
14.43
20.07
23.94
26.17
26.97
26.68
25.82
24.82
24.07
23.70
23.71
23.93
24.24
24.54
24.81
25.05
25.24
25.29
25.02
24.20
22.61
20.20
17.09
13.54
9.90
6.46
3.39
0.66
-1.88
-4.46
-7.24
-10.26
-13.42
-16.56
-19.51
-22.25
-24.88
-27.69
-30.99
-35.02
-39.75
-44.78
-49.30
-52.26
-52.57
-49.54
-43.04
-33.69
-22.65
-11.24
-0.61
8.53
15.92
21.61
25.75
28.44
29.79
29.96
29.32
28.37
27.65
27.50
27.94
28.72
29.44
29.78
29.63
29.16
28.64
28.27
28.07
27.79
27.08
25.70
23.60
20.97
18.13
15.40
12.96
10.78
8.72
6.56
4.13
1.36
-1.72
-5.02
-8.44
-11.92
-15.38
-18.82
-22.23
-25.65
-29.15
-32.92
-37.16
-41.97
-47.28
-52.65
-57.35
-60.43
-61.01
-58.51
-52.83
-44.44
-34.19
-23.12
-12.19
-2.13
6.64
13.90
19.61
23.74
26.40
27.79
28.32
28.50
28.83
29.57
30.65
31.71
32.32
32.23
31.44
30.23
28.96
27.85
26.96
26.15
25.30
24.29
23.12
21.75
20.13
18.21
15.94
13.42
10.74
8.06
5.44
2.79
-0.04
-3.18
-6.59
-10.12
-13.50
-16.56
-19.28
-21.84
-24.54
-27.63
-31.22
-35.19
-39.15
-42.53
-44.60
-44.67
-42.21
-37.06
-29.50
-20.31
-10.50
-1.05
7.30
14.21
19.62
23.64
26.41
28.06
28.73
28.70
28.31
27.93
27.77
27.88
28.16
28.43
28.55
28.43
28.05
27.44
26.58
25.44
24.00
22.27
20.31
18.24
16.15
14.07
11.95
9.67
7.13
4.29
1.21
-1.97
-5.11
-8.19
-11.25
-14.42
-17.81
-21.45
-25.33
-29.44
-33.86
-38.65
-43.81
-49.01
-53.61
-56.67
-57.28
-54.81
-49.26
-41.31
-32.11
-23.00
-15.02
-8.71
-4.04
-0.65
1.84
3.61
4.54
4.35
2.81
0.07
-3.34
-6.53
-8.48
-8.32
-5.55
-0.14
7.42
16.20
24.96
32.42
37.52
39.79
39.46
37.44
34.93
32.90
31.54
30.15
27.33
21.64
12.16
-1.12
-17.36
-35.15
-52.91
-69.21
-82.85
-92.99
-99.09
-101.00
-98.87
-93.03
-83.87
-71.71
-56.89
-40.00
-21.93
-3.92
12.79
27.24
38.98
47.96
54.34
58.26
59.76
59.00
56.42
52.88
49.41
46.97
46.01
46.36
47.37
48.21
48.33
47.62
46.47
45.40
44.77
44.56
44.35
43.52
41.58
38.39
34.17
29.36
24.43
19.64
15.03
10.49
5.94
1.35
-3.24
-7.76
-12.21
-16.62
-21.01
-25.42
-29.87
-34.36
-38.91
-43.40
-47.55
-50.86
-52.66
-52.29
-49.34
-43.68
-35.64
-25.88
-15.23
-4.59
5.30
13.89
20.91
26.29
30.18
32.79
34.39
35.23
35.53
35.53
35.39
35.23
35.05
34.83
34.52
34.13
33.75
33.49
33.43
33.50
33.53
33.21
32.30
30.66
28.31
25.47
22.41
19.38
16.53
13.87
11.27
8.54
5.52
2.18
-1.38
-4.95
-8.31
-11.35
-14.13
-16.94
-20.14
-24.04
-28.76
-34.14
-39.79
-45.05
-49.20
-51.57
-51.65
-49.17
-44.20
-37.15
-28.70
-19.68
-10.85
-2.78
4.23
10.11
14.90
18.65
21.37
23.04
23.74
23.72
23.28
22.78
22.46
22.35
22.34
22.29
22.07
21.69
21.23
20.73
20.12
19.25
17.92
16.07
13.79
11.22
8.58
5.94
3.28
0.49
-2.50
-5.71
-9.02
-12.30
-15.44
-18.37
-21.13
-23.84
-26.64
-29.68
-33.06
-36.75
-40.53
-43.97
-46.51
-47.60
-46.83
-43.98
-39.12
-32.57
-24.86
-16.62
-8.47
-0.96
5.53
10.86
15.06
18.28
20.71
22.51
23.78
24.62
25.15
25.52
25.89
26.41
27.05
27.78
28.48
29.04
29.38
29.43
29.15
28.46
27.34
25.84
24.06
22.17
20.30
18.51
16.75
14.94
13.01
10.93
8.69
6.35
3.94
1.50
-0.92
-3.30
-5.62
-7.94
-10.38
-13.16
-16.44
-20.33
-24.81
-29.72
-34.76
-39.56
-43.70
-46.70
-48.06
-47.38
-44.43
-39.27
-32.26
-24.01
-15.22
-6.50
1.76
9.39
16.37
22.65
28.03
32.29
35.22
36.84
37.46
37.61
37.84
38.51
39.66
41.15
42.80
44.48
46.19
47.90
49.43
50.47
50.61
49.56
47.28
43.97
40.00
35.71
31.31
26.89
22.44
18.01
13.72
9.73
6.16
3.00
0.10
-2.79
-5.85
-9.15
-12.59
-16.00
-19.24
-22.32
-25.32
-28.39
-31.64
-35.10
-38.85
-42.97
-47.53
-52.47
-57.46
-61.84
-64.76
-65.40
-63.28
-58.38
-51.14
-42.28
-32.66
-23.00
-13.85
-5.55
1.68
7.69
12.36
15.63
17.59
18.45
18.59
18.44
18.36
18.57
19.12
19.93
20.85
21.74
22.50
23.04
23.34
23.37
23.11
22.58
21.73
20.49
18.81
16.66
14.09
11.25
8.27
5.33
2.52
-0.12
-2.58
-4.92
-7.26
-9.71
-12.34
-15.15
-18.01
-20.74
-23.19
-25.36
-27.39
-29.56
-32.14
-35.33
-39.10
-43.21
-47.19
-50.39
-52.14
-51.87
-49.30
-44.51
-38.01
-30.54
-22.93
-15.82
-9.61
-4.41
-0.17
3.19
5.76
7.54
8.62
9.08
9.11
8.87
8.50
8.10
7.72
7.45
7.38
7.62
8.17
8.91
9.60
9.93
9.65
8.65
6.94
4.73
2.27
-0.24
-2.62
-4.84
-6.95
-9.09
-11.37
-13.88
-16.55
-19.24
-21.78
-24.03
-25.96
-27.67
-29.35
-31.23
-33.51
-36.27
-39.34
-42.21
-44.06
-43.85
-40.70
-34.15
-24.47
-12.61
0.09
12.21
22.73
31.11
37.34
41.67
44.48
46.11
46.87
47.03
46.89
46.66
46.47
46.35
46.19
45.85
45.19
44.14
42.73
41.05
39.23
37.34
35.37
33.19
30.63
27.58
24.08
20.36
16.72
13.45
10.69
8.38
6.35
4.35
2.25
-0.05
-2.53
-5.13
-7.74
-10.25
-12.56
-14.64
-16.58
-18.59
-20.94
-23.83
-27.29
-31.15
-35.09
-38.69
-41.55
-43.28
-43.58
-42.23
-39.15
-34.47
-28.49
-21.74
-14.80
-8.24
-2.40
2.55
6.60
9.82
12.27
14.03
15.17
15.86
16.29
16.63
16.98
17.33
17.59
17.71
17.68
17.53
17.35
17.13
16.72
15.94
14.62
12.73
10.38
7.79
5.15
2.52
-0.18
-3.15
-6.59
-10.51
-14.77
-19.04
-22.93
-26.12
-28.42
-29.80
-30.33
-30.21
-29.70
-29.23
-29.33
-30.56
-33.28
-37.44
-42.54
-47.82
-52.66
-56.77
-60.10
-62.49
-63.23
-61.05
-54.55
-43.09
-27.41
-9.62
7.38
21.15
30.45
35.59
37.84
38.62
38.84
38.70
38.10
37.06
35.94
35.31
35.61
36.75
38.09
38.74
37.92
35.47
31.75
27.59
23.75
20.68
18.34
16.30
14.06
11.18
7.56
3.35
-1.11
-5.41
-9.28
-12.63
-15.63
-18.58
-21.86
-25.65
-29.83
-33.92
-37.14
-38.66
-37.85
-34.47
-28.74
-21.29
-12.94
-4.48
3.47
10.53
16.51
21.41
25.27
28.20
30.31
31.67
32.36
32.39
31.86
30.86
29.62
28.38
27.37
26.75
26.52
26.62
26.89
27.15
27.22
26.94
26.16
24.78
22.82
20.40
17.79
15.17
12.66
10.23
7.68
4.87
1.71
-1.68
-5.11
-8.32
-11.17
-13.67
-16.00
-18.44
-21.31
-24.82
-28.98
-33.53
-37.95
-41.55
-43.63
-43.66
-41.43
-37.12
-31.25
-24.54
-17.75
-11.44
-5.99
-1.49
2.17
5.22
7.83
10.15
12.20
13.94
15.31
16.30
16.92
17.20
17.28
17.24
17.22
17.35
17.71
18.34
19.17
20.01
20.66
20.92
20.61
19.71
18.28
16.43
14.33
12.09
9.79
7.46
5.11
2.70
0.17
-2.47
-5.23
-8.07
-10.98
-13.96
-17.07
-20.44
-24.18
-28.25
-32.47
-36.42
-39.55
-41.32
-41.30
-39.32
-35.50
-30.18
-23.88
-17.19
-10.64
-4.61
0.67
5.14
8.89
12.07
14.81
17.21
19.30
21.07
22.52
23.65
24.48
25.03
25.32
25.40
25.33
25.19
25.07
25.00
24.95
24.77
24.22
23.09
21.28
18.89
16.12
13.27
10.54
8.03
5.68
3.34
0.91
-1.69
-4.37
-7.05
-9.69
-12.31
-15.00
-17.88
-21.02
-24.45
-28.19
-32.17
-36.27
-40.20
-43.49
-45.50
-45.64
-43.53
-39.20
-33.11
-26.04
-18.83
-12.14
-6.29
-1.37
2.75
6.20
9.07
11.34
13.04
14.21
14.91
15.30
15.52
15.71
15.97
16.40
17.01
17.81
18.75
19.72
20.56
21.09
21.11
20.47
19.12
17.12
14.66
11.98
9.28
6.70
4.22
1.78
-0.70
-3.31
-6.04
-8.84
-11.71
-14.63
-17.67
-20.92
-24.46
-28.30
-32.34
-36.33
-39.89
-42.50
-43.65
-42.89
-40.03
-35.18
-28.81
-21.57
-14.15
-7.10
-0.71
4.94
9.83
13.95
17.21
19.52
20.88
21.45
21.52
21.44
21.50
21.81
22.32
22.91
23.43
23.82
24.09
24.28
24.43
24.52
24.54
24.41
24.04
23.38
22.37
20.96
19.16
17.03
14.67
12.22
9.78
7.38
5.00
2.59
0.09
-2.54
-5.29
-8.14
-11.08
-14.15
-17.44
-21.08
-25.24
-29.98
-35.17
-40.36
-44.86
-47.87
-48.69
-46.95
-42.83
-36.90
-29.99
-22.94
-16.35
-10.45
-5.22
-0.48
3.87
7.73
10.84
12.94
13.87
13.71
12.78
11.51
10.42
9.95
10.48
12.28
15.40
19.58
24.27
28.74
32.26
34.35
34.89
34.09
32.33
29.97
27.26
24.33
21.32
18.38
15.69
13.40
11.53
9.96
8.41
6.59
4.25
1.32
-2.13
-5.88
-9.68
-13.34
-16.77
-20.01
-23.19
-26.48
-30.03
-33.88
-37.91
-41.78
-45.01
-47.01
-47.25
-45.36
-41.24
-35.12
-27.54
-19.16
-10.69
-2.70
4.39
10.34
15.04
18.46
20.67
21.80
22.08
21.86
21.46
21.15
21.01
21.01
21.04
21.07
21.15
21.40
21.92
22.64
23.33
23.67
23.38
22.38
20.78
18.85
16.81
14.72
12.54
10.20
7.65
4.96
2.24
-0.40
-2.95
-5.47
-8.08
-10.92
-14.05
-17.49
-21.25
-25.30
-29.58
-33.98
-38.22
-41.88
-44.38
-45.07
-43.52
-39.64
-33.78
-26.70
-19.28
-12.25
-6.07
-0.87
3.43
6.93
9.63
11.48
12.42
12.52
12.03
11.27
10.59
10.24
10.34
10.89
11.77
12.87
14.03
15.10
15.92
16.28
16.03
15.09
13.53
11.48
9.13
6.65
4.14
1.64
-0.89
-3.49
-6.18
-8.93
-11.67
-14.30
-16.77
-19.10
-21.42
-23.94
-26.86
-30.20
-33.75
-37.00
-39.27
-39.91
-38.52
-35.04
-29.87
-23.66
-17.17
-11.01
-5.42
-0.29
4.82
10.31
16.37
22.70
28.53
32.79
34.38
32.57
27.20
18.75
8.25
-2.93
-13.37
-21.86
-27.58
-30.16
-29.69
-26.59
-21.57
-15.43
-9.03
-3.14
1.59
4.74
6.05
5.46
3.07
-0.84
-5.85
-11.39
-16.87
-21.82
-25.99
-29.46
-32.60
-35.95
-40.03
-45.17
-51.35
-58.13
-64.62
-69.50
-71.30
-68.73
-61.15
-48.83
-33.01
-15.53
1.69
17.13
30.00
40.09
47.60
52.77
55.82
57.01
56.71
55.45
53.84
52.40
51.35
50.69
50.25
49.80
49.24
48.55
47.77
46.89
45.84
44.49
42.75
40.55
37.94
35.02
31.92
28.77
25.62
22.47
19.25
15.89
12.33
8.53
4.58
0.59
-3.33
-7.11
-10.79
-14.54
-18.48
-22.67
-26.89
-30.75
-33.70
-35.23
-35.02
-32.93
-29.11
-23.89
-17.71
-11.09
-4.59
1.31
6.26
10.08
12.77
14.47
15.33
15.56
15.36
14.99
14.63
14.43
14.40
14.40
14.27
13.88
13.27
12.60
12.07
11.81
11.82
11.90
11.85
11.46
10.68
9.49
7.92
6.02
3.80
1.29
-1.48
-4.47
-7.63
-10.87
-14.13
-17.36
-20.53
-23.62
-26.62
-29.43
-31.82
-33.43
-33.82
-32.66
-29.80
-25.41
-19.89
-13.80
-7.67
-1.88
3.37
7.99
11.94
15.16
17.60
19.25
20.21
20.59
20.58
20.36
20.07
19.79
19.60
19.52
19.55
19.67
19.87
20.10
20.36
20.58
20.62
20.32
19.55
18.20
16.31
13.98
11.32
8.43
5.33
2.03
-1.49
-5.20
-9.03
-12.98
-17.08
-21.39
-25.94
-30.60
-35.07
-38.81
-41.22
-41.77
-40.21
-36.61
-31.38
-25.13
-18.48
-11.95
-5.87
-0.40
4.37
8.45
11.89
14.74
17.09
19.08
20.80
22.37
23.86
25.27
26.52
27.50
28.15
28.49
28.68
28.85
29.09
29.24
29.02
28.13
26.40
23.91
20.94
17.86
14.93
12.26
9.80
7.40
4.96
2.39
-0.32
-3.20
-6.22
-9.38
-12.68
-16.11
-19.75
-23.68
-27.93
-32.42
-36.82
-40.64
-43.33
-44.31
-43.21
-39.91
-34.58
-27.70
-19.93
-11.98
-4.49
2.08
7.56
11.91
15.22
17.60
19.12
19.88
20.04
19.80
19.39
19.01
18.79
18.73
18.80
18.98
19.29
19.75
20.36
20.99
21.46
21.57
21.15
20.17
18.69
16.89
14.93
12.94
11.01
9.13
7.22
5.15
2.79
0.05
-3.05
-6.38
-9.79
-13.14
-16.47
-19.95
-23.81
-28.14
-32.80
-37.32
-40.94
-42.82
-42.31
-39.19
-33.77
-26.80
-19.22
-11.90
-5.44
-0.04
4.35
7.90
10.76
12.99
14.55
15.44
15.71
15.50
15.05
14.61
14.44
14.71
15.46
16.60
17.90
19.09
19.96
20.41
20.47
20.22
19.73
19.00
17.96
16.49
14.53
12.11
9.36
6.47
3.66
1.08
-1.19
-3.21
-5.13
-7.20
-9.64
-12.60
-15.99
-19.56
-22.87
-25.45
-26.95
-27.18
-26.09
-23.66
-19.87
-14.59
-7.71
0.88
11.18
23.02
35.99
49.31
61.69
71.33
76.21
74.62
65.84
50.69
31.42
11.09
-7.43
-22.37
-33.37
-41.09
-46.44
-49.83
-50.91
-48.93
-43.36
-34.44
-23.30
-11.57
-0.84
7.75
13.69
16.99
17.87
16.64
13.55
8.94
3.35
-2.57
-8.10
-12.69
-16.11
-18.59
-20.65
-22.84
-25.53
-28.68
-31.96
-35.06
-37.95
-41.00
-44.92
-50.35
-57.47
-65.77
-74.05
-80.65
-83.93
-82.72
-76.63
-66.18
-52.62
-37.57
-22.69
-9.24
2.03
10.92
17.62
22.48
25.88
28.17
29.67
30.67
31.43
32.14
32.85
33.50
33.97
34.17
34.12
33.96
33.89
34.04
34.41
34.77
34.80
34.16
32.70
30.42
27.54
24.41
21.36
18.64
16.26
14.10
11.91
9.48
6.69
3.55
0.24
-3.01
-6.04
-8.85
-11.57
-14.48
-17.89
-21.97
-26.74
-31.90
-36.91
-41.04
-43.50
-43.70
-41.36
-36.56
-29.75
-21.58
-12.79
-4.16
3.70
10.36
15.67
19.75
22.89
25.41
27.54
29.34
30.79
31.86
32.60
33.17
33.71
34.27
34.81
35.15
35.22
35.00
34.60
34.12
33.59
32.88
31.79
30.11
27.74
24.73
21.24
17.51
13.77
10.17
6.74
3.44
0.19
-3.14
-6.63
-10.32
-14.22
-18.29
-22.46
-26.64
-30.65
-34.21
-36.92
-38.33
-38.05
-35.88
-31.98
-26.76
-20.83
-14.82
-9.25
-4.39
-0.35
2.89
5.42
7.31
8.66
9.59
10.25
10.79
11.28
11.78
12.25
12.61
12.82
12.83
12.65
12.35
12.01
11.75
11.62
11.59
11.51
11.13
10.19
8.50
6.05
3.01
-0.33
-3.64
-6.68
-9.38
-11.87
-14.32
-16.93
-19.76
-22.75
-25.79
-28.79
-31.71
-34.49
-36.97
-38.78
-39.46
-38.51
-35.68
-31.09
-25.24
-18.83
-12.52
-6.81
-1.84
2.49
6.36
9.90
13.11
15.83
17.88
19.21
19.94
20.28
20.52
20.83
21.21
21.62
21.99
22.36
22.89
23.75
24.98
26.44
27.84
28.86
29.21
28.76
27.50
25.52
22.98
20.12
17.17
14.33
11.73
9.34
7.03
4.62
1.99
-0.93
-4.08
-7.39
-10.73
-14.03
-17.20
-20.25
-23.30
-26.52
-30.13
-34.17
-38.37
-42.18
-44.86
-45.73
-44.43
-41.01
-35.91
-29.75
-23.15
-16.59
-10.39
-4.71
0.35
4.76
8.51
11.61
14.11
16.09
17.68
19.01
20.16
21.15
21.95
22.58
23.11
23.69
24.48
25.55
26.87
28.20
29.25
29.75
29.51
28.48
26.80
24.68
22.41
20.26
18.40
16.85
15.49
14.16
12.70
11.03
9.22
7.33
5.45
3.61
1.74
-0.23
-2.40
-4.76
-7.22
-9.66
-11.96
-14.09
-16.06
-18.04
-20.21
-22.79
-25.91
-29.60
-33.74
-38.03
-41.96
-44.91
-46.29
-45.61
-42.71
-37.74
-31.21
-23.82
-16.27
-9.15
-2.86
2.45
6.78
10.20
12.81
14.70
15.96
16.74
17.21
17.57
17.97
18.50
19.12
19.75
20.29
20.75
21.23
21.85
22.75
23.90
25.14
26.17
26.70
26.49
25.56
24.07
22.26
20.35
18.41
16.34
14.08
11.64
9.15
6.81
4.76
2.99
1.30
-0.49
-2.56
-4.90
-7.39
-9.89
-12.33
-14.73
-17.20
-19.85
-22.72
-25.88
-29.31
-33.01
-36.89
-40.78
-44.43
-47.45
-49.39
-49.79
-48.30
-44.80
-39.49
-32.92
-25.85
-19.01
-12.85
-7.55
-3.00
0.99
4.51
7.50
9.83
11.46
12.50
13.24
13.96
14.83
15.90
17.09
18.36
19.68
21.10
22.61
24.14
25.51
26.52
26.98
26.79
25.96
24.59
22.85
20.89
18.81
16.62
14.32
11.87
9.30
6.70
4.18
1.86
-0.28
-2.29
-4.31
-6.47
-8.82
-11.37
-14.01
-16.68
-19.33
-22.01
-24.84
-27.96
-31.44
-35.20
-38.91
-42.08
-44.05
-44.28
-42.42
-38.47
-32.73
-25.76
-18.21
-10.71
-3.79
2.17
7.00
10.64
13.25
15.02
16.20
17.04
17.73
18.37
18.98
19.49
19.79
19.79
19.55
19.24
19.08
19.24
19.72
20.38
20.99
21.32
21.23
20.66
19.59
18.08
16.24
14.23
12.20
10.25
8.37
6.48
4.45
2.23
-0.15
-2.61
-5.03
-7.34
-9.48
-11.45
-13.30
-15.13
-17.11
-19.43
-22.23
-25.55
-29.28
-33.18
-36.94
-40.16
-42.41
-43.24
-42.28
-39.35
-34.62
-28.47
-21.55
-14.54
-7.97
-2.18
2.71
6.73
9.97
12.52
14.44
15.83
16.88
17.81
18.83
20.04
21.39
22.71
23.83
24.65
25.19
25.54
25.83
26.10
26.28
26.24
25.81
24.91
23.54
21.78
19.79
17.76
15.82
14.03
12.39
10.86
9.37
7.84
6.20
4.34
2.18
-0.33
-3.16
-6.18
-9.24
-12.20
-15.06
-17.91
-20.91
-24.23
-27.96
-32.09
-36.48
-40.90
-44.95
-48.16
-49.99
-49.95
-47.77
-43.49
-37.51
-30.46
-23.06
-15.92
-9.41
-3.71
1.19
5.30
8.64
11.21
13.01
14.18
14.94
15.55
16.22
17.04
17.94
18.75
19.30
19.51
19.45
19.27
19.12
19.10
19.22
19.37
19.39
19.09
18.35
17.09
15.32
13.14
10.67
8.04
5.33
2.59
-0.16
-2.85
-5.40
-7.73
-9.81
-11.74
-13.71
-16.02
-18.91
-22.52
-26.74
-31.26
-35.58
-39.12
-41.33
-41.77
-40.22
-36.75
-31.65
-25.48
-18.83
-12.27
-6.19
-0.79
3.87
7.76
10.86
13.13
14.59
15.41
15.79
15.94
16.03
16.08
16.05
15.95
15.87
15.95
16.33
17.02
17.92
18.79
19.37
19.48
19.04
18.04
16.48
14.36
11.69
8.49
4.90
1.07
-2.80
-6.54
-10.08
-13.41
-16.56
-19.58
-22.58
-25.68
-28.96
-32.39
-35.71
-38.44
-39.94
-39.61
-37.15
-32.65
-26.58
-19.65
-12.57
-5.91
0.03
5.13
9.42
12.94
15.77
17.97
19.61
20.78
21.57
22.09
22.42
22.64
22.79
22.90
22.99
23.07
23.12
23.14
23.12
23.02
22.76
22.26
21.43
20.20
18.59
16.62
14.41
12.06
9.64
7.14
4.49
1.61
-1.54
-4.92
-8.39
-11.82
-15.11
-18.26
-21.40
-24.71
-28.32
-32.21
-36.18
-39.78
-42.37
-43.31
-42.12
-38.64
-33.17
-26.34
-18.98
-11.82
-5.36
0.21
4.93
8.93
12.37
15.34
17.90
20.15
22.15
23.97
25.58
26.94
27.94
28.53
28.75
28.74
28.69
28.75
29.02
29.45
29.91
30.22
30.17
29.56
28.34
26.51
24.22
21.67
18.99
16.22
13.33
10.28
7.06
3.78
0.55
-2.53
-5.45
-8.32
-11.22
-14.17
-17.16
-20.14
-23.20
-26.53
-30.38
-34.83
-39.74
-44.61
-48.78
-51.52
-52.29
-50.86
-47.26
-41.78
-34.87
-27.11
-19.11
-11.47
-4.62
1.21
6.02
9.98
13.29
16.13
18.60
20.72
22.47
23.82
24.77
25.31
25.51
25.49
25.41
25.46
25.73
26.19
26.67
26.95
26.74
25.90
24.38
22.35
20.05
17.77
15.67
13.74
11.76
9.43
6.55
3.10
-0.69
-4.46
-7.91
-10.86
-13.40
-15.75
-18.25
-21.17
-24.66
-28.67
-32.90
-36.87
-39.92
-41.45
-41.04
-38.54
-34.07
-28.06
-21.01
-13.52
-6.15
0.65
6.56
11.41
15.24
18.14
20.25
21.68
22.52
22.89
22.98
23.05
23.35
24.00
24.97
26.09
27.13
27.96
28.56
29.08
29.64
30.25
30.78
30.94
30.48
29.26
27.37
25.03
22.57
20.19
17.97
15.83
13.63
11.25
8.67
5.94
3.09
0.11
-3.05
-6.36
-9.78
-13.22
-16.55
-19.75
-22.87
-26.08
-29.59
-33.55
-37.99
-42.70
-47.22
-50.83
-52.80
-52.52
-49.79
-44.79
-38.12
-30.51
-22.68
-15.15
-8.16
-1.84
3.78
8.64
12.69
15.92
18.38
20.28
21.81
23.20
24.54
25.86
27.14
28.29
29.32
30.24
31.08
31.84
32.45
32.83
32.94
32.84
32.60
32.29
31.87
31.23
30.25
28.89
27.24
25.48
23.76
22.15
20.56
18.79
16.71
14.32
11.74
9.22
6.93
4.89
2.92
0.78
-1.80
-4.86
-8.26
-11.72
-14.92
-17.73
-20.21
-22.68
-25.52
-29.01
-33.23
-37.96
-42.79
-47.16
-50.51
-52.28
-52.06
-49.64
-45.09
-38.83
-31.52
-23.89
-16.60
-10.03
-4.30
0.66
4.94
8.57
11.50
13.67
15.11
15.98
16.53
16.98
17.53
18.26
19.23
20.44
21.87
23.37
24.77
25.85
26.47
26.60
26.29
25.70
24.87
23.81
22.43
20.69
18.61
16.26
13.75
11.14
8.39
5.50
2.53
-0.38
-3.02
-5.25
-7.09
-8.74
-10.50
-12.57
-14.96
-17.51
-19.97
-22.19
-24.19
-26.21
-28.52
-31.33
-34.66
-38.31
-41.90
-44.99
-47.12
-47.86
-46.90
-44.08
-39.51
-33.58
-26.88
-20.03
-13.54
-7.70
-2.56
1.94
5.87
9.25
12.04
14.22
15.86
17.14
18.28
19.44
20.71
22.03
23.33
24.55
25.70
26.82
27.91
28.92
29.72
30.12
30.06
29.56
28.75
27.82
26.89
25.98
24.95
23.58
21.68
19.21
16.23
12.96
9.67
6.56
3.75
1.20
-1.26
-3.87
-6.79
-10.07
-13.61
-17.22
-20.69
-23.87
-26.70
-29.27
-31.76
-34.43
-37.52
-41.13
-45.07
-48.86
-51.70
-52.80
-51.55
-47.84
-42.00
-34.75
-26.87
-19.02
-11.64
-4.94
0.96
5.96
10.06
13.27
15.75
17.67
19.25
20.63
21.92
23.20
24.48
25.74
26.90
27.85
28.50
28.86
29.01
29.04
28.99
28.79
28.32
27.50
26.38
25.11
23.83
22.61
21.35
19.88
18.02
15.75
13.17
10.53
8.01
5.62
3.30
0.85
-1.82
-4.71
-7.66
-10.53
-13.18
-15.60
-17.87
-20.15
-22.60
-25.39
-28.62
-32.36
-36.49
-40.72
-44.57
-47.39
-48.54
-47.54
-44.21
-38.75
-31.71
-23.82
-15.86
-8.48
-2.09
3.16
7.29
10.39
12.62
14.14
15.13
15.81
16.38
16.98
17.62
18.25
18.73
19.01
19.13
19.29
19.75
20.75
22.29
24.14
25.80
26.72
26.47
24.93
22.37
19.23
16.05
13.19
10.72
8.54
6.39
4.08
1.55
-1.11
-3.73
-6.19
-8.35
-10.25
-11.96
-13.67
-15.66
-18.21
-21.52
-25.57
-30.00
-34.20
-37.40
-38.93
-38.41
-35.84
-31.51
-25.86
-19.30
-12.15
-4.63
3.02
10.44
17.14
22.58
26.44
28.74
30.07
31.29
33.36
36.76
41.34
46.36
50.79
53.90
55.56
56.29
57.10
59.09
63.14
69.62
78.04
86.70
92.59
91.72
80.21
55.86
19.45
-24.82
-70.36
-110.20
-139.29
-155.69
-160.63
-157.14
-148.50
-137.07
-124.18
-110.64
-97.46
-86.00
-77.73
-73.51
-73.21
-75.65
-79.13
-81.94
-82.84
-81.23
-77.01
-70.34
-61.52
-50.84
-38.62
-25.33
-11.59
1.77
13.86
23.78
30.90
35.06
36.69
36.79
36.58
37.08
38.77
41.50
44.64
47.54
49.80
51.41
52.59
53.58
54.37
54.74
54.36
52.95
50.47
47.08
43.11
38.94
34.86
31.06
27.53
24.09
20.57
16.82
12.88
8.88
5.06
1.56
-1.56
-4.45
-7.34
-10.51
-14.16
-18.37
-23.04
-27.85
-32.36
-36.01
-38.29
-38.82
-37.42
-34.17
-29.39
-23.57
-17.25
-10.99
-5.16
0.02
4.52
8.43
11.86
14.90
17.57
19.86
21.77
23.27
24.33
24.92
25.10
24.98
24.78
24.70
24.85
25.19
25.53
25.61
25.26
24.41
23.08
21.37
19.28
16.78
13.85
10.53
7.00
3.46
0.08
-3.08
-6.10
-9.16
-12.46
-16.15
-20.28
-24.80
-29.50
-34.03
-37.85
-40.30
-40.71
-38.63
-33.99
-27.19
-19.04
-10.49
-2.35
4.90
11.10
16.33
20.69
24.17
26.65
28.01
28.25
27.59
26.40
25.11
24.13
23.68
23.74
24.13
24.54
24.67
24.32
23.50
22.32
20.94
19.42
17.68
15.53
12.80
9.43
5.50
1.21
-3.20
-7.59
-11.96
-16.40
-21.00
-25.81
-30.74
-35.54
-39.78
-42.97
-44.54
-44.09
-41.44
-36.69
-30.20
-22.58
-14.43
-6.32
1.29
8.13
14.03
18.88
22.65
25.37
27.17
28.27
28.94
29.40
29.76
30.01
30.06
29.86
29.47
29.02
28.67
28.49
28.39
28.19
27.64
26.58
24.92
22.68
19.91
16.67
13.00
8.97
4.73
0.47
-3.67
-7.62
-11.45
-15.38
-19.61
-24.29
-29.38
-34.57
-39.34
-43.02
-44.97
-44.68
-42.01
-37.10
-30.51
-22.92
-15.01
-7.32
-0.14
6.37
12.12
17.01
20.88
23.57
25.05
25.48
25.15
24.49
23.84
23.41
23.21
23.16
23.13
23.10
23.12
23.29
23.67
24.16
24.59
24.67
24.19
23.02
21.19
18.85
16.22
13.50
10.83
8.29
5.84
3.40
0.82
-2.01
-5.11
-8.42
-11.73
-14.87
-17.66
-20.11
-22.40
-24.81
-27.72
-31.37
-35.85
-40.94
-46.23
-51.06
-54.68
-56.33
-55.39
-51.54
-44.93
-36.21
-26.35
-16.45
-7.32
0.64
7.44
13.31
18.47
22.99
26.73
29.57
31.54
32.81
33.66
34.29
34.77
35.02
34.95
34.63
34.29
34.23
34.65
35.55
36.63
37.48
37.70
37.03
35.49
33.27
30.67
27.93
25.21
22.52
19.86
17.21
14.53
11.85
9.20
6.56
3.91
1.29
-1.27
-3.69
-5.89
-7.92
-9.92
-12.11
-14.71
-17.87
-21.58
-25.70
-30.01
-34.31
-38.55
-42.74
-46.99
-51.28
-55.41
-58.85
-60.86
-60.71
-57.90
-52.42
-44.81
-36.05
-27.25
-19.38
-13.03
-8.27
-4.75
-1.75
1.60
6.20
12.68
21.21
31.33
41.72
50.37
55.03
53.89
46.21
32.77
15.55
-2.79
-19.83
-33.97
-44.62
-51.82
-55.75
-56.36
-53.43
-46.87
-37.15
-25.40
-13.23
-2.25
6.38
12.17
15.29
16.26
15.70
14.06
11.60
8.40
4.52
0.05
-4.82
-9.85
-14.85
-19.69
-24.40
-29.08
-33.96
-39.26
-45.18
-51.86
-59.17
-66.66
-73.43
-78.23
-79.63
-76.50
-68.39
-55.74
-39.83
-22.38
-5.09
10.80
24.60
36.10
45.31
52.25
56.91
59.36
59.90
59.09
57.66
56.24
55.20
54.63
54.38
54.29
54.26
54.35
54.66
55.17
55.72
56.00
55.67
54.52
52.58
50.07
47.28
44.49
41.80
39.16
36.42
33.46
30.21
26.78
23.37
20.17
17.32
14.83
12.54
10.26
7.85
5.16
2.19
-1.01
-4.39
-7.86
-11.36
-14.82
-18.21
-21.59
-25.06
-28.77
-32.84
-37.20
-41.57
-45.44
-48.19
-49.21
-48.09
-44.66
-39.11
-31.90
-23.72
-15.27
-7.19
0.12
6.44
11.72
16.01
19.38
21.89
23.68
24.94
25.89
26.73
27.55
28.34
29.03
29.52
29.82
29.98
30.13
30.33
30.61
30.87
30.93
30.60
29.73
28.32
26.50
24.48
22.49
20.66
19.00
17.37
15.63
13.69
11.49
9.09
6.57
4.05
1.64
-0.58
-2.66
-4.70
-6.89
-9.35
-12.06
-14.87
-17.56
-19.94
-21.99
-23.85
-25.80
-28.12
-31.01
-34.51
-38.53
-42.80
-46.88
-50.24
-52.27
-52.44
-50.46
-46.36
-40.49
-33.48
-26.03
-18.76
-12.11
-6.31
-1.43
2.52
5.60
7.83
9.32
10.17
10.57
10.67
10.63
10.58
10.64
10.87
11.27
11.79
12.32
12.71
12.86
12.69
12.17
11.32
10.14
8.63
6.82
4.72
2.41
-0.05
-2.63
-5.28
-7.89
-10.35
-12.49
-14.21
-15.47
-16.31
-16.77
-16.94
-16.83
-16.51
-16.18
-16.11
-16.65
-18.16
-20.73
-24.26
-28.33
-32.39
-35.78
-37.92
-38.33
-36.68
-32.91
-27.17
-19.95
-11.92
-3.88
3.44
9.52
14.14
17.41
19.58
21.00
21.94
22.51
22.81
22.86
22.72
22.46
22.10
21.66
21.17
20.67
20.22
19.90
19.73
19.63
19.46
19.07
18.34
17.31
16.01
14.50
12.77
10.78
8.53
6.09
3.56
1.03
-1.47
-4.00
-6.61
-9.30
-11.98
-14.56
-17.01
-19.48
-22.21
-25.48
-29.44
-33.93
-38.55
-42.62
-45.41
-46.27
-44.89
-41.33
-36.01
-29.64
-22.97
-16.57
-10.77
-5.60
-0.99
3.17
6.88
10.03
12.50
14.30
15.58
16.58
17.55
18.63
19.78
20.90
21.90
22.75
23.57
24.41
25.24
25.96
26.36
26.35
25.93
25.18
24.18
22.95
21.42
19.50
17.19
14.54
11.61
8.50
5.18
1.66
-2.01
-5.71
-9.28
-12.59
-15.66
-18.64
-21.81
-25.41
-29.58
-34.26
-39.16
-43.82
-47.64
-49.98
-50.34
-48.46
-44.43
-38.61
-31.63
-24.17
-16.88
-10.22
-4.43
0.46
4.58
8.03
10.96
13.42
15.44
17.06
18.44
19.70
20.99
22.35
23.75
25.06
26.20
27.13
27.89
28.51
28.98
29.25
29.19
28.70
27.69
26.13
24.06
21.55
18.72
15.69
12.57
9.44
6.31
3.17
-0.02
-3.24
-6.42
-9.49
-12.39
-15.11
-17.73
-20.38
-23.20
-26.34
-29.90
-33.91
-38.25
-42.60
-46.45
-49.14
-50.06
-48.84
-45.42
-40.14
-33.54
-26.26
-18.84
-11.69
-5.07
0.83
5.91
10.11
13.42
15.91
17.67
18.83
19.51
19.86
20.04
20.21
20.45
20.82
21.30
21.84
22.46
23.16
23.95
24.75
25.32
25.40
24.72
23.23
21.07
18.55
15.99
13.54
11.19
8.76
6.11
3.21
0.17
-2.81
-5.60
-8.24
-10.90
-13.83
-17.22
-21.15
-25.55
-30.22
-34.82
-38.84
-41.71
-42.77
-41.55
-37.88
-31.99
-24.55
-16.43
-8.52
-1.41
4.66
9.75
14.14
18.00
21.38
24.21
26.38
27.92
29.00
29.80
30.45
30.96
31.23
31.25
31.10
31.03
31.25
31.91
32.90
33.97
34.81
35.17
34.95
34.17
32.99
31.57
30.09
28.62
27.08
25.32
23.15
20.50
17.51
14.47
11.72
9.49
7.72
6.14
4.37
2.06
-0.87
-4.26
-7.70
-10.78
-13.22
-15.04
-16.51
-18.03
-19.95
-22.36
-25.10
-27.77
-29.95
-31.23
-31.31
-29.89
-26.63
-21.18
-13.24
-2.85
9.56
23.25
37.49
51.73
65.62
78.56
89.28
95.82
95.91
87.98
71.84
49.07
22.40
-5.25
-31.60
-55.24
-75.14
-90.02
-98.10
-97.61
-87.66
-69.15
-44.91
-18.95
4.64
22.81
34.09
38.59
37.53
32.60
25.57
18.00
11.16
5.93
2.73
1.51
1.78
2.79
3.72
3.91
2.99
0.97
-1.84
-4.95
-7.88
-10.29
-12.09
-13.45
-14.72
-16.33
-18.49
-21.20
-24.15
-26.90
-29.12
-30.78
-32.25
-34.03
-36.58
-39.97
-43.81
-47.34
-49.72
-50.30
-48.77
-45.26
-40.15
-33.98
-27.30
-20.63
-14.36
-8.74
-3.87
0.29
3.82
6.79
9.21
11.04
12.32
13.21
13.99
14.94
16.21
17.75
19.35
20.79
21.99
23.04
24.11
25.31
26.54
27.51
27.90
27.47
26.24
24.44
22.34
20.21
18.16
16.19
14.26
12.29
10.23
8.04
5.71
3.25
0.69
-1.90
-4.44
-6.85
-9.12
-11.32
-13.54
-15.90
-18.46
-21.26
-24.31
-27.63
-31.16
-34.82
-38.41
-41.54
-43.67
-44.23
-42.75
-39.07
-33.44
-26.40
-18.73
-11.17
-4.22
1.83
6.94
11.21
14.73
17.57
19.73
21.24
22.14
22.58
22.71
22.74
22.80
23.02
23.44
24.02
24.70
25.40
26.02
26.47
26.66
26.52
26.01
25.10
23.81
22.19
20.25
18.02
15.48
12.66
9.62
6.50
3.48
0.74
-1.62
-3.61
-5.36
-7.10
-9.02
-11.23
-13.69
-16.25
-18.76
-21.14
-23.46
-25.95
-28.80
-32.16
-35.94
-39.89
-43.56
-46.39
-47.83
-47.42
-44.95
-40.45
-34.28
-27.04
-19.43
-12.12
-5.58
-0.04
4.47
8.10
11.14
13.82
16.31
18.63
20.68
22.32
23.47
24.17
24.57
24.94
25.46
26.26
27.30
28.48
29.59
30.45
30.91
30.85
30.22
29.09
27.58
25.88
24.13
22.43
20.73
19.01
17.11
14.93
12.42
9.60
6.59
3.58
0.68
-2.05
-4.67
-7.27
-9.94
-12.67
-15.42
-18.14
-20.85
-23.70
-26.85
-30.41
-34.37
-38.53
-42.54
-45.99
-48.36
-49.19
-48.12
-45.02
-40.07
-33.68
-26.48
-19.11
-12.15
-6.01
-0.94
3.01
5.95
8.11
9.77
11.18
12.43
13.48
14.23
14.63
14.78
14.93
15.35
16.17
17.30
18.48
19.38
19.80
19.70
19.22
18.54
17.74
16.72
15.28
13.29
10.70
7.70
4.57
1.58
-1.11
-3.53
-5.78
-8.03
-10.37
-12.85
-15.49
-18.28
-21.28
-24.53
-28.10
-31.97
-36.05
-40.15
-43.94
-46.97
-48.74
-48.75
-46.71
-42.53
-36.50
-29.18
-21.29
-13.49
-6.29
0.08
5.57
10.23
14.09
17.15
19.43
21.02
22.11
22.92
23.64
24.35
25.05
25.70
26.29
26.90
27.58
28.35
29.11
29.67
29.84
29.48
28.55
27.09
25.15
22.79
20.12
17.29
14.50
11.89
9.54
7.37
5.17
2.71
-0.13
-3.31
-6.63
-9.80
-12.61
-14.98
-17.08
-19.29
-22.02
-25.62
-30.12
-35.26
-40.48
-45.08
-48.38
-49.84
-49.16
-46.28
-41.39
-34.88
-27.31
-19.32
-11.48
-4.27
2.05
7.38
11.76
15.27
18.04
20.21
21.93
23.36
24.68
26.00
27.34
28.67
29.89
30.96
31.91
32.84
33.89
35.05
36.21
37.03
37.20
36.49
34.95
32.84
30.58
28.49
26.71
25.17
23.70
22.11
20.27
18.16
15.77
13.12
10.23
7.17
4.04
0.92
-2.13
-5.15
-8.18
-11.31
-14.50
-17.63
-20.56
-23.22
-25.74
-28.40
-31.55
-35.35
-39.71
-44.18
-48.02
-50.45
-50.80
-48.75
-44.34
-37.95
-30.25
-21.97
-13.87
-6.52
-0.29
4.71
8.63
11.72
14.24
16.39
18.20
19.62
20.60
21.08
21.13
20.87
20.47
20.10
19.99
20.30
21.10
22.31
23.64
24.75
25.25
24.89
23.59
21.51
18.97
16.30
13.77
11.49
9.40
7.30
4.98
2.30
-0.68
-3.83
-6.90
-9.72
-12.29
-14.71
-17.22
-20.11
-23.54
-27.53
-31.88
-36.15
-39.76
-42.07
-42.53
-40.83
-37.01
-31.37
-24.45
-16.84
-9.05
-1.44
5.70
12.16
17.65
21.92
24.84
26.53
27.41
28.09
29.11
30.75
32.92
35.19
37.13
38.48
39.36
40.22
41.65
44.01
47.25
50.88
54.10
56.16
56.60
55.46
53.23
50.67
48.59
47.63
48.08
49.74
51.80
52.77
50.69
43.68
30.65
11.81
-11.23
-35.97
-59.93
-81.37
-99.67
-114.93
-127.35
-136.65
-141.99
-142.43
-137.47
-127.57
-114.02
-98.52
-82.60
-67.21
-52.72
-39.21
-26.76
-15.65
-6.23
1.27
6.89
11.03
14.20
16.89
19.34
21.53
23.33
24.59
25.30
25.60
25.76
26.06
26.75
27.89
29.38
30.94
32.21
32.88
32.77
31.92
30.57
28.99
27.36
25.73
24.03
22.16
20.08
17.81
15.41
12.96
10.50
8.03
5.57
3.11
0.59
-2.00
-4.75
-7.70
-10.82
-14.03
-17.30
-20.70
-24.42
-28.66
-33.46
-38.61
-43.56
-47.57
-49.97
-50.28
-48.36
-44.40
-38.82
-32.14
-24.96
-17.80
-11.06
-4.96
0.49
5.40
9.85
13.75
16.90
19.06
20.22
20.63
20.75
21.04
21.76
22.84
24.04
25.12
26.02
26.85
27.77
28.85
29.91
30.65
30.74
30.02
28.55
26.61
24.52
22.57
20.86
19.30
17.71
15.93
13.90
11.68
9.45
7.33
5.41
3.66
1.92
-0.00
-2.29
-4.99
-8.06
-11.32
-14.59
-17.71
-20.67
-23.61
-26.72
-30.21
-34.17
-38.56
-43.15
-47.62
-51.43
-54.04
-54.92
-53.69
-50.25
-44.81
-37.86
-30.05
-22.14
-14.77
-8.46
-3.48
0.16
2.61
4.15
5.04
5.47
5.55
5.37
5.06
4.81
4.88
5.47
6.65
8.30
10.22
12.16
13.94
15.43
16.57
17.28
17.48
17.11
16.24
15.01
13.67
12.43
11.34
10.26
8.92
7.06
4.67
1.96
-0.58
-2.41
-3.05
-2.26
-0.06
3.32
7.50
12.08
16.63
20.73
24.02
26.20
27.07
26.67
25.21
23.06
20.68
18.47
16.75
15.70
15.36
15.65
16.44
17.55
18.81
20.09
21.29
22.32
23.12
23.63
23.77
23.54
22.99
22.15
21.09
19.86
18.47
16.92
15.24
13.51
11.84
10.32
8.99
7.80
6.66
5.44
4.06
2.46
0.63
-1.38
-3.49
-5.66
-7.83
-9.93
-11.94
-13.82
-15.57
-17.27
-19.00
-20.84
-22.87
-25.07
-27.42
-29.90
-32.49
-35.28
-38.40
-41.93
-45.78
-49.67
-53.05
-55.33
-56.00
-54.78
-51.66
-46.91
-40.87
-33.95
-26.51
-18.92
-11.54
-4.77
1.12
5.94
9.65
12.39
14.31
15.63
16.54
17.19
17.69
18.11
18.48
18.83
19.24
19.79
20.55
21.53
22.58
23.55
24.23
24.48
24.20
23.41
22.16
20.55
18.78
16.97
15.29
13.76
12.30
10.74
8.94
6.76
4.22
1.41
-1.59
-4.64
-7.68
-10.62
-13.45
-16.17
-18.94
-21.94
-25.37
-29.31
-33.62
-37.89
-41.55
-43.87
-44.31
-42.54
-38.66
-33.12
-26.62
-19.88
-13.47
-7.73
-2.76
1.39
4.74
7.27
8.98
9.91
10.23
10.16
9.92
9.69
9.53
9.44
9.45
9.59
9.95
10.60
11.55
12.66
13.69
14.31
14.23
13.26
11.42
8.90
5.98
2.96
0.01
-2.80
-5.48
-8.06
-10.60
-13.10
-15.51
-17.84
-20.07
-22.24
-24.43
-26.77
-29.43
-32.54
-36.06
-39.67
-42.82
-44.87
-45.24
-43.64
-40.13
-35.03
-28.80
-21.95
-14.93
-8.15
-1.98
3.29
7.47
10.63
13.03
15.00
16.83
18.62
20.24
21.47
22.16
22.31
22.19
22.15
22.48
23.29
24.47
25.78
26.96
27.85
28.34
28.34
27.72
26.35
24.20
21.41
18.30
15.25
12.53
10.16
7.93
5.50
2.59
-0.85
-4.61
-8.33
-11.70
-14.63
-17.34
-20.24
-23.74
-28.07
-33.10
-38.38
-43.23
-46.93
-48.87
-48.68
-46.22
-41.59
-35.17
-27.52
-19.37
-11.47
-4.41
1.49
6.25
10.12
13.48
16.56
19.44
22.01
24.12
25.71
26.86
27.74
28.51
29.25
29.97
30.65
31.28
31.95
32.72
33.63
34.60
35.48
36.08
36.22
35.79
34.75
33.13
31.08
28.79
26.52
24.43
22.55
20.74
18.80
16.52
13.83
10.80
7.61
4.40
1.28
-1.74
-4.70
-7.64
-10.60
-13.65
-16.89
-20.45
-24.48
-29.09
-34.32
-40.07
-46.06
-51.79
-56.63
-59.89
-61.02
-59.72
-56.03
-50.34
-43.25
-35.45
-27.57
-20.09
-13.35
-7.56
-2.78
1.02
3.93
6.12
7.69
8.77
9.47
9.84
9.96
9.93
9.93
10.25
11.25
13.20
16.16
19.77
23.35
26.05
27.16
26.42
24.05
20.67
17.04
13.80
11.37
9.98
9.66
10.34
11.83
13.78
15.77
17.39
18.36
18.57
18.08
16.96
15.23
12.88
9.95
6.57
3.04
-0.35
-3.49
-6.56
-10.02
-14.33
-19.76
-26.14
-32.99
-39.66
-45.73
-51.17
-56.40
-62.17
-69.25
-78.20
-89.02
-101.02
-112.70
-121.93
-126.44
-124.49
-115.46
-100.16
-80.56
-59.20
-38.38
-19.59
-3.29
10.81
23.32
34.78
45.40
55.08
63.56
70.59
76.10
80.18
83.00
84.78
85.66
85.76
85.23
84.31
83.37
82.82
82.88
83.50
84.23
84.37
83.21
80.36
75.90
70.37
64.52
59.02
54.19
49.98
46.17
42.54
39.00
35.56
32.21
28.79
25.13
21.11
16.81
12.49
8.41
4.61
0.83
-3.34
-8.26
-14.01
-20.33
-26.86
-33.31
-39.66
-46.18
-53.27
-61.25
-70.23
-79.90
-89.47
-97.71
-103.12
-104.21
-99.90
-89.81
-74.49
-55.25
-33.89
-12.30
7.88
25.51
40.07
51.58
60.55
67.65
73.59
78.82
83.51
87.54
90.79
93.27
95.20
97.00
99.06
101.70
104.94
108.53
112.04
114.97
116.87
117.45
116.61
114.36
110.85
106.27
100.88
95.04
88.97
82.76
76.22
68.92
60.45
50.68
39.92
28.91
18.54
9.52
2.15
-3.66
-8.22
-11.82
-14.73
-17.19
-19.49
-21.97
-24.89
-28.27
-31.88
-35.28
-38.12
-40.29
-41.96
-43.51
-45.29
-47.45
-49.91
-52.34
-54.35
-55.50
-55.44
-53.97
-51.08
-46.99
-42.05
-36.63
-30.97
-25.10
-18.94
-12.45
-5.89
0.18
4.96
7.71
8.10
6.34
3.18
-0.46
-3.75
-6.32
-8.33
-10.23
-12.49
-15.21
-18.04
-20.26
-21.14
-20.26
-17.77
-14.32
-10.83
-8.16
-6.87
-7.08
-8.59
-11.10
-14.37
-18.21
-22.47
-26.91
-31.16
-34.79
-37.43
-38.96
-39.53
-39.48
-39.28
-39.38
-40.15
-41.90
-44.80
-48.80
-53.48
-57.96
-61.01
-61.30
-57.85
-50.33
-39.19
-25.53
-10.75
3.82
17.23
28.94
38.73
46.58
52.53
56.69
59.25
60.56
61.00
60.90
60.40
59.40
57.65
54.89
50.98
46.03
40.37
34.45
28.70
23.42
18.68
14.34
10.14
5.79
1.17
-3.64
-8.29
-12.30
-15.22
-16.86
-17.29
-16.82
-15.90
-14.94
-14.19
-13.80
-13.75
-14.01
-14.55
-15.37
-16.46
-17.81
-19.35
-21.00
-22.68
-24.30
-25.81
-27.20
-28.48
-29.62
-30.54
-31.20
-31.59
-31.86
-32.31
-33.35
-35.28
-38.20
-41.86
-45.74
-49.28
-52.09
-54.17
-55.94
-58.03
-61.17
-65.86
-72.18
-79.67
-87.20
-93.12
-95.53
-92.88
-84.44
-70.71
-53.29
-34.40
-16.22
-0.27
12.80
23.04
30.88
36.74
40.89
43.55
44.96
45.46
45.48
45.39
45.42
45.64
46.03
46.55
47.18
47.94
48.79
49.65
50.32
50.56
50.14
48.86
46.67
43.56
39.59
34.93
29.81
24.52
19.41
14.79
10.81
7.45
4.51
1.69
-1.33
-4.76
-8.64
-12.88
-17.25
-21.49
-25.41
-28.96
-32.30
-35.77
-39.83
-44.87
-51.03
-57.97
-64.76
-70.03
-72.22
-70.09
-63.13
-51.77
-37.33
-21.66
-6.65
6.21
16.14
23.05
27.38
29.87
31.29
32.22
32.94
33.50
33.73
33.48
32.71
31.52
30.18
28.96
28.03
27.39
26.96
26.53
25.89
24.88
23.34
21.10
18.08
14.21
9.52
4.17
-1.63
-7.63
-13.61
-19.43
-24.95
-30.09
-34.78
-38.98
-42.72
-46.16
-49.52
-53.18
-57.46
-62.58
-68.34
-74.01
-78.31
-79.68
-76.75
-68.90
-56.53
-41.07
-24.51
-8.78
4.78
15.66
24.01
30.22
34.70
37.61
38.99
38.95
37.78
35.95
34.02
32.42
31.37
30.86
30.76
30.91
31.18
31.46
31.59
31.31
30.35
28.49
25.73
22.24
18.28
14.12
9.80
5.20
0.15
-5.48
-11.58
-17.89
-24.10
-29.96
-35.39
-40.48
-45.43
-50.55
-56.13
-62.42
-69.42
-76.68
-83.20
-87.48
-87.94
-83.38
-73.51
-59.11
-41.86
-23.83
-6.85
7.85
19.76
28.95
35.78
40.60
43.67
45.21
45.39
44.56
43.11
41.48
39.96
38.79
38.04
37.77
38.01
38.78
40.02
41.47
42.76
43.44
43.23
42.04
40.05
37.54
34.74
31.81
28.75
25.50
21.96
18.14
14.04
9.79
5.58
1.58
-2.07
-5.41
-8.69
-12.24
-16.31
-20.98
-26.02
-31.05
-35.71
-39.87
-43.73
-47.75
-52.55
-58.64
-66.18
-74.78
-83.37
-90.33
-93.82
-92.28
-84.87
-71.82
-54.34
-34.43
-14.28
4.23
19.85
32.11
41.16
47.53
51.82
54.50
55.89
56.21
55.75
54.82
53.83
53.10
52.77
52.80
53.06
53.48
54.05
54.87
55.96
57.21
58.26
58.65
57.94
55.91
52.63
48.41
43.73
39.04
34.61
30.51
26.55
22.49
18.16
13.55
8.86
4.43
0.53
-2.77
-5.63
-8.45
-11.65
-15.55
-20.20
-25.32
-30.46
-35.15
-39.15
-42.55
-45.82
-49.67
-54.81
-61.65
-70.01
-78.93
-86.71
-91.33
-90.99
-84.71
-72.66
-56.19
-37.42
-18.60
-1.60
12.44
23.17
30.80
35.91
39.12
40.96
41.79
41.86
41.33
40.41
39.36
38.45
37.91
37.88
38.37
39.39
40.90
42.81
44.95
46.95
48.39
48.82
47.99
45.93
42.91
39.36
35.68
32.10
28.64
25.13
21.33
17.05
12.28
7.20
2.12
-2.67
-7.06
-11.16
-15.28
-19.72
-24.60
-29.79
-34.94
-39.64
-43.67
-47.08
-50.27
-53.87
-58.53
-64.68
-72.33
-80.81
-88.77
-94.40
-95.81
-91.64
-81.49
-66.12
-47.24
-27.03
-7.55
9.66
23.80
34.68
42.51
47.66
50.53
51.51
51.02
49.51
47.54
45.61
44.12
43.22
42.85
42.79
42.85
42.96
43.20
43.68
44.40
45.14
45.52
45.14
43.78
41.46
38.42
34.99
31.43
27.78
23.97
19.78
15.15
10.09
4.88
-0.15
-4.73
-8.74
-12.30
-15.71
-19.25
-23.12
-27.30
-31.57
-35.67
-39.43
-42.86
-46.24
-49.94
-54.34
-59.72
-66.20
-73.51
-80.99
-87.47
-91.39
-91.10
-85.39
-74.01
-57.90
-38.96
-19.57
-1.81
13.02
24.54
33.03
39.03
42.98
45.18
45.85
45.34
44.15
42.81
41.73
41.10
40.81
40.62
40.36
40.08
40.02
40.54
41.87
43.92
46.26
48.21
49.10
48.54
46.50
43.32
39.46
35.34
31.11
26.77
22.18
17.28
12.12
6.95
2.03
-2.38
-6.17
-9.39
-12.26
-15.08
-18.16
-21.69
-25.69
-29.95
-34.17
-38.06
-41.52
-44.72
-48.13
-52.32
-57.76
-64.58
-72.31
-79.83
-85.44
-87.32
-83.99
-74.89
-60.56
-42.64
-23.34
-4.87
11.16
23.95
33.44
39.98
44.08
46.15
46.55
45.63
43.82
41.58
39.30
37.34
35.83
34.83
34.36
34.38
34.88
35.79
36.94
38.08
38.91
39.13
38.58
37.20
35.08
32.46
29.53
26.44
23.17
19.69
15.88
11.71
7.26
2.70
-1.77
-6.04
-10.08
-13.99
-17.89
-21.88
-25.92
-29.89
-33.65
-37.08
-40.20
-43.21
-46.45
-50.36
-55.31
-61.45
-68.52
-75.72
-81.65
-84.65
-83.14
-76.22
-63.99
-47.61
-28.95
-10.15
7.01
21.41
32.58
40.65
45.93
48.82
49.71
48.96
47.03
44.47
41.85
39.63
38.14
37.46
37.48
38.00
38.80
39.73
40.64
41.36
41.65
41.26
40.03
37.91
35.03
31.58
27.77
23.70
19.39
14.85
10.19
5.54
1.12
-2.88
-6.46
-9.72
-12.93
-16.36
-20.16
-24.33
-28.64
-32.80
-36.57
-39.90
-43.01
-46.32
-50.37
-55.64
-62.29
-70.01
-77.80
-84.11
-87.08
-85.11
-77.38
-64.19
-47.03
-28.05
-9.56
6.65
19.61
29.18
35.79
39.98
42.22
42.76
41.76
39.43
36.15
32.49
29.07
26.35
24.58
23.72
23.62
24.06
24.88
25.98
27.21
28.32
28.96
28.80
27.60
25.28
22.02
18.09
13.81
9.40
4.99
0.59
-3.86
-8.47
-13.34
-18.51
-23.88
-29.25
-34.29
-38.72
-42.39
-45.43
-48.27
-51.54
-55.94
-61.87
-69.21
-77.10
-84.06
-88.24
-87.93
-82.10
-70.79
-55.12
-36.95
-18.34
-1.02
13.91
25.92
34.93
41.06
44.55
45.79
45.31
43.80
41.89
40.11
38.73
37.80
37.25
36.99
37.03
37.44
38.28
39.54
41.08
42.58
43.66
43.92
43.06
40.91
37.51
33.11
28.09
22.93
18.02
13.54
9.40
5.28
0.80
-4.32
-10.09
-16.23
-22.33
-27.91
-32.73
-36.83
-40.50
-44.28
-48.77
-54.52
-61.81
-70.42
-79.47
-87.50
-92.69
-93.31
-88.27
-77.45
-61.79
-43.05
-23.38
-4.74
11.45
24.52
34.41
41.50
46.25
49.10
50.36
50.36
49.41
47.97
46.51
45.41
44.91
45.01
45.57
46.37
47.29
48.21
49.02
49.57
49.63
48.99
47.51
45.23
42.33
39.05
35.56
31.92
28.09
24.02
19.70
15.24
10.80
6.52
2.44
-1.52
-5.53
-9.75
-14.25
-19.03
-24.01
-29.04
-33.94
-38.56
-42.87
-47.03
-51.46
-56.76
-63.50
-71.84
-81.18
-90.03
-96.29
-97.86
-93.26
-82.27
-65.91
-46.19
-25.45
-5.74
11.51
25.61
36.39
44.01
48.72
50.89
51.07
49.88
48.10
46.40
45.25
44.78
44.84
45.09
45.25
45.21
45.07
45.12
45.57
46.40
47.33
47.81
47.24
45.15
41.42
36.29
30.29
24.03
18.02
12.52
7.45
2.57
-2.46
-7.76
-13.31
-18.84
-24.09
-28.82
-32.99
-36.67
-40.06
-43.45
-47.16
-51.65
-57.29
-64.29
-72.29
-80.26
-86.58
-89.35
-87.07
-79.08
-65.84
-48.80
-29.91
-11.15
5.94
20.42
31.93
40.47
46.28
49.70
51.06
50.75
49.20
46.85
44.19
41.63
39.47
37.88
36.85
36.33
36.27
36.64
37.38
38.33
39.17
39.45
38.70
36.59
33.16
28.80
24.11
19.72
15.96
12.77
9.67
6.12
1.72
-3.57
-9.37
-15.14
-20.39
-24.88
-28.78
-32.51
-36.66
-41.78
-48.22
-55.91
-64.18
-71.77
-76.94
-77.92
-73.46
-63.30
-48.33
-30.38
-11.70
5.64
20.26
31.59
39.74
45.24
48.72
50.72
51.60
51.59
50.82
49.42
47.62
45.75
44.17
43.11
42.72
42.94
43.60
44.51
45.48
46.34
46.89
46.89
46.11
44.37
41.61
37.95
33.58
28.75
23.69
18.58
13.58
8.84
4.46
0.48
-3.25
-6.96
-10.93
-15.31
-20.06
-24.96
-29.71
-34.10
-38.10
-41.90
-45.78
-50.13
-55.29
-61.47
-68.60
-76.11
-82.85
-87.17
-87.30
-81.94
-70.80
-54.86
-36.06
-16.77
0.92
15.73
27.21
35.61
41.40
45.00
46.71
46.81
45.66
43.76
41.64
39.73
38.24
37.21
36.60
36.39
36.60
37.28
38.35
39.62
40.71
41.25
40.92
39.60
37.33
34.36
30.95
27.40
23.88
20.44
16.97
13.34
9.43
5.27
1.01
-3.10
-6.82
-10.08
-13.04
-15.99
-19.25
-23.02
-27.22
-31.60
-35.86
-39.77
-43.38
-47.01
-51.14
-56.25
-62.60
-69.99
-77.66
-84.32
-88.33
-88.09
-82.62
-71.81
-56.59
-38.69
-20.11
-2.68
12.37
24.47
33.54
39.79
43.52
45.10
44.97
43.71
41.94
40.22
38.88
38.03
37.54
37.23
36.98
36.83
36.89
37.25
37.87
38.56
39.04
39.04
38.37
36.97
34.86
32.18
29.07
25.68
22.12
18.48
14.75
10.93
7.05
3.20
-0.48
-3.85
-6.84
-9.58
-12.26
-15.20
-18.64
-22.67
-27.22
-32.04
-36.79
-41.17
-45.04
-48.44
-51.65
-55.13
-59.35
-64.58
-70.64
-76.75
-81.59
-83.54
-81.23
-73.91
-61.84
-46.18
-28.73
-11.39
4.23
17.13
26.89
33.60
37.62
39.46
39.69
38.87
37.56
36.21
35.16
34.57
34.42
34.60
34.99
35.48
36.03
36.66
37.32
37.93
38.29
38.16
37.35
35.76
33.46
30.52
27.10
23.27
19.08
14.61
9.98
5.37
1.03
-2.87
-6.28
-9.25
-11.99
-14.73
-17.64
-20.81
-24.19
-27.67
-31.12
-34.46
-37.72
-41.05
-44.73
-49.13
-54.52
-60.91
-67.88
-74.43
-79.11
-80.41
-77.17
-69.01
-56.52
-41.07
-24.45
-8.38
5.80
17.28
25.78
31.40
34.54
35.75
35.67
34.86
33.74
32.51
31.27
30.11
29.19
28.73
28.89
29.69
30.92
32.23
33.27
33.82
33.77
33.16
31.99
30.23
27.83
24.73
21.00
16.86
12.57
8.41
4.57
1.09
-2.10
-5.15
-8.24
-11.50
-14.97
-18.59
-22.24
-25.77
-29.08
-32.13
-35.00
-37.87
-41.06
-44.97
-49.93
-56.03
-62.93
-69.72
-75.04
-77.31
-75.27
-68.31
-56.74
-41.78
-25.23
-8.98
5.43
17.03
25.59
31.35
34.84
36.57
37.02
36.57
35.59
34.40
33.33
32.57
32.15
32.01
32.06
32.28
32.71
33.39
34.30
35.27
36.06
36.43
36.17
35.21
33.54
31.19
28.25
24.77
20.88
16.72
12.50
8.37
4.48
0.89
-2.44
-5.57
-8.68
-11.93
-15.49
-19.40
-23.61
-27.90
-32.05
-35.85
-39.35
-42.85
-46.84
-51.87
-58.15
-65.42
-72.70
-78.45
-80.97
-78.91
-71.74
-59.88
-44.66
-27.86
-11.31
3.59
15.97
25.55
32.52
37.24
40.15
41.58
41.81
41.06
39.63
37.86
36.14
34.81
34.03
33.84
34.12
34.77
35.68
36.73
37.76
38.52
38.71
38.10
36.61
34.31
31.43
28.19
24.74
21.15
17.43
13.56
9.59
5.62
1.73
-2.04
-5.74
-9.48
-13.33
-17.26
-21.07
-24.46
-27.16
-29.13
-30.57
-31.86
-33.55
-36.08
-39.80
-44.86
-51.15
-58.22
-65.11
-70.41
-72.45
-69.80
-61.83
-49.01
-32.91
-15.68
0.58
14.41
25.25
33.22
38.79
42.43
44.39
44.86
44.03
42.29
40.10
37.95
36.18
34.99
34.40
34.40
34.93
35.88
37.07
38.23
39.03
39.22
38.66
37.37
35.42
32.91
29.88
26.35
22.34
17.96
13.38
8.80
4.38
0.21
-3.73
-7.49
-11.20
-14.92
-18.67
-22.37
-25.93
-29.23
-32.27
-35.13
-38.05
-41.37
-45.40
-50.47
-56.69
-63.82
-71.11
-77.29
-80.72
-79.87
-73.83
-62.66
-47.56
-30.46
-13.45
1.81
14.41
24.17
31.42
36.58
40.02
41.97
42.63
42.34
41.48
40.48
39.63
39.12
38.97
39.16
39.67
40.48
41.52
42.62
43.55
44.02
43.79
42.74
40.88
38.32
35.23
31.76
28.05
24.21
20.33
16.50
12.79
9.21
5.74
2.32
-1.16
-4.73
-8.44
-12.26
-16.20
-20.21
-24.25
-28.20
-31.94
-35.40
-38.63
-41.95
-45.85
-50.82
-57.11
-64.40
-71.72
-77.54
-80.12
-78.07
-70.79
-58.74
-43.31
-26.41
-9.93
4.77
17.00
26.66
34.00
39.35
42.98
45.14
46.06
46.05
45.44
44.53
43.54
42.62
41.88
41.43
41.40
41.87
42.82
44.12
45.49
46.61
47.19
47.04
46.09
44.38
42.04
39.25
36.22
33.21
30.40
27.85
25.39
22.68
19.32
15.02
9.77
3.88
-2.13
-7.72
-12.58
-16.71
-20.43
-24.22
-28.49
-33.43
-38.95
-44.81
-50.67
-56.35
-61.74
-66.83
-71.56
-75.90
-79.84
-83.39
-86.62
-89.34
-91.01
-90.68
-87.22
-79.80
-68.29
-53.49
-36.84
-20.01
-4.42
9.05
20.13
28.90
35.57
40.37
43.48
45.19
45.92
46.14
46.28
46.60
47.10
47.64
48.13
48.65
49.54
51.23
54.03
57.97
62.67
67.48
71.67
74.68
76.20
76.26
75.00
72.65
69.33
65.08
59.96
54.07
47.70
41.21
34.98
29.22
23.96
18.98
13.98
8.65
2.79
-3.61
-10.41
-17.32
-24.03
-30.21
-35.67
-40.37
-44.51
-48.48
-52.77
-57.80
-63.70
-69.97
-75.61
-79.15
-79.13
-74.56
-65.33
-52.27
-36.96
-21.22
-6.58
5.93
15.90
23.35
28.54
31.78
33.41
33.75
33.11
31.77
29.94
27.76
25.43
23.16
21.20
19.75
18.92
18.65
18.71
18.79
18.55
17.79
16.41
14.49
12.19
9.78
7.46
5.30
3.28
1.25
-0.95
-3.41
-6.05
-8.70
-11.11
-13.12
-14.71
-16.10
-17.72
-20.13
-23.90
-29.40
-36.65
-45.14
-53.83
-61.27
-65.95
-66.63
-62.80
-54.79
-43.80
-31.50
-19.60
-9.40
-1.55
3.97
7.60
9.88
11.15
11.52
10.95
9.41
7.13
4.54
2.26
0.84
0.63
1.64
3.62
6.13
8.63
10.60
11.62
11.36
9.68
6.61
2.32
-2.83
-8.43
-14.06
-19.24
-23.57
-26.80
-28.91
-30.12
-30.92
-31.87
-33.48
-36.06
-39.72
-44.33
-49.67
-55.30
-60.52
-64.33
-65.53
-63.08
-56.44
-45.92
-32.65
-18.31
-4.59
7.27
16.72
23.75
28.70
31.91
33.62
33.98
33.18
31.54
29.53
27.58
26.04
25.08
24.70
24.80
25.23
25.77
26.22
26.39
26.10
25.19
23.59
21.29
18.35
14.91
11.20
7.37
3.51
-0.46
-4.71
-9.42
-14.67
-20.31
-25.99
-31.28
-35.87
-39.67
-43.01
-46.49
-50.87
-56.74
-64.17
-72.51
-80.43
-86.12
-87.85
-84.48
-75.82
-62.66
-46.57
-29.43
-12.95
1.68
13.93
23.80
31.60
37.70
42.38
45.80
48.10
49.48
50.22
50.62
50.87
50.97
50.83
50.37
49.64
48.86
48.28
48.03
48.03
47.96
47.44
46.20
44.21
41.62
38.70
35.66
32.60
29.53
26.42
23.25
20.03
16.80
13.52
10.15
6.62
2.95
-0.77
-4.36
-7.71
-10.82
-13.90
-17.33
-21.45
-26.35
-31.86
-37.48
-42.68
-47.08
-50.66
-53.78
-57.09
-61.30
-67.02
-74.44
-83.28
-92.61
-100.89
-106.28
-106.99
-101.89
-90.89
-74.97
-56.03
-36.23
-17.46
-1.00
12.64
23.46
31.81
38.10
42.77
46.21
48.73
50.64
52.09
53.20
54.01
54.59
55.02
55.41
55.86
56.43
57.14
58.00
58.98
59.95
60.66
60.78
59.90
57.79
54.46
50.20
45.51
40.89
36.66
32.87
29.36
25.84
22.08
17.97
13.54
8.96
4.46
0.28
-3.44
-6.74
-9.83
-13.06
-16.77
-21.15
-26.15
-31.51
-36.89
-42.05
-46.88
-51.51
-56.25
-61.46
-67.58
-74.85
-83.23
-92.05
-99.99
-105.22
-105.96
-100.99
-90.21
-74.69
-56.42
-37.67
-20.34
-5.62
6.17
15.33
22.47
28.22
33.10
37.48
41.59
45.55
49.35
52.95
56.20
58.99
61.30
63.18
64.75
66.11
67.24
67.99
68.11
67.31
65.40
62.36
58.32
53.54
48.32
42.95
37.67
32.62
27.84
23.26
18.82
14.46
10.27
6.42
3.16
0.65
-1.11
-2.39
-3.65
-5.39
-7.95
-11.43
-15.66
-20.34
-25.19
-30.11
-35.19
-40.68
-46.84
-53.83
-61.55
-69.47
-76.62
-81.68
-83.22
-80.12
-72.01
-59.43
-43.78
-26.91
-10.60
3.87
15.89
25.43
32.80
38.38
42.43
45.10
46.51
46.83
46.39
45.59
44.78
44.21
43.97
44.00
44.27
44.77
45.51
46.46
47.48
48.30
48.62
48.19
46.92
44.82
42.02
38.65
34.82
30.68
26.40
22.18
18.18
14.48
11.04
7.72
4.38
1.00
-2.30
-5.30
-7.80
-9.78
-11.42
-13.02
-15.00
-17.67
-21.22
-25.61
-30.66
-36.11
-41.63
-46.98
-51.99
-56.76
-61.58
-66.94
-73.27
-80.60
-88.37
-95.23
-99.34
-98.88
-92.66
-80.69
-64.22
-45.44
-26.74
-10.01
3.77
14.52
22.72
28.97
33.75
37.27
39.68
41.21
42.19
43.02
44.04
45.40
47.03
48.69
50.16
51.22
51.86
52.18
52.32
52.43
52.51
52.43
51.94
50.83
48.99
46.47
43.51
40.32
37.06
33.80
30.50
27.12
23.67
20.26
17.02
14.05
11.32
8.67
5.91
2.91
-0.34
-3.70
-6.95
-9.92
-12.56
-14.99
-17.46
-20.25
-23.55
-27.30
-31.29
-35.21
-38.76
-41.78
-44.37
-46.88
-49.82
-53.69
-58.71
-64.63
-70.67
-75.50
-77.64
-75.83
-69.45
-58.70
-44.65
-28.86
-13.03
1.38
13.46
22.82
29.62
34.24
37.21
38.98
39.85
39.95
39.30
37.91
35.80
33.12
30.12
27.07
24.28
21.97
20.27
19.22
18.70
18.51
18.42
18.17
17.59
16.58
15.08
13.15
10.84
8.28
5.59
2.87
0.20
-2.37
-4.81
-7.08
-9.08
-10.80
-12.26
-13.61
-15.08
-16.90
-19.17
-21.84
-24.71
-27.56
-30.29
-33.00
-35.94
-39.44
-43.66
-48.52
-53.51
-57.76
-60.16
-59.58
-55.24
-46.95
-35.28
-21.41
-6.87
6.86
18.72
28.17
35.14
39.86
42.65
43.81
43.64
42.49
40.74
38.82
37.08
35.76
34.93
34.53
34.42
34.47
34.61
34.85
35.21
35.62
35.89
35.70
34.72
32.77
29.93
26.57
23.16
20.15
17.71
15.76
14.00
12.08
9.77
7.03
3.93
0.62
-2.74
-6.09
-9.35
-12.52
-15.61
-18.68
-21.79
-25.07
-28.62
-32.44
-36.45
-40.52
-44.55
-48.58
-52.77
-57.41
-62.64
-68.27
-73.54
-77.21
-77.82
-74.19
-65.92
-53.61
-38.75
-23.24
-8.85
3.29
12.73
19.66
24.51
27.70
29.52
30.19
30.00
29.29
28.48
27.79
27.29
26.87
26.37
25.78
25.27
25.11
25.50
26.41
27.52
28.33
28.39
27.40
25.36
22.52
19.25
15.92
12.80
10.02
7.51
5.11
2.57
-0.28
-3.42
-6.66
-9.64
-11.95
-13.26
-13.47
-12.68
-11.16
-9.27
-7.42
-5.95
-5.14
-5.11
-5.83
-7.14
-8.86
-10.90
-13.41
-16.69
-21.12
-26.91
-33.83
-41.22
-47.94
-52.69
-54.27
-51.96
-45.72
-36.23
-24.75
-12.74
-1.52
8.01
15.47
20.90
24.57
26.80
27.83
27.84
27.03
25.69
24.21
22.98
22.28
22.15
22.46
22.93
23.36
23.71
24.04
24.51
25.11
25.68
25.82
25.12
23.33
20.49
16.92
13.10
9.48
6.24
3.29
0.30
-3.09
-7.08
-11.63
-16.49
-21.32
-25.88
-30.10
-34.08
-38.01
-42.13
-46.57
-51.42
-56.65
-62.05
-67.24
-71.54
-74.05
-73.75
-69.86
-62.05
-50.76
-37.11
-22.65
-8.93
2.99
12.71
20.42
26.53
31.41
35.08
37.44
38.43
38.29
37.58
36.99
37.01
37.73
38.86
39.90
40.47
40.44
39.92
39.13
38.23
37.24
36.08
34.65
32.90
30.78
28.24
25.24
21.83
18.14
14.39
10.77
7.36
4.01
0.46
-3.51
-8.03
-13.00
-18.16
-23.23
-27.97
-32.28
-36.19
-39.91
-43.73
-48.01
-53.04
-58.91
-65.32
-71.48
-76.19
-78.08
-75.94
-69.22
-58.22
-44.09
-28.54
-13.23
0.50
11.99
21.14
28.13
33.23
36.65
38.57
39.24
39.05
38.51
38.09
38.10
38.62
39.47
40.38
41.10
41.56
41.89
42.26
42.81
43.51
44.15
44.44
44.06
42.86
40.81
38.06
34.80
31.35
27.97
24.87
22.12
19.60
17.09
14.35
11.28
7.91
4.44
1.00
-2.30
-5.59
-9.02
-12.69
-16.64
-20.75
-24.87
-28.84
-32.64
-36.41
-40.42
-44.97
-50.24
-56.25
-62.76
-69.24
-74.94
-78.91
-80.17
-77.87
-71.58
-61.46
-48.37
-33.70
-19.00
-5.59
5.73
14.79
21.75
26.94
30.61
32.90
34.00
34.24
34.04
33.89
34.12
34.86
36.00
37.35
38.65
39.77
40.56
40.93
40.81
40.18
39.04
37.43
35.41
32.99
30.14
26.85
23.16
19.19
15.17
11.32
7.79
4.63
1.70
-1.19
-4.26
-7.72
-11.65
-16.03
-20.71
-25.43
-29.94
-34.07
-37.86
-41.59
-45.66
-50.43
-56.07
-62.39
-68.81
-74.45
-78.16
-78.78
-75.35
-67.45
-55.43
-40.45
-24.23
-8.59
5.05
16.00
24.30
30.46
35.03
38.35
40.52
41.53
41.46
40.56
39.22
37.82
36.59
35.64
34.94
34.49
34.26
34.22
34.20
33.88
32.83
30.70
27.31
22.84
17.78
12.67
7.99
3.86
0.01
-4.11
-9.04
-15.06
-22.00
-29.24
-35.96
-41.56
-45.87
-49.41
-53.20
-58.37
-65.68
-75.07
-85.41
-94.64
-100.22
-99.76
-91.87
-76.67
-56.05
-33.42
-12.84
2.07
9.27
8.86
2.97
-5.14
-12.20
-15.97
-15.60
-11.47
-4.58
4.00
13.42
23.00
32.07
39.89
45.81
49.47
50.98
50.91
50.11
49.51
49.87
51.70
55.25
60.46
67.03
74.40
81.88
88.67
93.98
97.09
97.48
94.93
89.60
82.02
73.01
63.53
54.42
46.28
39.36
33.59
28.71
24.39
20.32
16.30
12.23
8.12
4.06
0.26
-3.09
-5.87
-8.07
-9.89
-11.66
-13.77
-16.52
-20.04
-24.19
-28.66
-33.04
-37.01
-40.48
-43.59
-46.74
-50.42
-55.07
-60.83
-67.42
-73.99
-79.28
-81.80
-80.29
-74.10
-63.51
-49.65
-34.24
-19.06
-5.49
5.77
14.62
21.39
26.51
30.33
33.11
35.05
36.36
37.30
38.09
38.86
39.66
40.46
41.26
42.03
42.79
43.46
43.95
44.08
43.67
42.56
40.68
38.02
34.70
30.94
27.01
23.17
19.56
16.16
12.81
9.32
5.60
1.76
-1.97
-5.33
-8.18
-10.64
-12.98
-15.54
-18.49
-21.79
-25.21
-28.49
-31.47
-34.18
-36.83
-39.78
-43.37
-47.85
-53.19
-58.93
-64.11
-67.46
-67.58
-63.50
-54.98
-42.68
-28.02
-12.74
1.54
13.79
23.55
30.91
36.16
39.66
41.67
42.39
42.07
41.01
39.66
38.40
37.55
37.18
37.18
37.33
37.43
37.41
37.31
37.21
37.07
36.79
36.14
34.90
32.98
30.43
27.45
24.29
21.11
18.02
15.01
12.02
9.04
6.06
3.14
0.33
-2.37
-5.07
-7.93
-11.11
-14.68
-18.54
-22.48
-26.22
-29.64
-32.76
-35.78
-39.01
-42.70
-47.00
-51.83
-56.92
-61.74
-65.52
-67.34
-66.32
-61.88
-54.03
-43.45
-31.34
-19.09
-7.86
1.68
9.35
15.35
19.98
23.45
25.92
27.47
28.25
28.47
28.40
28.26
28.20
28.31
28.61
29.09
29.65
30.17
30.48
30.45
30.00
29.13
27.85
26.21
24.25
22.02
19.62
17.16
14.76
12.47
10.29
8.15
5.99
3.78
1.50
-0.81
-3.13
-5.38
-7.51
-9.53
-11.51
-13.58
-15.88
-18.51
-21.42
-24.50
-27.61
-30.70
-33.79
-37.06
-40.68
-44.80
-49.35
-53.96
-57.99
-60.57
-60.78
-57.94
-51.88
-42.98
-32.17
-20.59
-9.37
0.71
9.26
16.19
21.58
25.59
28.35
29.97
30.63
30.52
29.91
29.08
28.26
27.64
27.28
27.21
27.38
27.72
28.11
28.44
28.56
28.32
27.63
26.36
24.47
21.98
19.02
15.75
12.40
9.18
6.27
3.71
1.47
-0.55
-2.51
-4.55
-6.81
-9.40
-12.31
-15.47
-18.72
-21.91
-25.02
-28.14
-31.44
-35.14
-39.36
-44.07
-49.01
-53.74
-57.65
-59.93
-59.80
-56.65
-50.24
-40.92
-29.61
-17.56
-6.03
4.04
12.22
18.50
23.09
26.29
28.31
29.36
29.65
29.48
29.13
28.83
28.68
28.64
28.68
28.75
28.92
29.27
29.84
30.53
31.18
31.58
31.56
31.05
30.01
28.45
26.40
23.92
21.15
18.25
15.35
12.53
9.75
6.96
4.08
1.09
-1.94
-4.98
-8.01
-11.10
-14.31
-17.62
-20.96
-24.20
-27.28
-30.26
-33.39
-36.97
-41.25
-46.24
-51.66
-56.89
-61.15
-63.61
-63.58
-60.67
-54.90
-46.63
-36.62
-25.78
-15.06
-5.19
3.36
10.42
16.07
20.47
23.79
26.13
27.55
28.21
28.37
28.39
28.60
29.17
30.02
30.88
31.44
31.52
31.16
30.60
30.08
29.73
29.40
28.77
27.48
25.35
22.42
18.96
15.33
11.77
8.44
5.32
2.31
-0.64
-3.58
-6.45
-9.22
-11.93
-14.66
-17.56
-20.67
-23.97
-27.33
-30.63
-33.84
-37.11
-40.68
-44.78
-49.47
-54.45
-59.16
-62.84
-64.68
-64.01
-60.41
-53.80
-44.57
-33.51
-21.67
-10.09
0.36
9.22
16.32
21.79
25.76
28.33
29.63
29.81
29.19
28.22
27.36
26.94
27.09
27.71
28.61
29.56
30.45
31.20
31.75
31.97
31.69
30.61
28.60
25.66
22.01
17.99
13.94
10.11
6.55
3.24
0.05
-3.13
-6.39
-9.76
-13.24
-16.74
-20.15
-23.34
-26.29
-29.09
-32.00
-35.39
-39.50
-44.40
-49.73
-54.80
-58.60
-60.03
-58.22
-52.78
-43.93
-32.51
-19.78
-7.07
4.51
14.29
22.13
28.18
32.74
36.10
38.38
39.64
39.98
39.60
38.79
37.93
37.27
36.94
36.88
36.96
37.09
37.18
37.22
37.17
36.99
36.52
35.66
34.31
32.47
30.24
27.77
25.15
22.41
19.55
16.54
13.36
10.10
6.86
3.79
1.00
-1.49
-3.82
-6.15
-8.70
-11.65
-15.02
-18.67
-22.40
-25.95
-29.21
-32.31
-35.53
-39.25
-43.73
-48.97
-54.62
-60.00
-64.20
-66.28
-65.43
-61.19
-53.60
-43.25
-31.14
-18.53
-6.55
3.98
12.67
19.53
24.83
28.83
31.74
33.65
34.61
34.77
34.41
33.91
33.61
33.79
34.44
35.37
36.27
36.88
37.12
37.05
36.83
36.55
36.16
35.51
34.47
32.98
31.10
28.91
26.50
23.89
21.06
18.02
14.83
11.56
8.31
5.14
2.08
-0.86
-3.72
-6.57
-9.50
-12.64
-16.07
-19.84
-23.85
-27.92
-31.84
-35.51
-38.99
-42.50
-46.32
-50.63
-55.36
-60.09
-64.20
-66.90
-67.47
-65.38
-60.40
-52.68
-42.74
-31.43
-19.82
-8.98
0.33
7.72
13.26
17.25
20.05
21.98
23.24
24.00
24.46
24.90
25.56
26.57
27.90
29.38
30.82
32.02
32.93
33.55
33.92
34.04
33.83
33.19
32.04
30.39
28.32
25.95
23.40
20.73
18.00
15.22
12.50
9.93
7.59
5.45
3.41
1.31
-0.93
-3.37
-5.95
-8.58
-11.26
-13.98
-16.81
-19.75
-22.79
-25.92
-29.18
-32.65
-36.42
-40.45
-44.37
-47.49
-48.83
-47.39
-42.49
-34.09
-22.82
-9.91
3.16
15.12
25.11
32.83
38.43
42.41
45.38
48.01
50.86
54.16
57.50
59.73
59.20
54.27
44.02
28.74
9.90
-10.33
-29.74
-46.62
-59.96
-69.15
-73.79
-73.59
-68.56
-59.33
-47.25
-34.16
-21.86
-11.63
-3.95
1.38
4.84
6.86
7.56
6.79
4.44
0.64
-4.11
-9.08
-13.60
-17.33
-20.38
-23.28
-26.66
-31.03
-36.51
-42.83
-49.22
-54.66
-57.89
-57.73
-53.36
-44.65
-32.31
-17.79
-2.91
10.71
22.06
30.86
37.45
42.32
45.86
48.14
49.08
48.62
46.99
44.64
42.23
40.25
38.97
38.31
37.98
37.68
37.24
36.70
36.14
35.61
34.95
33.91
32.24
29.82
26.71
23.11
19.27
15.38
11.56
7.91
4.53
1.50
-1.20
-3.75
-6.43
-9.56
-13.27
-17.46
-21.81
-25.96
-29.74
-33.21
-36.74
-40.78
-45.70
-51.56
-58.03
-64.29
-69.23
-71.55
-70.23
-64.71
-55.20
-42.65
-28.55
-14.45
-1.58
9.35
18.20
25.14
30.40
34.12
36.37
37.25
37.08
36.32
35.51
35.10
35.23
35.85
36.67
37.44
37.94
38.10
37.95
37.53
36.91
36.09
35.03
33.66
31.89
29.65
26.91
23.72
20.21
16.58
12.93
9.35
5.82
2.27
-1.37
-5.15
-9.04
-13.00
-16.99
-20.98
-24.98
-28.99
-33.08
-37.33
-41.86
-46.66
-51.61
-56.36
-60.37
-62.94
-63.32
-60.96
-55.59
-47.41
-37.07
-25.54
-13.89
-3.07
6.30
13.94
19.81
24.02
26.66
27.93
28.11
27.62
26.94
26.45
26.35
26.62
27.12
27.77
28.55
29.54
30.76
32.04
33.05
33.36
32.72
31.04
28.49
25.39
22.03
