1706796882.00
64.000000
-0.00
-0.00
-0.00
-0.00
-0.00
-0.00
-0.00
-0.00
-0.00
-0.00
0.00
0.01
0.01
-0.00
-0.03
-0.05
-0.05
0.00
0.13
0.36
0.66
1.01
1.37
1.72
2.06
2.40
2.79
3.24
3.80
4.42
5.06
5.66
6.20
6.68
7.15
7.68
8.31
9.14
10.09
11.04
11.88
12.56
13.14
13.76
14.65
15.96
17.91
20.32
22.90
25.38
27.58
29.57
31.68
34.32
37.81
42.54
48.15
54.10
59.83
64.97
69.58
74.14
79.34
85.71
93.76
103.00
112.62
121.73
129.77
136.75
143.30
150.75
157.77
166.64
177.95
191.79
206.97
220.57
228.25
225.36
208.53
176.87
132.76
80.05
23.07
-34.94
-92.44
-149.16
-205.23
-260.37
-313.74
-363.87
-409.82
-450.88
-486.46
-515.67
-537.13
-549.09
-549.79
-538.15
-513.94
-478.35
-433.50
-382.01
-326.51
-269.26
-211.99
-155.94
-102.16
-51.50
-4.95
36.63
72.57
102.60
126.86
145.86
160.31
170.92
178.31
182.88
184.92
184.65
182.35
178.37
173.12
167.00
160.37
153.47
146.44
139.37
132.27
125.22
118.25
111.45
104.89
98.62
92.67
87.06
81.80
76.90
72.37
68.22
64.44
61.06
58.07
55.48
53.28
51.46
50.00
48.86
47.97
47.25
46.56
45.74
44.63
43.04
40.82
37.85
34.07
29.50
24.18
18.25
11.91
5.42
-0.96
-6.96
-12.37
-16.98
-20.69
-23.41
-25.16
-25.99
-26.00
-25.32
-24.07
-22.40
-20.41
-18.20
-15.84
-13.36
-10.81
-8.23
-5.64
-3.05
-0.44
2.17
4.81
7.51
10.30
13.14
16.05
19.00
22.04
25.16
28.40
31.79
35.37
39.22
43.24
47.38
51.62
55.96
60.38
64.91
69.57
74.42
79.57
84.87
90.23
95.64
101.09
106.57
112.10
117.70
123.41
129.28
135.02
140.40
145.20
149.17
152.01
153.33
152.64
149.22
144.37
138.58
132.14
125.25
118.12
110.85
103.59
96.47
89.63
83.26
77.19
71.39
65.81
60.46
55.35
50.51
45.98
41.81
38.11
34.73
31.59
28.65
25.87
23.25
20.77
18.46
16.32
14.41
12.62
10.88
9.17
7.48
5.81
4.17
2.60
1.15
-0.15
-1.30
-2.29
-3.15
-3.84
-4.38
-4.75
-4.96
-5.01
-4.91
-4.70
-4.39
-4.03
-3.64
-3.26
-2.91
-2.61
-2.39
-2.24
-2.18
-2.21
-2.31
-2.47
-2.68
-2.90
-3.15
-3.39
-3.62
-3.85
-4.07
-4.30
-4.53
-4.78
-5.05
-5.33
-5.62
-5.91
-6.21
-6.53
-6.89
-7.31
-7.80
-8.35
-8.93
-9.51
-10.08
-10.65
-11.24
-11.89
-12.64
-13.44
-14.30
-15.10
-15.80
-16.33
-16.70
-16.97
-17.23
-17.58
-18.07
-18.70
-19.42
-20.15
-20.89
-21.68
-22.69
-24.12
-26.10
-28.64
-31.58
-34.61
-37.42
-39.85
-41.98
-44.17
-46.90
-50.57
-55.34
-61.02
-67.16
-73.25
-78.99
-84.53
-90.36
-97.19
-105.60
-115.77
-127.36
-139.71
-152.10
-164.08
-175.64
-187.19
-199.40
-213.06
-229.09
-248.28
-270.90
-295.99
-321.02
-342.09
-354.94
-356.52
-346.14
-325.94
-299.99
-272.81
-247.87
-226.76
-209.46
-195.13
-182.97
-172.57
-163.82
-156.59
-150.47
-144.94
-139.81
-135.45
-132.67
-132.29
-134.32
-137.49
-139.23
-136.50
-126.80
-109.17
-84.56
-55.53
-25.25
3.44
28.65
49.56
66.16
78.76
87.69
93.17
95.39
94.60
91.23
85.84
79.10
71.65
64.11
57.05
50.92
46.16
43.07
41.73
41.97
43.22
44.69
45.44
44.67
41.96
37.32
31.22
24.32
17.32
10.55
3.93
-3.11
-11.38
-21.66
-34.26
-48.64
-63.16
-75.32
-82.27
-81.67
-72.50
-55.41
-32.60
-7.13
17.98
40.42
58.90
73.04
82.91
88.72
90.67
88.98
84.19
77.15
68.97
60.78
53.39
47.22
42.21
38.13
34.76
32.13
30.45
29.94
30.55
31.75
32.60
32.01
29.11
23.59
15.87
6.89
-2.29
-10.87
-18.59
-25.71
-32.87
-40.78
-50.09
-61.13
-73.66
-86.69
-98.30
-105.89
-106.83
-99.33
-83.12
-59.72
-31.96
-3.10
24.01
47.52
66.65
81.26
91.56
97.73
99.98
98.61
94.25
87.82
80.48
73.28
67.01
61.99
58.12
55.07
52.58
50.55
49.15
48.56
48.64
48.90
48.49
46.47
42.24
35.67
27.28
17.89
8.42
-0.52
-8.73
-16.50
-24.42
-33.23
-43.61
-55.85
-69.64
-83.76
-96.13
-104.10
-105.24
-98.10
-82.77
-61.00
-35.58
-9.48
14.91
36.11
53.58
67.17
76.84
82.47
84.07
81.97
77.04
70.49
63.52
57.05
51.48
46.76
42.68
39.11
36.16
34.12
33.21
33.41
34.30
35.07
34.79
32.72
28.51
22.34
14.85
6.86
-0.85
-7.85
-14.16
-20.17
-26.57
-34.13
-43.50
-55.03
-68.43
-82.48
-95.02
-103.31
-104.73
-97.66
-82.11
-59.75
-33.41
-6.19
19.35
41.60
59.73
73.38
82.42
86.87
87.04
83.65
77.84
70.85
63.70
56.97
50.86
45.31
40.28
35.92
32.48
30.18
29.06
28.82
28.85
28.44
26.84
23.58
18.55
12.09
4.78
-2.69
-9.86
-16.60
-23.27
-30.45
-38.88
-49.04
-60.95
-73.84
-86.17
-95.67
-99.93
-97.01
-86.19
-68.15
-44.98
-19.46
5.66
28.24
46.98
61.31
71.12
76.54
77.92
75.82
71.05
64.61
57.47
50.40
43.89
38.13
33.18
29.13
26.16
24.52
24.34
25.41
27.17
28.81
29.46
28.49
25.77
21.55
16.34
10.66
4.89
-0.90
-6.88
-13.53
-21.44
-31.19
-42.97
-56.17
-69.17
-79.55
-84.57
-82.10
-71.41
-53.49
-30.66
-5.93
18.02
39.33
57.01
70.77
80.50
86.16
87.77
85.61
80.36
73.08
65.03
57.27
50.48
44.84
40.18
36.20
32.79
30.12
28.49
28.08
28.62
29.38
29.31
27.46
23.43
17.44
10.19
2.50
-4.99
-12.13
-19.13
-26.50
-34.74
-44.31
-55.48
-68.00
-80.99
-92.69
-100.76
-102.83
-97.33
-84.13
-64.68
-41.62
-17.90
3.98
22.48
37.00
47.48
54.10
56.97
56.29
52.43
46.18
38.58
30.67
23.33
17.00
11.85
7.84
4.94
3.24
2.75
3.32
4.48
5.47
5.49
3.95
0.70
-4.01
-9.68
-15.84
-22.19
-28.76
-35.82
-43.77
-52.98
-63.51
-74.77
-85.36
-93.11
-95.59
-90.91
-78.47
-59.30
-35.86
-11.23
11.89
31.70
47.50
59.28
67.26
71.60
72.37
69.81
64.50
57.31
49.25
41.19
33.70
27.07
21.42
16.80
13.28
10.88
9.45
8.66
7.97
6.78
4.58
1.11
-3.53
-8.97
-14.70
-20.30
-25.74
-31.44
-38.21
-46.91
-57.98
-70.98
-84.34
-95.60
-101.97
-101.25
-92.46
-76.27
-54.67
-30.40
-6.18
15.88
34.48
49.03
59.43
65.81
68.44
67.79
64.57
59.65
53.95
48.19
42.80
37.81
33.11
28.64
24.51
21.06
18.68
17.56
17.44
17.67
17.34
15.62
12.09
6.84
0.43
-6.38
-12.89
-18.80
-24.30
-30.06
-36.99
-45.95
-57.29
-70.45
-83.82
-94.89
-100.88
-99.53
-89.89
-72.69
-50.14
-25.21
-0.74
21.19
39.54
54.03
64.72
71.66
74.86
74.46
70.94
65.24
58.51
51.87
46.08
41.45
37.85
34.93
32.37
30.07
28.14
26.78
26.18
26.18
26.40
26.07
24.43
20.94
15.46
8.40
0.50
-7.38
-14.64
-21.06
-26.87
-32.65
-39.04
-46.73
-56.15
-67.34
-79.62
-91.47
-100.62
-104.56
-101.29
-89.97
-71.38
-47.63
-21.61
3.81
26.47
45.09
59.19
68.88
74.53
76.60
75.66
72.35
67.39
61.46
55.25
49.31
44.12
40.00
37.12
35.49
35.00
35.36
36.20
37.10
37.58
37.27
35.98
33.69
30.56
26.80
22.55
17.80
12.36
6.08
-1.05
-8.79
-16.63
-24.03
-30.59
-36.23
-41.25
-46.31
-52.25
-59.85
-69.47
-80.60
-91.67
-100.17
-103.28
-98.84
-86.17
-66.43
-42.25
-16.84
7.04
27.65
44.34
57.08
66.00
71.07
72.22
69.60
63.81
55.92
47.22
38.89
31.77
26.26
22.38
20.00
18.88
18.80
19.48
20.57
21.65
22.29
22.16
21.07
18.99
16.01
12.22
7.74
2.63
-3.00
-9.02
-15.23
-21.42
-27.37
-32.98
-38.41
-44.02
-50.40
-58.13
-67.59
-78.55
-89.87
-99.53
-104.95
-103.78
-94.65
-77.77
-54.98
-29.14
-3.31
20.06
39.54
54.58
65.24
71.73
74.25
73.17
69.02
62.63
54.96
46.98
39.45
32.94
27.79
24.21
22.28
21.88
22.72
24.23
25.80
26.86
27.12
26.52
25.17
23.18
20.53
16.99
12.30
6.31
-0.81
-8.62
-16.51
-24.00
-30.88
-37.35
-43.92
-51.23
-59.94
-70.37
-82.39
-95.04
-106.62
-114.77
-117.02
-111.58
-97.89
-76.91
-50.99
-23.13
3.74
27.45
46.79
61.45
71.68
78.02
80.94
80.95
78.51
74.18
68.61
62.48
56.42
50.96
46.48
43.18
41.27
40.81
41.70
43.59
45.81
47.57
48.14
47.07
44.37
40.36
35.54
30.37
25.07
19.59
13.64
6.94
-0.73
-9.29
-18.37
-27.44
-35.96
-43.55
-50.24
-56.50
-63.18
-71.21
-81.22
-93.01
-105.29
-115.70
-121.35
-119.71
-109.49
-91.18
-66.91
-39.77
-12.83
11.64
32.42
49.14
61.87
70.80
76.11
78.02
77.00
73.71
68.95
63.54
58.17
53.32
49.28
46.15
43.92
42.54
41.92
41.98
42.58
43.40
43.94
43.55
41.60
37.73
31.92
24.54
16.15
7.33
-1.56
-10.48
-19.66
-29.45
-40.10
-51.57
-63.46
-75.11
-85.83
-95.19
-103.13
-110.06
-116.70
-123.82
-132.11
-141.82
-152.61
-163.38
-172.28
-177.03
-175.51
-166.35
-149.50
-126.38
-99.46
-71.55
-45.06
-21.44
-1.13
16.10
30.65
42.77
52.45
59.61
64.33
67.00
68.34
69.03
69.60
70.19
70.74
71.13
71.46
72.05
73.32
75.58
78.69
82.09
84.94
86.51
86.43
84.89
82.48
79.72
76.87
73.65
69.51
63.85
56.52
47.77
38.26
28.70
19.56
10.98
2.72
-5.65
-14.71
-24.97
-36.59
-49.11
-61.20
-70.83
-75.70
-74.00
-65.07
-49.70
-29.82
-8.00
13.29
32.25
47.81
59.64
67.75
72.38
73.78
72.31
68.35
62.46
55.38
47.98
41.19
35.77
32.25
30.85
31.49
33.92
37.73
42.41
47.30
51.62
54.87
57.05
59.02
62.32
68.80
79.81
95.66
115.28
136.64
157.40
175.62
190.17
200.64
207.06
209.35
207.35
200.78
189.49
173.53
153.18
128.81
100.88
70.28
38.51
7.89
-18.70
-38.48
-49.51
-51.51
-45.85
-35.30
-23.14
-12.41
-5.23
-2.77
-5.36
-12.86
-24.83
-40.55
-59.06
-79.15
-99.74
-120.12
-140.25
-160.60
-181.64
-203.50
-225.66
-247.19
-267.39
-286.38
-305.30
-326.31
-352.11
-384.94
-425.33
-471.08
-516.95
-555.45
-579.11
-582.95
-566.47
-533.66
-491.38
-446.62
-404.21
-366.00
-331.64
-300.12
-271.07
-244.92
-222.23
-202.87
-185.66
-168.93
-151.32
-132.47
-113.13
-94.78
-78.83
-65.92
-55.68
-46.88
-38.01
-27.87
-16.03
-2.91
10.45
22.93
33.74
42.83
50.73
58.48
67.07
77.10
88.59
100.96
113.34
124.88
135.13
144.30
153.12
162.59
173.56
186.37
200.73
215.84
230.77
244.90
258.14
270.95
284.22
299.04
316.62
338.14
364.35
394.79
427.12
457.02
479.06
488.34
482.40
462.17
431.55
395.84
359.74
326.07
295.56
267.71
241.85
217.75
195.51
175.06
155.82
136.89
117.70
98.58
80.90
66.61
57.39
53.89
55.29
59.68
64.69
68.42
69.83
68.92
66.29
62.72
58.68
54.25
49.24
43.45
36.89
29.89
23.02
16.90
12.00
8.46
6.13
4.69
3.77
3.08
2.40
1.59
0.56
-0.79
-2.49
-4.56
-6.90
-9.42
-12.05
-14.74
-17.53
-20.50
-23.71
-27.16
-30.73
-34.31
-37.78
-41.18
-44.80
-49.02
-54.13
-60.01
-66.03
-71.06
-73.77
-73.12
-68.66
-60.68
-50.06
-37.91
-25.35
-13.24
-2.23
7.19
14.68
19.98
23.05
24.11
23.61
22.11
20.10
17.92
15.72
13.56
11.43
9.37
7.46
5.79
4.38
3.18
1.99
0.66
-0.93
-2.75
-4.76
-6.89
-9.20
-11.87
-15.06
-18.82
-22.99
-27.12
-30.65
-33.14
-34.47
-34.89
-35.04
-35.71
-37.56
-40.89
-45.46
-50.58
-55.17
-58.09
-58.24
-54.90
-47.80
-37.29
-24.26
-10.10
3.66
15.67
25.04
31.56
35.48
37.38
37.80
37.14
35.69
33.65
31.31
28.92
26.65
24.44
22.16
19.65
16.94
14.29
11.99
10.24
8.94
7.76
6.34
4.54
2.46
0.47
-1.11
-2.12
-2.64
-2.96
-3.48
-4.55
-6.46
-9.31
-13.00
-17.22
-21.57
-25.76
-29.82
-34.12
-39.20
-45.44
-52.65
-59.97
-66.03
-69.32
-68.77
-64.04
-55.55
-44.35
-31.76
-19.00
-6.97
3.71
12.71
19.87
25.16
28.73
30.79
31.68
31.67
30.95
29.63
27.77
25.50
23.04
20.65
18.49
16.63
15.01
13.53
12.12
10.75
9.41
8.00
6.36
4.38
2.05
-0.54
-3.25
-6.03
-9.03
-12.48
-16.59
-21.33
-26.44
-31.46
-35.91
-39.59
-42.62
-45.49
-48.80
-52.96
-57.93
-63.12
-67.48
-69.69
-68.66
-63.77
-55.14
-43.57
-30.35
-16.84
-4.15
7.01
16.36
23.82
29.36
32.91
34.51
34.37
32.93
30.71
28.24
25.81
23.51
21.30
19.11
16.97
14.93
13.04
11.34
9.74
8.13
6.32
4.12
1.36
-2.00
-5.84
-9.85
-13.67
-17.03
-19.83
-22.19
-24.34
-26.55
-29.10
-32.31
-36.49
-41.91
-48.57
-56.01
-63.16
-68.59
-70.80
-68.69
-61.91
-50.94
-37.04
-21.82
-6.90
6.42
17.38
25.76
31.62
35.21
36.74
36.46
34.69
31.89
28.67
25.59
23.04
21.12
19.71
18.59
17.57
16.56
15.56
14.52
13.33
11.89
10.07
7.84
5.31
2.59
-0.34
-3.57
-7.23
-11.38
-15.91
-20.51
-24.83
-28.73
-32.33
-36.10
-40.63
-46.41
-53.62
-61.90
-70.43
-77.86
-82.74
-83.67
-79.88
-71.37
-58.96
-44.12
-28.43
-13.18
0.88
13.52
24.77
34.64
42.97
49.42
53.64
55.44
54.84
52.11
47.83
42.81
37.95
34.05
31.47
29.98
28.78
26.77
22.99
17.07
9.40
1.00
-6.83
-13.01
-17.02
-18.99
-19.65
-20.12
-21.55
-24.92
-30.78
-39.15
-49.38
-60.34
-70.60
-78.73
-83.87
-85.97
-85.94
-85.36
-85.85
-88.33
-92.52
-96.90
-99.26
-97.34
-89.57
-75.57
-56.12
-33.06
-8.97
13.27
31.10
42.96
48.80
50.04
48.95
47.89
48.39
50.82
54.60
58.67
61.91
63.48
62.96
60.24
55.58
49.55
43.01
36.79
31.52
27.23
23.39
18.99
13.01
4.83
-5.40
-16.72
-27.69
-37.01
-43.99
-48.77
-52.15
-55.03
-58.01
-61.18
-64.30
-67.19
-70.02
-73.40
-78.19
-85.10
-94.39
-105.56
-117.30
-127.68
-134.57
-136.12
-131.32
-120.25
-103.98
-84.22
-62.88
-41.64
-21.81
-4.31
10.31
21.78
30.07
35.48
38.47
39.69
39.83
39.52
39.22
39.26
39.73
40.59
41.69
42.89
44.06
45.12
45.95
46.40
46.27
45.36
43.59
40.90
37.18
32.31
26.23
19.10
11.35
3.60
-3.61
-10.13
-16.33
-23.00
-30.94
-40.49
-51.44
-62.99
-74.11
-83.72
-90.74
-94.05
-92.60
-85.55
-72.75
-54.94
-33.78
-11.46
9.95
28.99
45.04
58.07
68.35
76.05
81.14
83.60
83.54
81.45
78.01
73.99
69.97
66.31
63.18
60.68
58.92
57.95
57.71
57.95
58.15
57.77
56.39
53.86
50.32
46.09
41.47
36.60
31.33
25.39
18.58
10.90
2.69
-5.53
-13.23
-20.11
-26.27
-32.20
-38.60
-46.21
-55.43
-66.16
-77.54
-87.93
-95.15
-96.95
-91.72
-79.05
-60.04
-36.93
-12.51
10.78
31.46
49.02
63.69
75.86
85.62
92.78
96.93
97.94
96.11
92.22
87.32
82.39
78.08
74.53
71.35
67.82
63.20
57.09
49.55
41.23
33.06
25.87
20.14
15.64
11.63
7.24
1.85
-4.63
-11.82
-19.17
-26.28
-33.09
-39.83
-46.79
-54.13
-61.80
-69.63
-77.42
-85.11
-92.71
-100.31
-107.90
-115.28
-121.93
-127.03
-129.32
-127.34
-119.72
-105.67
-85.35
-59.99
-31.55
-2.40
25.24
49.60
69.40
83.90
92.96
97.06
97.32
95.22
92.29
89.64
87.64
86.01
84.06
81.21
77.30
72.64
67.85
63.60
60.26
57.87
56.12
54.67
53.17
51.50
49.56
47.31
44.69
41.58
37.94
33.80
29.26
24.45
19.51
14.50
9.52
4.62
-0.19
-5.00
-10.09
-15.79
-22.47
-30.29
-39.10
-48.29
-56.89
-63.63
-67.22
-66.65
-61.40
-51.70
-38.47
-23.15
-7.36
7.53
20.59
31.42
39.98
46.45
51.02
53.86
55.09
54.91
53.55
51.31
48.48
45.30
42.02
38.83
35.91
33.37
31.25
29.45
27.80
26.13
24.36
22.50
20.63
18.82
17.06
15.17
12.84
9.76
5.80
1.04
-4.18
-9.49
-14.55
-19.17
-23.36
-27.30
-31.26
-35.62
-40.78
-46.97
-54.09
-61.49
-67.95
-71.95
-72.12
-67.67
-58.69
-46.07
-31.15
-15.39
0.09
14.51
27.41
38.51
47.59
54.50
59.19
61.83
62.76
62.48
61.42
59.96
58.27
56.41
54.28
51.78
48.91
45.78
42.63
39.69
37.04
34.55
31.96
28.96
25.47
21.69
18.03
14.93
12.63
10.96
9.37
7.07
3.37
-1.94
-8.51
-15.51
-22.02
-27.57
-32.43
-37.63
-44.46
-53.81
-65.72
-79.14
-92.44
-103.98
-112.76
-118.76
-122.85
-126.55
-131.67
-139.77
-151.64
-166.78
-183.17
-197.49
-205.85
-204.84
-192.45
-168.44
-133.97
-90.90
-40.97
14.41
73.68
134.30
192.19
241.54
275.75
289.01
278.12
244.21
193.28
135.19
81.28
41.31
20.90
20.17
34.30
55.18
74.21
84.45
82.33
67.88
44.16
15.92
-11.91
-35.46
-52.65
-63.19
-68.04
-68.85
-67.33
-65.14
-63.84
-64.77
-68.78
-75.81
-84.60
-92.88
-98.03
-97.75
-91.06
-78.63
-62.51
-45.34
-29.32
-15.30
-2.68
9.91
23.63
38.47
53.11
65.42
73.64
77.14
76.67
73.95
70.74
68.18
66.46
65.09
63.38
60.91
57.66
53.92
50.08
46.32
42.70
39.04
35.19
31.04
26.58
21.86
16.90
11.68
6.18
0.39
-5.62
-11.68
-17.60
-23.24
-28.52
-33.61
-38.77
-44.43
-50.97
-58.65
-67.28
-76.09
-83.76
-88.64
-89.17
-84.47
-74.58
-60.51
-43.88
-26.46
-9.65
5.61
18.90
29.97
38.65
44.81
48.47
49.94
49.70
48.40
46.53
44.37
41.98
39.37
36.70
34.29
32.52
31.62
31.46
31.60
31.35
30.09
27.53
23.80
19.37
14.89
10.78
7.15
3.70
-0.11
-4.70
-10.24
-16.48
-22.90
-28.97
-34.45
-39.48
-44.64
-50.64
-58.12
-67.28
-77.73
-88.33
-97.36
-102.93
-103.36
-97.76
-86.30
-70.19
-51.22
-31.36
-12.18
5.29
20.50
33.22
43.30
50.63
55.22
57.28
57.29
55.90
53.73
51.21
48.59
45.96
43.38
41.00
39.05
37.75
37.18
37.26
37.64
37.88
37.49
36.15
33.76
30.43
26.44
22.12
17.70
13.22
8.53
3.34
-2.58
-9.22
-16.37
-23.53
-30.28
-36.41
-42.17
-48.21
-55.32
-64.00
-74.15
-84.82
-94.37
-100.83
-102.57
-98.64
-89.01
-74.55
-56.78
-37.40
-18.00
0.17
16.27
29.88
40.79
48.97
54.53
57.64
58.68
58.15
56.59
54.50
52.26
49.99
47.64
45.15
42.50
39.85
37.46
35.49
33.96
32.67
31.26
29.39
26.88
23.74
20.12
16.17
11.84
7.03
1.62
-4.26
-10.20
-15.70
-20.47
-24.63
-28.68
-33.43
-39.53
-47.29
-56.57
-66.73
-76.81
-85.59
-91.70
-93.83
-91.03
-82.98
-70.16
-53.75
-35.33
-16.53
1.15
16.53
28.67
37.03
41.53
42.71
41.63
39.55
37.44
35.56
33.38
30.06
24.95
18.16
10.46
3.03
-3.09
-7.22
-9.01
-8.42
-5.87
-2.70
-1.61
-6.49
-21.14
-47.31
-82.88
-121.41
-153.51
-169.73
-163.66
-133.90
-84.22
-22.04
43.61
103.87
150.89
178.25
181.62
159.94
116.72
60.35
2.74
-43.87
-70.65
-75.14
-61.87
-40.29
-20.83
-10.76
-11.73
-19.93
-28.53
-31.09
-24.27
-8.74
11.88
33.03
51.23
64.91
74.25
80.03
82.70
82.22
78.47
71.98
64.14
56.98
52.34
51.13
52.86
55.87
58.07
57.83
54.66
49.27
43.19
37.88
34.08
31.51
29.14
25.86
21.02
14.70
7.55
0.34
-6.46
-12.81
-18.90
-25.01
-31.24
-37.59
-44.04
-50.67
-57.74
-65.63
-74.77
-85.34
-97.11
-109.07
-119.41
-125.76
-125.90
-118.54
-103.87
-83.56
-60.21
-36.50
-14.38
5.20
22.14
36.66
48.87
58.61
65.57
69.58
70.89
70.15
68.23
65.95
63.83
62.02
60.40
58.84
57.30
55.93
54.92
54.37
54.17
54.05
53.69
52.85
51.39
49.26
46.47
43.11
39.22
34.97
30.50
25.88
21.02
15.65
9.47
2.34
-5.56
-13.73
-21.49
-28.28
-33.88
-38.53
-42.83
-47.56
-53.46
-61.01
-70.30
-80.87
-91.57
-100.65
-106.11
-106.15
-99.91
-87.81
-71.45
-53.06
-34.62
-17.28
-1.26
13.72
27.82
40.59
51.06
58.27
61.73
61.86
59.79
56.84
54.03
51.80
50.07
48.59
47.28
46.27
45.79
45.93
46.41
46.64
45.91
43.64
39.71
34.47
28.63
22.97
18.05
13.93
10.26
6.44
1.94
-3.45
-9.55
-15.93
-22.11
-27.83
-33.15
-38.42
-44.24
-51.26
-60.00
-70.54
-82.26
-93.64
-102.48
-106.40
-103.61
-93.55
-77.16
-56.64
-34.60
-13.35
5.76
22.30
36.41
48.24
57.69
64.44
68.27
69.33
68.29
66.10
63.64
61.44
59.52
57.59
55.37
52.77
50.01
47.51
45.64
44.53
44.01
43.60
42.64
40.66
37.39
33.06
28.18
23.39
19.15
15.53
12.11
8.17
3.06
-3.52
-11.33
-19.64
-27.64
-34.73
-40.75
-46.11
-51.55
-57.91
-65.91
-75.79
-87.17
-98.83
-108.82
-114.81
-114.72
-107.46
-93.31
-73.91
-51.72
-29.17
-8.08
10.65
26.85
40.64
52.02
60.77
66.53
69.07
68.61
65.84
61.88
57.90
54.78
52.83
51.70
50.50
48.34
44.69
39.68
34.11
29.11
25.56
23.72
23.05
22.41
20.54
16.50
10.05
1.71
-7.31
-15.25
-20.22
-20.72
-16.39
-8.84
-1.95
-1.22
-11.61
-34.82
-67.13
-99.37
-119.52
-117.06
-87.17
-32.88
35.97
106.12
164.92
203.03
215.44
201.17
162.74
106.16
40.52
-23.35
-75.40
-109.24
-123.83
-123.05
-113.29
-100.54
-88.39
-77.80
-68.15
-58.58
-48.76
-38.71
-28.29
-17.15
-5.01
7.70
19.67
29.26
35.17
37.20
36.31
34.26
32.74
32.77
34.40
36.77
38.73
39.33
38.09
35.21
31.31
27.15
23.24
19.73
16.30
12.36
7.35
0.88
-6.97
-15.65
-24.38
-32.35
-39.07
-44.57
-49.40
-54.50
-60.90
-69.28
-79.57
-90.82
-101.21
-108.40
-110.23
-105.33
-93.61
-76.29
-55.47
-33.45
-12.21
7.00
23.62
37.47
48.61
57.07
62.98
66.54
68.14
68.24
67.24
65.51
63.23
60.62
57.87
55.29
53.16
51.61
50.59
49.82
48.83
47.12
44.35
40.43
35.62
30.34
25.09
20.19
15.60
11.01
5.93
-0.06
-7.16
-15.23
-23.90
-32.67
-41.08
-48.88
-56.06
-62.96
-70.17
-78.32
-87.70
-97.88
-107.47
-114.28
-116.02
-111.01
-98.85
-80.60
-58.42
-34.81
-11.95
8.71
26.48
41.15
52.72
61.22
66.77
69.67
70.40
69.56
67.77
65.50
62.97
60.25
57.30
54.17
51.04
48.19
45.80
43.91
42.28
40.44
37.95
34.54
30.25
25.40
20.50
15.92
11.81
7.94
3.83
-1.04
-6.95
-13.80
-21.12
-28.30
-34.84
-40.65
-46.06
-51.66
-58.13
-66.00
-75.40
-85.91
-96.37
-104.99
-109.59
-108.21
-99.81
-84.67
-64.37
-41.36
-18.15
3.34
22.02
37.53
49.89
59.23
65.63
69.29
70.62
70.22
68.76
66.75
64.44
61.87
59.02
55.96
52.95
50.29
48.29
47.05
46.41
45.95
45.12
43.44
40.60
36.64
31.98
27.26
23.05
19.61
16.68
13.56
9.41
3.67
-3.63
-11.93
-20.32
-28.05
-34.78
-40.82
-46.80
-53.53
-61.58
-71.09
-81.65
-92.12
-100.74
-105.43
-104.36
-96.50
-82.18
-63.02
-41.45
-19.99
-0.55
15.87
29.06
39.23
46.69
51.60
54.12
54.55
53.31
51.02
48.26
45.52
43.04
40.87
38.96
37.19
35.53
33.91
32.40
30.99
29.68
28.37
26.94
25.08
22.51
18.98
14.38
8.83
2.67
-3.69
-9.87
-15.68
-21.15
-26.51
-32.04
-38.16
-45.20
-53.55
-63.34
-74.27
-85.28
-94.61
-100.04
-99.62
-92.34
-78.51
-59.74
-38.42
-16.99
2.68
19.51
33.18
43.81
51.61
56.85
59.76
60.70
60.06
58.35
55.97
53.24
50.37
47.44
44.60
42.03
39.94
38.50
37.62
37.02
36.19
34.76
32.48
29.42
25.79
21.77
17.40
12.60
7.26
1.39
-4.85
-11.24
-17.62
-23.90
-30.07
-36.13
-42.14
-48.31
-55.15
-63.29
-73.14
-84.31
-95.40
-104.04
-107.62
-104.23
-93.39
-76.27
-55.23
-33.01
-11.85
6.90
22.76
35.81
46.24
54.15
59.53
62.43
63.12
62.14
60.21
57.97
55.86
54.02
52.32
50.55
48.53
46.30
44.13
42.35
41.22
40.72
40.49
39.95
38.51
35.79
31.80
26.98
21.99
17.43
13.52
9.99
6.20
1.44
-4.70
-12.18
-20.43
-28.66
-36.11
-42.35
-47.44
-51.84
-56.33
-61.74
-68.76
-77.58
-87.73
-97.91
-106.11
-110.17
-108.28
-99.65
-84.81
-65.42
-43.77
-22.09
-2.04
15.53
30.35
42.45
51.84
58.48
62.36
63.74
63.17
61.47
59.44
57.63
56.15
54.79
53.15
51.03
48.57
46.23
44.56
43.90
44.20
45.02
45.64
45.43
43.96
41.14
37.13
32.25
26.87
21.28
15.68
10.14
4.62
-1.03
-7.00
-13.34
-20.00
-26.81
-33.54
-39.98
-45.98
-51.51
-56.75
-62.05
-67.97
-75.14
-83.90
-93.94
-104.03
-112.16
-116.04
-113.94
-105.32
-91.04
-73.07
-53.75
-35.05
-18.26
-3.94
7.79
16.88
23.31
27.04
28.30
27.55
25.49
22.74
19.75
16.66
13.39
9.83
5.99
2.09
-1.54
-4.56
-6.85
-8.55
-10.07
-11.88
-14.34
-17.46
-20.97
-24.41
-27.42
-29.94
-32.25
-34.84
-38.14
-42.34
-47.30
-52.65
-57.89
-62.53
-66.14
-68.46
-69.40
-69.20
-68.40
-67.69
-67.49
-67.67
-67.42
-65.50
-60.68
-52.25
-40.31
-25.69
-9.70
6.33
21.32
34.51
45.37
53.52
58.64
60.54
59.29
55.20
48.86
41.07
32.62
24.29
16.56
9.65
3.44
-2.40
-8.28
-14.62
-21.67
-29.61
-38.53
-48.47
-59.47
-71.47
-84.33
-97.87
-111.90
-126.22
-140.67
-154.91
-168.26
-179.55
-187.16
-189.19
-183.84
-169.82
-146.80
-115.73
-78.78
-39.02
0.11
35.57
65.24
88.28
105.05
116.90
125.67
133.28
141.26
150.51
161.25
173.04
185.04
196.21
205.61
212.47
216.40
217.27
215.19
210.45
203.43
194.44
183.66
171.16
156.93
141.15
124.18
106.61
89.09
72.04
55.52
39.16
22.36
4.62
-14.20
-33.70
-53.10
-71.51
-88.28
-103.29
-116.87
-129.62
-142.09
-154.55
-166.91
-178.71
-189.28
-197.84
-203.58
-205.78
-204.02
-198.27
-189.11
-177.70
-165.59
-154.27
-144.71
-136.93
-129.91
-121.98
-111.32
-96.63
-77.55
-54.80
-29.89
-4.70
18.96
39.69
56.73
69.96
79.83
87.04
92.25
95.85
97.91
98.33
97.16
94.78
91.85
89.15
87.20
86.17
85.85
85.88
85.94
85.83
85.40
84.41
82.52
79.31
74.50
68.04
60.20
51.43
42.26
33.17
24.47
16.25
8.50
1.11
-6.05
-13.14
-20.37
-28.08
-36.69
-46.56
-57.64
-69.24
-79.97
-87.91
-91.23
-88.73
-80.25
-66.63
-49.40
-30.26
-10.77
7.90
24.91
39.60
51.54
60.45
66.35
69.48
70.32
69.45
67.48
65.02
62.58
60.59
59.30
58.83
59.13
60.04
61.35
62.74
63.92
64.55
64.36
63.11
60.73
57.21
52.65
47.14
40.80
33.74
26.11
18.08
9.91
1.83
-5.92
-13.29
-20.52
-28.03
-36.28
-45.40
-54.91
-63.58
-69.72
-71.61
-68.09
-58.98
-45.13
-28.08
-9.64
8.56
25.37
40.06
52.29
61.86
68.70
72.76
74.10
73.01
70.04
65.95
61.60
57.67
54.55
52.30
50.69
49.44
48.31
47.24
46.25
45.40
44.67
43.96
43.13
41.98
40.34
38.12
35.27
31.79
27.71
23.09
17.90
12.07
5.38
-2.42
-11.57
-22.17
-33.95
-46.10
-57.31
-65.81
-69.92
-68.42
-60.99
-48.24
-31.58
-12.71
6.70
25.26
41.91
55.80
66.29
73.03
76.07
75.94
73.62
70.28
66.92
64.20
62.30
61.09
60.37
60.14
60.73
62.65
66.35
71.84
78.59
85.60
91.73
96.22
99.07
101.15
104.03
109.46
118.79
132.35
149.06
166.25
180.05
186.20
181.11
163.19
133.61
96.31
57.22
22.62
-2.51
-15.70
-17.23
-9.41
4.63
22.02
40.55
58.64
74.89
87.87
96.20
99.06
96.56
89.80
80.47
70.25
60.20
50.59
41.09
31.25
20.94
10.52
0.68
-7.97
-15.32
-21.85
-28.48
-36.19
-45.48
-56.19
-67.64
-78.95
-89.63
-99.85
-110.44
-122.51
-137.06
-154.54
-174.62
-196.14
-217.17
-235.19
-247.42
-251.42
-245.49
-229.20
-203.59
-170.99
-134.48
-97.15
-61.60
-29.82
-3.33
16.72
29.58
35.25
34.77
30.19
24.04
18.44
14.59
12.45
11.26
10.22
9.07
8.23
8.33
9.81
12.49
15.62
18.21
19.38
18.60
15.89
11.71
6.77
1.85
-2.50
-6.08
-9.09
-12.05
-15.61
-20.32
-26.59
-34.62
-44.22
-54.74
-64.92
-72.98
-76.89
-74.89
-66.01
-50.32
-29.05
-4.34
21.23
44.99
64.60
78.39
85.53
86.13
81.29
72.89
63.27
54.89
49.81
49.23
53.00
59.46
65.76
68.74
66.02
56.97
42.94
26.62
10.95
-1.96
-11.38
-17.80
-22.26
-25.67
-28.44
-30.48
-31.53
-31.54
-30.68
-29.42
-28.16
-27.06
-25.87
-23.92
-20.45
-15.01
-7.85
0.05
7.42
13.43
18.25
23.02
29.26
37.94
48.88
60.84
72.22
81.81
89.20
94.50
97.82
98.88
97.03
91.84
83.54
73.21
62.33
52.17
43.26
35.50
28.52
22.16
16.67
12.52
9.97
8.83
8.44
8.03
7.05
5.30
2.84
-0.23
-4.03
-8.89
-15.05
-22.56
-31.15
-40.34
-49.70
-59.04
-68.30
-77.56
-86.72
-95.52
-103.54
-110.43
-116.00
-120.37
-123.82
-126.72
-129.47
-132.46
-136.01
-140.24
-144.82
-148.79
-150.61
-148.48
-140.95
-127.51
-108.97
-87.15
-64.36
-42.64
-23.27
-6.78
6.77
17.35
24.76
28.82
29.57
27.50
23.51
18.75
14.22
10.61
8.26
7.18
7.25
8.33
10.27
12.91
15.98
19.08
21.71
23.40
23.92
23.29
21.74
19.62
17.06
14.04
10.35
5.74
0.14
-6.25
-13.09
-19.97
-26.66
-33.11
-39.54
-46.28
-53.71
-62.02
-71.06
-80.00
-87.39
-91.33
-90.01
-82.27
-68.20
-49.08
-27.04
-4.43
16.78
35.38
50.78
62.85
71.61
77.11
79.46
79.06
76.45
72.41
67.61
62.56
57.50
52.52
47.70
43.24
39.51
36.91
35.65
35.57
36.06
36.25
35.32
32.72
28.47
23.05
17.20
11.65
6.75
2.39
-1.93
-6.93
-13.14
-20.75
-29.45
-38.62
-47.58
-55.83
-63.28
-70.28
-77.43
-85.32
-94.16
-103.47
-112.01
-117.93
-119.31
-114.68
-103.60
-86.81
-66.01
-43.36
-21.01
-0.55
17.08
31.58
43.00
51.58
57.59
61.30
62.99
63.06
61.99
60.24
58.13
55.79
53.13
50.09
46.78
43.57
41.05
39.71
39.68
40.61
41.79
42.42
41.92
40.10
37.15
33.50
29.55
25.53
21.36
16.67
10.94
3.81
-4.81
-14.56
-24.75
-34.50
-43.18
-50.53
-56.84
-62.78
-69.15
-76.56
-85.10
-94.02
-101.82
-106.46
-105.90
-98.78
-84.89
-65.34
-42.24
-18.10
4.79
24.89
41.43
54.28
63.62
69.69
72.72
72.99
70.94
67.16
62.26
56.83
51.29
45.91
40.88
36.45
32.87
30.43
29.25
29.25
29.98
30.76
30.86
29.71
27.13
23.28
18.67
13.89
9.47
5.62
2.17
-1.32
-5.53
-10.96
-17.88
-26.08
-35.02
-44.00
-52.42
-60.06
-67.19
-74.44
-82.51
-91.75
-101.67
-110.86
-117.13
-118.07
-111.97
-98.37
-78.45
-54.58
-29.65
-6.23
13.96
30.20
42.48
51.09
56.30
58.24
57.01
52.85
46.30
38.23
29.83
22.29
16.57
13.12
11.72
11.68
12.16
12.56
12.71
12.75
12.92
13.20
13.23
12.43
10.24
6.36
0.88
-5.73
-12.88
-20.01
-26.71
-32.76
-38.11
-42.79
-47.05
-51.18
-55.44
-59.87
-63.88
-66.31
-65.41
-59.49
-47.38
-29.17
-6.11
19.58
45.42
69.30
89.72
105.83
117.05
123.04
123.68
119.29
110.75
99.42
86.80
74.16
62.31
51.62
42.21
34.03
27.11
21.45
17.05
13.83
11.64
10.20
9.05
7.59
5.10
0.94
-5.26
-13.42
-22.95
-33.00
-42.71
-51.55
-59.55
-67.38
-76.06
-86.65
-99.69
-114.68
-130.01
-143.07
-151.01
-151.45
-143.42
-127.55
-105.88
-81.17
-56.17
-32.97
-12.90
3.36
15.57
23.67
27.87
28.57
26.42
22.29
17.09
11.73
6.93
3.16
0.57
-1.06
-2.11
-2.91
-3.44
-3.40
-2.30
0.07
3.44
7.02
9.86
11.27
11.20
10.21
9.05
8.18
7.43
5.99
2.73
-3.37
-12.79
-25.31
-40.02
-55.40
-69.40
-79.68
-83.94
-80.39
-68.38
-48.61
-23.31
4.40
31.29
54.80
73.52
87.16
96.05
100.61
101.04
97.20
89.11
77.16
62.40
46.21
30.02
14.78
0.83
-11.96
-23.97
-35.48
-46.66
-57.69
-68.76
-80.28
-92.67
-106.22
-120.95
-136.77
-153.61
-171.56
-190.85
-211.58
-233.45
-255.68
-277.10
-296.43
-312.53
-324.43
-331.24
-331.95
-325.52
-311.29
-289.36
-260.89
-227.97
-193.10
-158.48
-125.55
-94.86
-66.24
-39.22
-13.30
11.94
37.03
62.70
89.93
119.42
151.03
183.23
213.24
237.84
254.53
262.69
263.78
260.79
257.02
254.98
255.80
259.35
264.85
271.35
277.94
283.79
287.98
289.56
287.66
281.72
271.43
256.75
237.87
215.16
189.13
160.48
130.05
98.89
68.37
40.07
15.72
-3.26
-16.13
-23.15
-25.51
-24.95
-23.34
-22.11
-22.19
-23.96
-27.50
-32.72
-39.49
-47.63
-56.78
-66.39
-75.78
-84.24
-91.25
-96.62
-100.43
-102.90
-104.17
-104.21
-102.85
-100.10
-96.33
-92.27
-88.83
-86.73
-86.28
-87.23
-88.94
-90.78
-92.30
-93.45
-94.57
-96.26
-99.21
-104.10
-111.41
-121.16
-132.51
-143.72
-152.20
-155.12
-150.27
-136.79
-115.48
-88.52
-58.74
-28.78
-0.56
24.78
46.63
64.66
78.56
88.19
93.67
95.50
94.52
91.70
87.96
84.01
80.32
77.19
74.81
73.26
72.55
72.52
72.85
73.15
72.99
71.95
69.80
66.45
61.93
56.42
50.15
43.40
36.54
29.94
23.91
18.64
14.06
9.87
5.53
0.35
-6.45
-15.55
-27.27
-41.24
-56.13
-69.60
-78.73
-80.77
-74.07
-58.72
-36.63
-11.00
14.71
37.74
56.54
70.73
80.78
87.37
91.19
92.85
92.89
91.95
90.65
89.46
88.57
87.87
87.08
85.94
84.40
82.56
80.68
78.89
77.09
74.90
71.86
67.58
61.99
55.35
48.13
40.79
33.49
26.10
18.30
9.77
0.39
-9.68
-20.11
-30.57
-40.89
-51.17
-61.68
-72.85
-85.05
-98.45
-112.59
-126.34
-137.79
-144.57
-144.55
-136.41
-120.25
-97.62
-71.06
-43.38
-16.99
6.54
26.45
42.50
54.62
62.68
66.62
66.60
63.15
57.30
50.32
43.41
37.38
32.48
28.58
25.41
22.76
20.68
19.32
18.73
18.64
18.48
17.61
15.60
12.49
8.80
5.26
2.52
0.96
0.68
1.59
3.59
6.60
10.39
14.45
17.85
19.56
18.84
15.90
12.15
10.04
12.43
21.81
39.60
65.84
99.21
137.29
176.87
214.37
246.29
269.85
283.60
287.78
284.08
274.91
262.34
247.40
229.98
209.46
185.56
158.91
131.00
103.58
78.05
55.08
34.76
16.95
1.58
-11.30
-21.63
-29.41
-34.62
-37.12
-36.72
-33.49
-28.17
-22.34
-18.13
-17.64
-22.17
-31.99
-46.35
-64.00
-83.62
-103.86
-123.23
-139.79
-151.36
-156.07
-153.08
-143.18
-128.67
-112.80
-98.74
-88.73
-83.51
-82.52
-84.51
-88.31
-93.39
-100.02
-108.93
-120.75
-135.45
-152.21
-169.54
-185.78
-199.68
-210.77
-219.36
-226.22
-232.22
-238.04
-244.00
-249.95
-255.20
-258.40
-257.60
-250.75
-236.38
-214.37
-186.36
-155.40
-125.00
-97.86
-75.13
-56.37
-40.31
-25.95
-13.09
-2.35
5.49
10.21
12.49
13.79
16.01
21.00
30.33
45.13
65.96
92.51
123.44
156.48
188.92
218.38
243.61
264.66
282.44
298.01
311.68
322.82
330.01
331.74
327.09
316.07
299.65
279.33
256.68
233.02
209.24
185.95
163.50
142.05
121.57
101.78
82.15
62.07
41.05
18.85
-4.30
-27.77
-50.75
-72.50
-92.73
-111.68
-129.99
-148.36
-167.03
-185.40
-201.95
-214.70
-221.78
-222.18
-216.25
-205.59
-192.61
-179.81
-169.15
-161.70
-157.53
-155.86
-155.25
-153.79
-149.45
-140.52
-126.04
-106.13
-81.97
-55.54
-29.06
-4.52
16.70
33.92
46.94
55.98
61.43
63.77
63.55
61.35
57.85
53.78
49.86
46.67
44.57
43.67
43.91
45.06
46.90
49.10
51.33
53.17
54.29
54.48
53.73
52.06
49.59
46.42
42.64
38.46
34.15
29.90
25.73
21.35
16.35
10.44
3.69
-3.43
-10.27
-16.27
-21.21
-25.29
-29.03
-33.10
-38.18
-44.82
-53.40
-63.85
-75.47
-86.75
-95.51
-99.40
-96.56
-86.39
-69.70
-48.59
-25.74
-3.68
15.82
31.97
44.76
54.54
61.63
66.06
67.69
66.44
62.54
56.69
49.96
43.53
38.29
34.60
32.33
31.00
30.19
29.63
29.35
29.48
30.05
30.95
31.87
32.29
31.48
28.35
21.63
9.99
-7.46
-30.70
-58.51
-88.56
-117.92
-143.85
-164.46
-179.07
-188.07
-192.45
-193.28
-191.32
-186.97
-180.49
-172.16
-162.52
-152.13
-141.23
-129.44
-115.69
-98.46
-76.51
-49.48
-18.29
14.98
47.70
77.54
103.16
124.33
141.66
155.93
167.57
176.47
182.29
184.83
184.29
181.35
176.89
171.67
166.17
160.57
155.01
149.62
144.59
140.21
136.68
134.10
132.39
131.21
130.05
128.34
125.62
121.74
116.81
111.10
104.78
97.80
89.93
80.97
71.13
61.02
51.57
43.68
37.86
34.16
32.22
31.47
31.29
31.14
30.68
29.98
29.77
31.39
36.47
46.25
60.86
79.00
98.17
115.49
128.67
136.61
139.49
138.17
133.49
125.70
114.37
98.86
78.81
54.88
28.70
2.64
-20.92
-40.33
-55.02
-65.53
-72.97
-78.46
-82.72
-86.00
-88.43
-90.33
-92.40
-95.49
-100.20
-106.49
-113.67
-120.65
-126.52
-130.91
-134.06
-136.59
-139.05
-141.72
-144.65
-147.76
-151.05
-154.49
-157.79
-160.09
-160.14
-156.57
-148.61
-136.51
-121.60
-105.87
-91.18
-78.55
-67.82
-57.93
-47.54
-35.80
-22.76
-9.36
3.00
13.08
20.24
24.58
26.67
27.16
26.54
25.07
23.00
20.71
18.72
17.43
16.87
16.56
15.63
13.26
8.97
2.93
-4.17
-11.39
-18.00
-23.75
-28.95
-34.37
-40.88
-49.21
-59.55
-71.32
-83.12
-92.88
-98.29
-97.49
-89.73
-75.58
-56.83
-35.93
-15.25
3.49
19.27
31.66
40.50
45.71
47.38
45.89
41.98
36.59
30.67
24.90
19.56
14.71
10.30
6.42
3.34
1.37
0.73
1.36
2.86
4.50
5.58
5.51
4.14
1.68
-1.43
-4.76
-8.22
-12.14
-17.09
-23.66
-32.22
-42.56
-53.85
-64.65
-73.05
-77.14
-75.35
-66.97
-52.37
-32.97
-10.99
11.20
31.53
48.62
61.74
70.73
75.68
76.84
74.57
69.47
62.36
54.22
46.00
38.47
32.17
27.39
24.26
22.71
22.50
23.17
24.12
24.70
24.36
22.66
19.41
14.60
8.42
1.25
-6.48
-14.28
-21.89
-29.34
-37.05
-45.61
-55.45
-66.24
-76.73
-84.79
-87.94
-84.28
-73.22
-55.76
-34.22
-11.44
10.02
28.37
42.76
53.00
59.28
61.92
61.43
58.40
53.55
47.63
41.23
34.76
28.50
22.71
17.61
13.47
10.43
8.45
7.24
6.31
5.09
3.08
-0.05
-4.37
-9.67
-15.65
-22.01
-28.56
-35.45
-43.00
-51.71
-61.75
-72.71
-83.29
-91.46
-94.91
-91.84
-81.62
-65.05
-44.20
-21.72
-0.15
18.63
33.58
44.36
51.15
54.35
54.50
52.25
48.26
43.05
37.09
30.67
24.08
17.64
11.74
6.77
3.05
0.68
-0.53
-0.97
-1.18
-1.65
-2.72
-4.48
-6.93
-10.10
-14.06
-19.06
-25.44
-33.49
-43.32
-54.58
-66.20
-76.42
-83.00
-83.80
-77.45
-63.91
-44.53
-21.63
2.17
24.54
43.87
59.24
70.22
76.73
78.90
77.15
72.17
64.84
56.05
46.65
37.36
28.83
21.61
16.04
12.21
9.87
8.50
7.47
6.27
4.57
2.28
-0.61
-4.08
-8.20
-13.09
-18.85
-25.60
-33.41
-42.36
-52.31
-62.71
-72.37
-79.44
-81.82
-77.73
-66.46
-48.68
-26.36
-2.16
21.26
41.85
58.35
70.23
77.47
80.33
79.38
75.34
69.10
61.53
53.32
45.02
37.05
29.85
23.88
19.51
16.89
15.78
15.59
15.48
14.74
12.88
9.74
5.52
0.59
-4.67
-10.00
-15.38
-21.14
-27.81
-35.96
-45.80
-56.81
-67.56
-75.84
-79.16
-75.47
-63.93
-45.21
-21.43
4.49
29.62
51.74
69.72
83.46
93.52
100.68
105.51
108.34
109.34
108.74
106.91
104.37
101.67
99.24
97.32
96.10
95.85
97.08
100.54
106.97
116.85
130.10
146.03
163.50
181.10
197.44
211.19
221.18
226.35
225.85
219.21
206.57
188.81
167.53
144.82
122.76
103.02
86.39
72.68
60.86
49.25
36.22
20.46
1.47
-20.35
-43.80
-67.15
-88.59
-106.70
-120.82
-131.13
-138.59
-144.45
-149.94
-155.86
-162.50
-169.75
-177.30
-185.05
-193.03
-201.44
-210.27
-219.10
-227.06
-232.94
-235.73
-234.88
-230.65
-223.98
-216.24
-208.75
-202.33
-197.08
-192.16
-185.93
-176.33
-161.37
-139.89
-111.94
-78.96
-43.54
-8.79
22.30
47.37
65.02
74.77
77.11
73.21
64.84
54.12
43.17
33.76
26.92
22.91
21.22
20.96
21.25
21.45
21.36
21.10
20.86
20.77
20.62
19.98
18.26
15.00
10.03
3.68
-3.30
-9.91
-15.39
-19.40
-22.38
-25.40
-29.84
-36.89
-46.97
-59.40
-72.28
-82.82
-88.05
-85.75
-75.12
-57.10
-34.03
-8.95
15.35
36.88
54.68
68.50
78.39
84.44
86.74
85.55
81.48
75.47
68.48
61.32
54.47
48.08
42.29
37.29
33.43
31.08
30.32
30.90
32.14
33.23
33.45
32.46
30.31
27.41
24.18
20.87
17.42
13.47
8.61
2.65
-4.25
-11.63
-18.84
-25.46
-31.42
-37.13
-43.27
-50.64
-59.75
-70.53
-82.19
-93.06
-100.89
-103.30
-98.52
-86.01
-66.76
-43.02
-17.63
6.72
28.14
45.64
58.91
67.98
73.08
74.53
72.90
69.06
63.99
58.61
53.52
48.93
44.80
41.06
37.75
35.12
33.53
33.19
34.08
35.79
37.65
38.91
38.98
37.60
34.88
31.22
27.09
22.95
18.89
14.79
10.31
5.14
-0.89
-7.56
-14.46
-21.06
-27.04
-32.39
-37.48
-42.94
-49.40
-57.35
-66.86
-77.44
-87.79
-95.99
-99.79
-97.21
-87.31
-70.58
-48.90
-24.96
-1.46
19.57
37.00
50.49
60.08
65.95
68.30
67.42
63.93
58.69
52.66
46.66
41.29
36.89
33.60
31.49
30.54
30.62
31.37
32.30
32.89
32.82
32.02
30.69
29.05
27.11
24.61
21.06
16.03
9.43
1.63
-6.72
-14.93
-22.56
-29.49
-35.88
-42.04
-48.31
-55.04
-62.59
-71.15
-80.41
-89.24
-95.76
-97.75
-93.41
-82.09
-64.62
-43.07
-19.98
2.23
21.90
38.17
50.77
59.78
65.35
67.79
67.54
65.22
61.51
57.04
52.31
47.69
43.42
39.67
36.61
34.33
32.95
32.47
32.82
33.72
34.73
35.30
34.88
33.15
30.14
26.19
21.79
17.26
12.57
7.44
1.55
-5.21
-12.58
-20.08
-27.25
-33.88
-40.17
-46.55
-53.60
-61.72
-71.01
-81.03
-90.71
-98.31
-101.81
-99.34
-89.94
-73.89
-52.78
-29.02
-5.17
16.74
35.45
50.46
61.69
69.24
73.26
74.07
72.19
68.39
63.57
58.48
53.65
49.29
45.38
41.96
39.15
37.19
36.28
36.45
37.36
38.41
38.94
38.40
36.57
33.56
29.74
25.54
21.32
17.20
13.10
8.66
3.53
-2.62
-9.76
-17.49
-25.13
-32.06
-37.97
-43.11
-48.16
-54.00
-61.36
-70.52
-81.17
-92.36
-102.51
-109.61
-111.67
-107.14
-95.51
-77.60
-55.33
-31.28
-7.97
12.77
29.96
43.29
52.89
59.02
62.01
62.30
60.47
57.11
52.93
48.52
44.28
40.51
37.35
34.89
33.22
32.39
32.41
33.19
34.41
35.67
36.53
36.59
35.70
33.92
31.46
28.51
25.14
21.23
16.59
11.06
4.62
-2.54
-10.08
-17.60
-24.64
-30.94
-36.40
-41.22
-45.80
-50.79
-56.86
-64.47
-73.46
-82.78
-90.54
-94.41
-92.33
-83.32
-67.88
-47.93
-26.10
-4.96
13.71
29.11
41.18
50.17
56.32
59.67
60.31
58.45
54.59
49.47
43.92
38.65
34.16
30.61
28.00
26.19
25.04
24.50
24.49
24.85
25.25
25.25
24.40
22.43
19.35
15.41
10.89
5.99
0.77
-4.83
-10.85
-17.19
-23.64
-29.95
-36.02
-42.00
-48.37
-55.73
-64.55
-74.77
-85.52
-95.10
-101.24
-101.78
-95.35
-81.91
-62.71
-40.02
-16.48
5.60
24.62
39.86
51.27
59.22
64.15
66.42
66.34
64.19
60.36
55.41
50.01
44.82
40.32
36.76
34.13
32.28
30.97
29.92
28.86
27.62
26.03
24.10
21.84
19.33
16.50
13.22
9.22
4.34
-1.38
-7.67
-14.11
-20.33
-26.13
-31.61
-37.05
-42.86
-49.46
-57.18
-66.20
-76.39
-87.05
-96.81
-103.72
-105.60
-100.82
-88.90
-70.78
-48.62
-25.11
-2.79
16.58
32.19
43.95
52.23
57.46
60.10
60.52
59.14
56.43
52.84
48.83
44.84
41.17
38.05
35.55
33.62
32.15
31.01
30.08
29.25
28.40
27.41
26.12
24.40
22.16
19.38
16.10
12.30
7.98
3.07
-2.50
-8.65
-15.23
-21.95
-28.55
-34.88
-41.02
-47.27
-54.08
-61.85
-70.57
-79.59
-87.56
-92.62
-92.96
-87.40
-75.83
-59.34
-39.83
-19.38
0.30
18.13
33.58
46.41
56.43
63.37
67.01
67.41
64.95
60.32
54.38
48.00
41.93
36.68
32.56
29.63
27.85
27.02
26.97
27.46
28.24
29.03
29.43
29.07
27.58
24.75
20.50
15.00
8.60
1.76
-5.06
-11.59
-17.80
-23.87
-30.14
-37.04
-44.92
-53.97
-64.12
-74.76
-84.73
-92.37
-95.79
-93.46
-84.73
-70.09
-51.07
-29.87
-8.65
10.96
27.98
41.96
52.72
60.07
63.88
64.20
61.54
56.88
51.37
46.11
41.72
38.30
35.46
32.75
29.93
27.11
24.65
22.90
21.88
21.22
20.22
18.08
14.29
8.73
1.80
-5.83
-13.46
-20.65
-27.32
-33.72
-40.30
-47.59
-56.08
-66.15
-77.80
-90.38
-102.46
-111.81
-116.02
-113.13
-102.45
-84.88
-62.59
-38.33
-14.57
7.01
25.58
40.90
52.84
61.30
66.19
67.66
66.21
62.66
57.94
52.94
48.28
44.28
40.99
38.30
36.04
34.09
32.41
30.99
29.82
28.68
27.16
24.70
20.77
15.11
7.88
-0.35
-8.83
-16.93
-24.39
-31.42
-38.55
-46.42
-55.54
-66.07
-77.68
-89.52
-100.11
-107.56
-109.88
-105.51
-93.86
-75.60
-52.62
-27.41
-2.42
20.47
40.18
56.22
68.33
76.33
80.18
80.14
76.96
71.79
65.87
60.23
55.41
51.55
48.48
46.02
43.99
42.24
40.71
39.26
37.80
36.26
34.51
32.39
29.59
25.84
20.92
14.88
7.96
0.61
-6.73
-13.77
-20.46
-27.01
-33.76
-41.11
-49.46
-59.11
-70.08
-81.96
-93.62
-103.28
-108.79
-108.25
-100.63
-86.19
-66.52
-43.86
-20.57
1.55
21.42
38.57
52.71
63.57
70.88
74.55
74.89
72.61
68.71
64.17
59.64
55.46
51.73
48.54
46.13
44.81
44.76
45.86
47.56
49.04
49.51
48.44
45.81
41.99
37.56
32.98
28.49
23.97
19.06
13.25
6.16
-2.32
-11.85
-21.73
-31.08
-39.27
-46.10
-52.00
-57.84
-64.68
-73.27
-83.71
-95.15
-105.84
-113.44
-115.56
-110.51
-97.83
-78.53
-54.77
-29.27
-4.56
17.61
36.34
51.30
62.40
69.62
72.91
72.53
69.08
63.55
57.09
50.71
45.12
40.65
37.39
35.30
34.29
34.23
34.91
35.98
37.00
37.52
37.15
35.65
32.94
29.08
24.23
18.58
12.32
5.64
-1.27
-8.22
-15.06
-21.73
-28.30
-34.98
-42.19
-50.38
-59.95
-71.00
-83.03
-94.77
-104.27
-109.27
-107.86
-99.11
-83.39
-62.25
-37.98
-12.94
10.86
31.97
49.42
62.65
71.35
75.59
75.86
73.05
68.27
62.66
57.13
52.31
48.44
45.57
43.61
42.48
42.20
42.79
44.16
46.06
48.00
49.44
49.82
48.79
46.31
42.56
37.88
32.54
26.70
20.38
13.51
6.03
-2.02
-10.56
-19.36
-28.15
-36.63
-44.59
-51.98
-59.03
-66.29
-74.42
-83.93
-94.69
-105.60
-114.56
-119.01
-116.64
-106.29
-88.43
-65.09
-39.18
-13.62
9.44
28.97
44.78
57.15
66.38
72.61
75.92
76.61
75.26
72.68
69.60
66.48
63.39
60.24
57.05
54.16
52.20
51.79
53.19
56.00
59.30
61.95
63.02
62.09
59.23
54.87
49.47
43.36
36.81
30.03
23.27
16.78
10.66
4.84
-0.92
-6.94
-13.40
-20.32
-27.48
-34.57
-41.30
-47.53
-53.37
-59.17
-65.51
-72.98
-81.98
-92.40
-103.34
-113.08
-119.33
-119.87
-113.18
-99.07
-78.70
-54.35
-28.69
-4.16
17.52
35.52
49.62
59.96
66.85
70.63
71.75
70.79
68.40
65.31
62.16
59.33
57.01
55.23
53.98
53.28
53.23
53.89
55.17
56.74
58.06
58.57
57.90
55.96
52.94
49.20
45.07
40.76
36.27
31.46
26.16
20.30
13.93
7.31
0.83
-5.19
-10.61
-15.63
-20.61
-25.91
-31.62
-37.48
-43.01
-47.81
-51.80
-55.43
-59.46
-64.77
-71.93
-80.96
-91.18
-101.14
-108.87
-112.25
-109.55
-99.95
-83.89
-62.91
-39.29
-15.36
6.92
26.24
41.91
53.68
61.62
65.96
67.16
65.83
62.80
58.85
54.72
50.97
47.99
45.98
44.94
44.76
45.22
46.14
47.34
48.65
49.86
50.62
50.56
49.40
47.04
43.69
39.75
35.63
31.57
27.52
23.23
18.43
13.02
7.12
1.00
-5.08
-10.99
-16.80
-22.61
-28.57
-34.67
-40.81
-46.87
-52.76
-58.59
-64.64
-71.36
-79.15
-88.06
-97.41
-105.72
-110.91
-110.86
-104.17
-90.63
-71.41
-48.66
-24.88
-2.28
17.60
33.94
46.54
55.50
61.15
63.90
64.27
62.88
60.39
57.38
54.33
51.51
48.99
46.78
44.92
43.52
42.76
42.73
43.42
44.56
45.76
46.54
46.52
45.46
43.31
40.15
36.16
31.55
26.53
21.26
15.89
10.48
5.00
-0.61
-6.48
-12.75
-19.40
-26.34
-33.29
-39.92
-45.99
-51.48
-56.60
-61.68
-67.14
-73.35
-80.62
-89.09
-98.51
-108.07
-116.26
-121.09
-120.54
-113.35
-99.41
-79.97
-57.21
-33.52
-10.90
9.37
26.68
40.78
51.52
58.82
62.73
63.58
62.07
59.12
55.60
52.13
48.99
46.24
43.85
41.84
40.32
39.50
39.42
40.01
40.94
41.85
42.34
42.23
41.44
40.03
38.09
35.62
32.55
28.79
24.27
19.08
13.46
7.72
2.15
-3.15
-8.30
-13.53
-19.11
-25.16
-31.58
-38.02
-44.03
-49.33
-53.90
-58.15
-62.78
-68.63
-76.19
-85.30
-94.98
-103.42
-108.50
-108.29
-101.67
-88.65
-70.35
-48.69
-25.88
-3.94
15.61
31.90
44.55
53.54
59.10
61.56
61.35
59.05
55.32
50.84
46.24
41.98
38.28
35.28
33.00
31.44
30.64
30.54
30.99
31.70
32.27
32.31
31.50
29.81
27.34
24.40
21.28
18.15
14.97
11.44
7.22
2.00
-4.29
-11.44
-18.99
-26.44
-33.41
-39.71
-45.49
-51.16
-57.25
-64.33
-72.61
-81.73
-90.62
-97.54
-100.51
-97.92
-89.06
-74.36
-55.34
-34.03
-12.55
7.44
24.87
39.25
50.45
58.47
63.36
65.23
64.38
61.36
56.89
51.84
46.97
42.73
39.30
36.61
34.56
33.17
32.45
32.36
32.71
33.09
33.02
32.11
30.16
27.18
23.44
19.28
15.06
10.94
6.78
2.21
-3.27
-9.98
-17.84
-26.28
-34.48
-41.66
-47.46
-52.14
-56.49
-61.52
-68.12
-76.74
-87.12
-98.25
-108.39
-115.41
-117.32
-112.74
-101.37
-84.09
-62.69
-39.41
-16.39
4.72
22.89
37.57
48.62
56.13
60.46
62.14
61.86
60.31
58.08
55.54
52.84
50.04
47.22
44.54
42.26
40.63
39.82
39.84
40.52
41.49
42.27
42.31
41.20
38.64
34.75
29.84
24.45
19.10
14.17
9.68
5.32
0.57
-5.07
-11.88
-19.71
-28.01
-36.08
-43.29
-49.42
-54.82
-60.31
-66.89
-75.31
-85.57
-96.73
-106.96
-113.99
-115.70
-110.77
-99.07
-81.58
-60.14
-36.90
-13.91
7.20
25.27
39.66
50.12
56.85
60.34
61.29
60.51
58.64
56.20
53.49
50.71
48.00
45.55
43.57
42.25
41.65
41.72
42.20
42.72
42.87
42.32
40.90
38.62
35.65
32.21
28.50
24.58
20.45
15.98
11.00
5.41
-0.79
-7.47
-14.35
-21.15
-27.67
-33.91
-40.15
-46.89
-54.70
-63.93
-74.40
-85.19
-94.69
-100.90
-101.98
-96.80
-85.29
-68.48
-48.14
-26.38
-5.08
14.33
30.95
44.31
54.21
60.67
63.87
64.22
62.25
58.61
53.94
48.83
43.80
39.29
35.70
33.25
31.97
31.63
31.84
32.15
32.20
31.84
31.02
29.72
27.75
24.86
20.76
15.40
8.99
1.98
-5.13
-12.02
-18.62
-25.11
-31.72
-38.67
-46.14
-54.33
-63.45
-73.51
-84.02
-93.75
-100.82
-103.07
-98.83
-87.59
-70.19
-48.63
-25.38
-2.72
17.70
34.95
48.65
58.77
65.41
68.91
69.72
68.43
65.63
61.85
57.50
52.93
48.53
44.75
42.04
40.67
40.60
41.36
42.23
42.43
41.45
39.14
35.66
31.37
26.57
21.40
15.84
9.85
3.39
-3.51
-10.75
-18.19
-25.74
-33.30
-40.77
-48.17
-55.65
-63.57
-72.38
-82.35
-93.17
-103.81
-112.52
-117.21
-116.04
-108.00
-93.23
-73.02
-49.41
-24.74
-1.10
19.91
37.33
50.80
60.41
66.56
69.84
70.83
70.06
68.03
65.20
62.00
58.84
56.05
53.81
52.21
51.22
50.77
50.71
50.77
50.62
49.88
48.29
45.72
42.28
38.19
33.73
29.07
24.18
18.86
12.86
5.98
-1.76
-10.14
-18.73
-27.03
-34.73
-41.74
-48.33
-55.08
-62.76
-72.01
-83.06
-95.33
-107.28
-116.57
-120.66
-117.62
-106.80
-89.12
-66.73
-42.33
-18.36
3.52
22.51
38.37
51.03
60.43
66.51
69.46
69.79
68.31
65.87
63.12
60.36
57.62
54.83
52.09
49.73
48.18
47.79
48.54
49.98
51.34
51.83
50.89
48.38
44.54
39.91
35.08
30.52
26.42
22.53
18.35
13.25
6.86
-0.79
-9.18
-17.50
-25.03
-31.42
-36.95
-42.35
-48.54
-56.28
-65.87
-76.95
-88.47
-98.81
-105.97
-108.08
-103.87
-93.05
-76.52
-56.07
-33.97
-12.31
7.34
24.14
37.78
48.24
55.56
59.80
61.06
59.69
56.31
51.74
46.86
42.36
38.70
36.10
34.61
34.23
34.87
36.34
38.32
40.32
41.85
42.46
41.89
40.03
36.92
32.63
27.29
21.02
14.06
6.70
-0.77
-8.13
-15.30
-22.33
-29.39
-36.71
-44.62
-53.43
-63.38
-74.33
-85.50
-95.38
-101.87
-102.87
-96.95
-83.97
-65.19
-42.91
-19.71
2.23
21.55
37.63
50.36
59.79
65.98
69.05
69.28
67.19
63.49
58.92
54.16
49.72
45.94
42.98
40.88
39.61
39.03
38.94
39.02
38.86
38.08
36.39
33.75
30.28
26.20
21.67
16.66
11.05
4.69
-2.44
-10.14
-18.07
-25.87
-33.31
-40.34
-47.16
-54.09
-61.62
-70.26
-80.38
-91.88
-103.87
-114.60
-121.68
-122.77
-116.36
-102.38
-82.22
-58.26
-33.14
-8.95
12.96
32.01
47.87
60.32
69.06
73.96
75.25
73.66
70.27
66.20
62.32
59.05
56.35
53.99
51.77
49.68
47.91
46.73
46.21
46.13
45.96
45.07
42.97
39.58
35.23
30.48
25.87
21.66
17.72
13.57
8.69
2.72
-4.32
-12.05
-19.93
-27.44
-34.34
-40.76
-47.06
-53.82
-61.60
-70.78
-81.40
-92.98
-104.29
-113.51
-118.47
-117.24
-108.80
-93.39
-72.55
-48.66
-24.25
-1.39
18.60
35.13
48.12
57.63
63.82
66.85
67.12
65.27
62.13
58.54
55.15
52.32
50.06
48.24
46.72
45.57
45.00
45.27
46.43
48.14
49.72
50.30
49.25
46.36
41.99
36.82
31.57
26.69
22.13
17.47
12.18
5.92
-1.32
-9.22
-17.25
-24.91
-31.86
-38.08
-43.82
-49.59
-55.98
-63.58
-72.64
-82.87
-93.23
-102.00
-107.11
-106.66
-99.57
-85.88
-66.85
-44.58
-21.42
0.54
19.82
35.61
47.63
56.00
60.98
63.00
62.53
60.11
56.28
51.63
46.80
42.36
38.87
36.65
35.75
35.93
36.79
37.89
38.89
39.55
39.71
39.18
37.77
35.32
31.80
27.29
21.90
15.75
8.97
1.63
-6.15
-14.18
-22.24
-30.06
-37.46
-44.42
-51.20
-58.35
-66.47
-75.96
-86.54
-97.10
-105.68
-110.04
-108.30
-99.63
-84.51
-64.57
-41.99
-18.95
2.83
22.24
38.61
51.59
60.97
66.72
69.01
68.33
65.43
61.18
56.44
51.80
47.65
44.14
41.35
39.37
38.31
38.25
39.06
40.43
41.77
42.45
41.93
39.93
36.51
31.95
26.71
21.17
15.56
9.85
3.90
-2.54
-9.54
-17.01
-24.67
-32.10
-38.97
-45.13
-50.76
-56.34
-62.58
-70.18
-79.58
-90.55
-101.95
-111.80
-117.64
-117.34
-109.70
-94.93
-74.61
-51.01
-26.58
-3.28
17.60
35.34
49.56
60.03
66.68
69.65
69.51
67.07
63.32
59.12
55.14
51.68
48.76
46.27
44.11
42.34
41.15
40.80
41.38
42.66
44.13
44.98
44.47
42.15
38.07
32.74
26.88
21.16
15.89
10.96
5.97
0.48
-5.81
-12.93
-20.62
-28.49
-36.02
-42.83
-48.64
-53.44
-57.58
-61.78
-66.94
-73.83
-82.73
-92.97
-102.99
-110.53
-113.33
-109.69
-99.00
-81.89
-60.08
-35.87
-11.68
10.51
29.36
44.24
55.08
62.18
65.99
67.03
65.87
63.10
59.35
55.21
51.10
47.29
43.93
41.11
39.03
37.89
37.82
38.69
40.04
41.21
41.47
40.35
37.71
33.80
29.07
24.01
18.97
13.98
8.89
3.41
-2.73
-9.55
-16.83
-24.13
-31.02
-37.30
-43.11
-48.90
-55.29
-62.80
-71.62
-81.37
-91.07
-99.15
-103.74
-103.11
-96.14
-82.73
-63.95
-41.71
-18.38
3.86
23.34
39.18
51.13
59.36
64.26
66.22
65.58
62.72
58.11
52.37
46.25
40.52
35.78
32.30
29.99
28.56
27.66
27.04
26.50
25.95
25.21
24.08
22.32
19.71
16.14
11.63
6.25
0.16
-6.43
-13.36
-20.41
-27.34
-34.07
-40.58
-47.12
-54.08
-61.96
-71.11
-81.41
-92.02
-101.34
-107.24
-107.71
-101.47
-88.43
-69.77
-47.60
-24.33
-2.09
17.61
34.02
46.90
56.34
62.57
65.93
66.81
65.66
62.97
59.22
54.87
50.36
46.10
42.44
39.65
37.81
36.91
36.73
36.92
37.00
36.45
34.88
32.12
28.27
23.67
18.62
13.31
7.64
1.41
-5.47
-12.90
-20.51
-27.93
-34.98
-41.75
-48.65
-56.14
-64.65
-74.33
-84.93
-95.62
-104.98
-111.13
-112.11
-106.51
-93.92
-75.23
-52.39
-27.86
-3.97
17.53
35.58
49.71
59.79
65.96
68.58
68.27
65.89
62.39
58.61
55.10
52.12
49.63
47.55
45.78
44.40
43.53
43.26
43.40
43.53
43.12
41.67
39.03
35.38
31.17
26.83
22.56
18.17
13.25
7.38
0.42
-7.38
-15.52
-23.41
-30.62
-37.05
-42.86
-48.40
-54.14
-60.62
-68.29
-77.31
-87.24
-96.85
-104.19
-107.01
-103.48
-92.81
-75.66
-53.89
-30.04
-6.59
14.58
32.43
46.55
56.91
63.61
66.80
66.81
64.23
59.94
54.96
50.23
46.28
43.25
40.97
39.20
37.89
37.16
37.23
38.10
39.43
40.54
40.69
39.36
36.50
32.50
27.98
23.50
19.25
15.11
10.75
5.83
0.20
-6.09
-12.77
-19.54
-26.09
-32.20
-37.84
-43.21
-48.79
-55.22
-63.13
-72.59
-82.91
-92.43
-98.94
-100.21
-94.78
-82.44
-64.29
-42.42
-19.24
3.07
22.96
39.54
52.46
61.68
67.30
69.55
68.81
65.66
60.85
55.24
49.64
44.68
40.78
38.09
36.57
36.04
36.22
36.81
37.45
37.82
37.60
36.63
34.82
32.20
28.83
24.75
19.97
14.44
8.15
1.12
-6.51
-14.54
-22.70
-30.69
-38.29
-45.41
-52.17
-58.96
-66.36
-74.97
-84.92
-95.66
-105.63
-112.63
-114.36
-109.24
-96.92
-78.46
-55.91
-31.65
-7.78
14.15
33.12
48.48
59.81
66.96
70.17
70.10
67.67
63.84
59.46
55.17
51.36
48.30
46.10
44.73
44.09
44.02
44.39
45.08
45.88
46.39
46.11
44.53
41.43
37.01
31.78
26.41
21.25
16.27
11.01
4.97
-2.15
-10.27
-18.95
-27.60
-35.72
-43.05
-49.62
-55.77
-62.05
-69.18
-77.84
-88.30
-100.04
-111.57
-120.55
-124.41
-121.12
-109.95
-91.68
-68.36
-42.58
-16.85
6.95
27.65
44.64
57.68
66.79
72.24
74.56
74.48
72.79
70.20
67.25
64.26
61.43
58.92
56.89
55.44
54.59
54.30
54.43
54.79
55.11
55.01
54.07
51.87
48.13
42.88
36.54
29.83
23.53
18.15
13.68
9.60
5.11
-0.49
-7.49
-15.63
-24.26
-32.60
-40.06
-46.48
-52.15
-57.71
-64.03
-71.79
-81.30
-92.11
-102.84
-111.40
-115.38
-112.79
-102.70
-85.63
-63.36
-38.50
-13.69
8.94
28.15
43.45
54.91
62.82
67.45
69.12
68.26
65.54
61.77
57.80
54.27
51.47
49.36
47.66
46.17
44.87
43.90
43.49
43.70
44.33
44.89
44.81
43.57
40.93
36.96
32.07
26.78
21.54
16.56
11.71
6.60
0.81
-5.88
-13.37
-21.16
-28.52
-34.80
-39.70
-43.51
-46.97
-51.12
-56.92
-64.80
-74.43
-84.59
-93.43
-98.80
-98.85
-92.56
-79.96
-62.24
-41.31
-19.40
1.55
20.07
35.32
46.90
54.78
59.13
60.26
58.71
55.09
50.08
44.39
38.70
33.61
29.52
26.60
24.77
23.69
22.99
22.44
21.99
21.74
21.74
21.85
21.60
20.42
17.75
13.38
7.52
0.72
-6.32
-13.09
-19.36
-25.21
-30.98
-37.08
-43.86
-51.61
-60.46
-70.32
-80.64
-90.30
-97.61
-100.68
-97.93
-88.68
-73.45
-53.83
-31.97
-9.99
10.42
28.21
42.79
53.86
61.25
64.93
65.12
62.33
57.39
51.28
44.94
39.08
34.13
30.14
27.03
24.62
22.77
21.42
20.49
19.90
19.41
18.62
17.01
14.09
9.53
3.31
-4.23
-12.48
-20.71
-28.36
-35.23
-41.50
-47.72
-54.64
-62.95
-73.00
-84.56
-96.54
-107.06
-113.76
-114.46
-107.81
-93.83
-73.95
-50.57
-26.32
-3.40
16.81
33.71
47.20
57.35
64.21
67.87
68.60
66.91
63.53
59.30
54.93
50.90
47.46
44.67
42.54
41.06
40.23
39.92
39.92
39.88
39.44
38.26
36.03
32.55
27.73
21.58
14.26
6.13
-2.38
-10.83
-18.88
-26.42
-33.63
-40.88
-48.67
-57.51
-67.79
-79.55
-92.26
-104.61
-114.55
-119.68
-117.92
-108.27
-91.25
-68.73
-43.44
-18.06
5.38
25.71
42.47
55.54
64.92
70.68
73.14
72.89
70.78
67.66
64.18
60.68
57.28
54.03
51.04
48.55
46.82
46.06
46.21
47.00
47.93
48.46
48.10
46.58
43.89
40.18
35.70
30.65
25.05
18.77
11.65
3.58
-5.28
-14.55
-23.72
-32.28
-39.92
-46.66
-52.85
-59.06
-66.01
-74.36
-84.35
-95.63
-106.92
-116.15
-120.86
-118.90
-109.18
-92.05
-69.22
-43.25
-16.86
7.74
29.09
46.45
59.67
68.86
74.31
76.41
75.71
72.86
68.67
64.00
59.63
56.06
53.47
51.73
50.54
49.68
49.10
48.90
49.20
49.89
50.66
51.03
50.50
48.72
45.60
41.22
35.90
30.09
24.29
18.89
14.00
9.35
4.37
-1.61
-8.97
-17.61
-26.91
-35.96
-44.00
-50.70
-56.27
-61.33
-66.67
-72.98
-80.73
-90.00
-100.31
-110.46
-118.57
-122.32
-119.67
-109.57
-92.42
-70.02
-44.92
-19.71
3.75
24.39
41.75
55.62
65.76
72.01
74.46
73.63
70.43
65.90
60.99
56.35
52.32
49.05
46.53
44.71
43.53
42.97
43.02
43.65
44.68
45.68
46.05
45.07
42.29
37.69
31.73
25.26
19.16
13.94
9.62
5.75
1.68
-3.08
-8.70
-14.93
-21.24
-27.05
-32.02
-36.13
-39.71
-43.33
-47.70
-53.46
-61.09
-70.50
-80.93
-90.74
-97.71
-99.52
-94.51
-82.25
-63.70
-40.97
-16.70
6.70
27.45
44.61
57.89
67.36
73.27
75.88
75.56
72.78
68.15
62.45
56.46
50.87
46.16
42.57
40.08
38.62
38.05
38.26
39.09
40.32
41.54
42.28
41.99
40.27
36.96
32.21
26.46
20.34
14.37
8.78
3.44
-2.10
-8.27
-15.31
-23.04
-30.98
-38.56
-45.37
-51.34
-56.87
-62.66
-69.54
-78.18
-88.67
-100.26
-111.25
-119.27
-121.99
-117.72
-106.06
-87.95
-65.40
-40.79
-16.35
6.24
25.94
42.17
54.63
63.20
67.98
69.24
67.66
64.12
59.60
54.90
50.50
46.55
43.02
40.03
37.80
36.65
36.73
37.85
39.45
40.80
41.19
40.18
37.68
33.86
29.07
23.72
18.13
12.51
6.83
0.89
-5.58
-12.65
-20.13
-27.58
-34.53
-40.78
-46.54
-52.47
-59.39
-68.01
-78.46
-90.13
-101.48
-110.35
-114.44
-111.90
-101.96
-85.20
-63.39
-38.99
-14.46
8.28
28.11
44.58
57.62
67.25
73.40
76.05
75.42
72.03
66.79
60.73
54.74
49.44
45.11
41.72
39.23
37.61
36.84
36.76
37.04
37.12
36.43
34.56
31.47
27.46
22.97
18.37
13.71
8.80
3.33
-2.93
-9.92
-17.37
-24.89
-32.12
-38.85
-45.04
-50.82
-56.51
-62.64
-69.81
-78.46
-88.42
-98.60
-107.00
-111.16
-109.01
-99.62
-83.51
-62.59
-39.42
-16.46
4.45
22.33
36.88
48.09
56.02
60.67
62.03
60.28
55.90
49.69
42.72
36.07
30.64
26.88
24.78
23.94
23.80
23.88
23.99
24.11
24.34
24.60
24.54
23.66
21.42
17.58
12.24
5.87
-0.95
-7.70
-14.17
-20.45
-26.84
-33.80
-41.79
-51.11
-61.81
-73.35
-84.50
-93.42
-97.97
-96.37
-87.78
-72.66
-52.70
-30.30
-7.85
12.79
30.56
45.07
56.24
64.04
68.41
69.39
67.28
62.75
56.72
50.22
44.15
39.14
35.44
33.02
31.62
30.82
30.25
29.60
28.68
27.46
25.93
24.08
21.77
18.74
14.73
9.58
3.36
-3.61
-10.89
-18.06
-24.89
-31.35
-37.69
-44.30
-51.68
-60.33
-70.61
-82.42
-94.87
-106.21
-113.96
-115.59
-109.33
-94.79
-73.24
-47.17
-19.55
6.98
30.65
50.53
66.35
78.13
85.99
90.23
91.35
90.17
87.67
84.80
82.24
80.33
79.05
78.19
77.48
76.66
75.47
73.65
70.93
67.08
62.00
55.84
48.98
42.01
35.43
29.54
24.21
18.92
12.96
5.69
-3.24
-13.80
-25.65
-38.26
-51.07
-63.47
-74.92
-84.97
-93.50
-100.76
-107.30
-113.63
-119.76
-124.79
-127.07
-124.64
-116.00
-100.81
-80.08
-55.82
-30.32
-5.46
17.60
38.36
56.56
71.89
83.88
92.14
96.71
98.14
97.49
95.98
94.57
93.75
93.45
93.16
92.22
90.11
86.70
82.39
78.08
74.82
73.48
74.39
77.15
80.92
84.66
87.43
88.56
87.65
84.43
78.83
70.94
61.10
49.89
37.91
25.67
13.41
1.18
-11.00
-23.01
-34.63
-45.70
-56.19
-66.29
-76.43
-87.13
-98.82
-111.74
-125.60
-139.45
-151.54
-159.62
-161.45
-155.56
-141.79
-121.43
-96.87
-70.81
-45.72
-23.26
-4.32
10.77
22.00
29.63
34.01
35.71
35.42
33.81
31.51
29.04
26.78
24.98
23.81
23.29
23.36
23.93
24.93
26.35
28.14
30.16
32.05
33.25
33.22
31.50
28.05
23.21
17.60
11.94
6.81
2.43
-1.38
-5.07
-9.21
-14.25
-20.37
-27.40
-34.87
-42.26
-49.18
-55.57
-61.75
-68.31
-75.90
-84.97
-95.45
-106.55
-116.67
-123.63
-125.22
-119.81
-107.00
-87.77
-64.23
-39.00
-14.46
7.70
26.57
41.86
53.52
61.55
66.04
67.28
65.81
62.46
58.16
53.76
49.93
47.00
45.02
43.80
43.09
42.71
42.68
43.15
44.18
45.66
47.07
47.73
47.00
44.61
40.67
35.73
30.37
25.02
19.78
14.47
8.79
2.53
-4.39
-11.87
-19.73
-27.72
-35.64
-43.27
-50.41
-56.91
-62.69
-67.95
-73.16
-79.06
-86.45
-95.84
-106.90
-118.24
-127.46
-131.72
-128.67
-117.24
-98.06
-73.26
-45.75
-18.31
6.96
28.85
46.88
60.96
71.12
77.48
80.34
80.23
77.89
74.16
69.79
65.46
61.64
58.61
56.51
55.32
54.89
55.07
55.69
56.57
57.46
58.07
58.05
57.10
55.08
51.99
47.99
43.31
38.13
32.55
26.62
20.45
14.25
8.21
2.46
-3.07
-8.66
-14.61
-21.10
-28.10
-35.35
-42.54
-49.49
-56.14
-62.54
-68.85
-75.25
-82.11
-89.91
-99.08
-109.53
-120.31
-129.45
-134.33
-132.49
-122.55
-104.74
-80.90
-53.87
-26.55
-1.22
20.73
38.74
52.67
62.52
68.34
70.35
69.16
65.77
61.38
57.16
53.84
51.63
50.37
49.72
49.50
49.75
50.61
52.12
54.03
55.84
56.99
57.07
56.02
54.08
51.57
48.76
45.69
42.22
38.12
33.23
27.60
21.45
15.06
8.69
2.44
-3.79
-10.19
-16.92
-23.99
-31.16
-38.08
-44.38
-49.89
-54.80
-59.60
-65.02
-71.72
-80.01
-89.53
-99.14
-106.94
-110.83
-108.97
-100.40
-85.43
-65.44
-42.54
-18.94
3.59
23.88
41.29
55.42
65.97
72.75
75.83
75.68
73.18
69.34
65.06
60.89
57.06
53.67
50.80
48.65
47.45
47.30
48.07
49.44
50.95
52.09
52.49
51.84
49.90
46.60
42.03
36.50
30.42
24.26
18.37
12.91
7.86
2.99
-2.05
-7.64
-14.00
-21.11
-28.60
-35.95
-42.67
-48.48
-53.53
-58.24
-63.15
-68.72
-75.31
-83.18
-92.50
-103.07
-114.03
-123.61
-129.33
-128.70
-120.08
-103.45
-80.47
-53.96
-26.98
-1.98
19.64
37.43
51.47
62.03
69.31
73.53
75.04
74.39
72.25
69.29
66.04
62.83
59.86
57.28
55.32
54.17
54.00
54.70
55.95
57.23
58.04
58.09
57.33
55.89
53.87
51.23
47.75
43.25
37.71
31.34
24.56
17.82
11.41
5.46
-0.17
-5.73
-11.55
-17.83
-24.66
-31.90
-39.23
-46.28
-52.73
-58.51
-63.88
-69.41
-75.82
-83.78
-93.46
-104.33
-114.91
-122.98
-126.09
-122.28
-110.78
-92.37
-69.01
-43.31
-17.74
5.83
26.38
43.44
56.89
66.70
72.91
75.71
75.61
73.26
69.51
65.12
60.75
56.82
53.55
50.99
49.09
47.84
47.20
47.15
47.57
48.24
48.83
48.96
48.29
46.56
43.68
39.74
35.04
29.96
24.92
20.15
15.61
11.01
5.96
0.17
-6.44
-13.63
-21.00
-28.10
-34.61
-40.40
-45.50
-50.10
-54.50
-59.22
-64.87
-72.04
-80.97
-91.25
-101.57
-109.89
-113.84
-111.53
-102.10
-86.03
-64.98
-41.30
-17.32
5.10
24.75
40.99
53.52
62.24
67.25
68.92
67.90
65.02
61.12
56.77
52.30
47.85
43.46
39.29
35.61
32.76
31.05
30.65
31.36
32.77
34.20
34.91
34.35
32.36
29.17
25.28
21.17
16.98
12.50
7.29
0.96
-6.48
-14.65
-22.92
-30.70
-37.69
-43.96
-49.92
-56.12
-63.18
-71.60
-81.56
-92.72
-104.01
-113.63
-119.40
-119.27
-112.02
-97.62
-77.33
-53.31
-28.01
-3.54
18.57
37.44
52.63
63.95
71.36
75.00
75.29
72.88
68.62
63.34
57.77
52.45
47.78
44.03
41.37
39.85
39.37
39.69
40.47
41.26
41.62
41.18
39.68
37.05
33.43
29.11
24.47
19.81
15.21
10.45
5.14
-1.10
-8.43
-16.65
-25.19
-33.39
-40.79
-47.27
-53.16
-59.10
-65.88
-74.11
-83.90
-94.71
-105.18
-113.28
-116.83
-114.01
-104.04
-87.45
-65.96
-41.94
-17.78
4.59
23.99
39.83
51.99
60.59
65.89
68.22
68.05
65.89
62.34
57.97
53.28
48.71
44.57
41.09
38.40
36.60
35.69
35.64
36.29
37.33
38.30
38.70
38.03
36.03
32.71
28.39
23.58
18.79
14.32
10.08
5.71
0.69
-5.37
-12.52
-20.42
-28.52
-36.21
-43.17
-49.42
-55.41
-61.79
-69.23
-78.14
-88.41
-99.24
-109.06
-115.82
-117.38
-112.21
-99.91
-81.34
-58.47
-33.76
-9.54
12.45
31.15
46.09
57.08
64.16
67.51
67.56
65.04
60.82
55.86
50.95
46.64
43.24
40.82
39.37
38.85
39.21
40.31
41.95
43.72
45.08
45.48
44.50
42.01
38.25
33.67
28.76
23.78
18.70
13.23
6.99
-0.20
-8.15
-16.33
-24.09
-30.95
-36.84
-42.17
-47.68
-54.25
-62.58
-72.81
-84.32
-95.62
-104.50
-108.55
-105.85
-95.62
-78.52
-56.44
-31.96
-7.61
14.70
33.80
49.26
60.96
68.95
73.35
74.40
72.55
68.51
63.17
57.38
51.85
47.03
43.16
40.28
38.39
37.46
37.41
38.01
38.83
39.27
38.75
36.87
33.59
29.20
24.28
19.35
14.67
10.11
5.25
-0.45
-7.30
-15.31
-24.11
-33.14
-41.90
-50.04
-57.55
-64.74
-72.21
-80.64
-90.42
-101.28
-112.00
-120.50
-124.23
-121.07
-110.06
-91.81
-68.33
-42.37
-16.60
7.00
27.33
44.01
57.02
66.47
72.46
75.14
74.88
72.30
68.19
63.47
58.93
55.16
52.44
50.76
49.93
49.69
49.85
50.28
50.90
51.52
51.81
51.36
49.69
46.53
41.85
36.05
29.74
23.65
18.28
13.70
9.50
4.96
-0.68
-7.79
-16.22
-25.31
-34.14
-41.92
-48.38
-53.73
-58.66
-64.05
-70.71
-79.20
-89.60
-101.26
-112.67
-121.63
-125.65
-122.73
-112.01
-94.14
-71.09
-45.49
-19.96
3.55
23.91
40.67
53.76
63.27
69.43
72.58
73.20
71.94
69.41
66.19
62.76
59.52
56.74
54.66
53.44
53.11
53.60
54.66
55.93
57.05
57.70
57.65
56.81
55.09
52.50
49.01
44.65
39.45
33.60
27.35
21.02
14.85
8.94
3.16
-2.81
-9.29
-16.44
-24.04
-31.62
-38.63
-44.74
-50.03
-54.92
-59.99
-65.75
-72.56
-80.61
-89.96
-100.23
-110.35
-118.49
-122.28
-119.52
-109.02
-91.13
-67.73
-41.63
-15.66
7.97
28.00
43.98
55.86
63.85
68.16
69.21
67.59
64.07
59.56
54.81
50.48
46.92
44.28
42.59
41.85
41.99
42.95
44.58
46.56
48.39
49.47
49.32
47.71
44.78
40.94
36.66
32.31
27.90
23.20
17.74
11.14
3.21
-5.79
-15.31
-24.61
-32.99
-40.07
-45.97
-51.23
-56.75
-63.51
-72.19
-82.76
-94.22
-104.53
-111.10
-111.45
-104.12
-89.20
-68.35
-44.25
-19.76
2.88
22.44
38.51
51.13
60.37
66.23
68.74
68.20
65.32
61.12
56.72
52.92
50.11
48.21
46.85
45.71
44.68
43.87
43.51
43.75
44.47
45.28
45.65
45.01
43.05
39.70
35.16
29.83
24.24
18.96
14.47
10.92
8.00
4.97
0.89
-4.92
-12.46
-21.09
-29.79
-37.65
-44.34
-50.18
-55.91
-62.30
-69.79
-78.44
-87.84
-97.12
-104.85
-109.15
-108.07
-100.16
-85.19
-64.45
-40.39
-16.01
6.04
24.09
37.53
46.59
51.94
54.32
54.48
53.10
50.83
48.30
45.93
44.04
42.72
41.93
41.53
41.33
41.27
41.34
41.65
42.26
43.16
44.20
45.14
45.68
45.56
44.55
42.48
39.32
35.14
30.21
24.92
19.68
14.81
10.31
5.94
1.27
-4.08
-10.27
-17.16
-24.40
-31.58
-38.40
-44.71
-50.58
-56.24
-62.14
-68.91
-77.27
-87.66
-99.85
-112.58
-123.53
-129.83
-128.92
-119.48
-101.95
-78.39
-51.82
-25.27
-1.01
19.68
36.42
49.30
58.55
64.43
67.24
67.39
65.46
62.14
58.13
54.04
50.28
47.08
44.52
42.59
41.34
40.83
41.14
42.23
43.92
45.74
47.11
47.37
46.07
43.08
38.72
33.66
28.65
24.20
20.35
16.61
12.21
6.46
-0.85
-9.29
-18.05
-26.22
-33.27
-39.18
-44.45
-49.79
-55.94
-63.43
-72.46
-82.71
-93.17
-102.16
-107.56
-107.39
-100.44
-86.82
-67.93
-46.05
-23.57
-2.29
16.86
33.62
48.04
60.00
69.11
74.85
76.94
75.61
71.68
66.28
60.52
55.22
50.76
47.21
44.53
42.82
42.21
42.81
44.39
46.33
47.69
47.57
45.40
41.21
35.66
29.73
24.29
19.71
15.70
11.57
6.55
0.13
-7.63
-16.27
-25.12
-33.65
-41.53
-48.80
-55.69
-62.61
-70.09
-78.72
-88.95
-100.69
-113.04
-124.10
-131.27
-131.98
-124.57
-108.86
-86.33
-59.63
-31.74
-5.20
18.31
37.97
53.61
65.27
73.09
77.35
78.48
77.17
74.27
70.55
66.61
62.84
59.38
56.42
54.15
52.86
52.80
53.98
56.09
58.50
60.46
61.38
60.97
59.33
56.72
53.41
49.49
44.89
39.58
33.63
27.21
20.60
14.02
7.56
1.25
-4.92
-11.00
-17.02
-23.15
-29.53
-36.27
-43.28
-50.30
-57.01
-63.24
-69.24
-75.66
-83.40
-93.19
-105.00
-117.81
-129.48
-137.24
-138.48
-131.51
-116.20
-93.97
-67.35
-39.22
-12.12
12.17
32.67
48.93
60.86
68.51
72.20
72.58
70.60
67.34
63.74
60.44
57.68
55.48
53.76
52.55
51.88
51.82
52.27
53.02
53.79
54.38
54.63
54.45
53.70
52.22
49.86
46.57
42.47
37.76
32.67
27.36
21.91
16.34
10.65
4.80
-1.33
-7.91
-15.10
-22.90
-31.08
-39.23
-46.89
-53.77
-59.90
-65.66
-71.64
-78.59
-87.09
-97.23
-108.22
-118.33
-125.08
-125.92
-119.11
-104.38
-83.12
-57.86
-31.49
-6.45
15.73
34.36
49.19
60.19
67.29
70.62
70.60
68.02
63.90
59.15
54.45
50.13
46.34
43.19
40.89
39.74
39.92
41.35
43.56
45.80
47.20
47.15
45.34
41.93
37.31
31.99
26.41
20.83
15.28
9.67
3.82
-2.38
-9.00
-15.93
-23.00
-29.98
-36.66
-43.01
-49.25
-55.89
-63.64
-73.04
-84.06
-95.79
-106.39
-113.50
-114.88
-109.13
-96.11
-76.98
-53.85
-29.09
-4.92
16.97
35.53
50.26
61.06
68.12
71.80
72.60
71.12
68.07
64.19
60.15
56.39
53.15
50.43
48.13
46.17
44.59
43.44
42.76
42.49
42.44
42.34
41.86
40.74
38.74
35.72
31.72
26.97
21.78
16.47
11.17
5.76
-0.14
-6.90
-14.72
-23.47
-32.69
-41.79
-50.17
-57.51
-63.88
-69.70
-75.64
-82.45
-90.83
-101.02
-112.61
-124.29
-133.87
-138.77
-136.65
-126.26
-107.88
-83.41
-55.66
-27.65
-1.78
20.48
38.57
52.48
62.40
68.67
71.66
71.95
70.28
67.47
64.26
61.18
58.56
56.53
55.12
54.25
53.87
53.86
54.13
54.62
55.19
55.71
55.93
55.50
54.07
51.39
47.46
42.51
36.99
31.32
25.73
20.19
14.45
8.15
1.08
-6.77
-15.15
-23.66
-31.87
-39.42
-46.23
-52.45
-58.44
-64.64
-71.50
-79.43
-88.63
-98.93
-109.56
-119.01
-125.20
-125.87
-119.38
-105.25
-84.52
-59.38
-32.61
-6.76
16.29
35.50
50.42
61.01
67.49
70.36
70.36
68.41
65.39
61.99
58.59
55.38
52.42
49.90
48.02
47.05
47.11
48.12
49.70
51.32
52.33
52.17
50.54
47.44
43.20
38.34
33.37
28.59
23.95
19.14
13.73
7.42
0.18
-7.63
-15.50
-22.93
-29.68
-35.88
-41.96
-48.56
-56.30
-65.57
-76.22
-87.34
-97.32
-104.06
-105.62
-100.76
-89.37
-72.58
-52.33
-30.84
-10.10
8.52
24.34
37.24
47.43
55.22
60.88
64.53
66.17
65.79
63.52
59.70
54.82
49.44
44.10
39.22
35.14
32.15
30.45
30.05
30.70
31.81
32.70
32.66
31.26
28.35
24.16
19.12
13.70
8.28
3.06
-2.01
-7.19
-12.85
-19.24
-26.41
-34.12
-41.92
-49.32
-56.04
-62.16
-68.23
-75.13
-83.74
-94.49
-106.88
-119.27
-129.11
-133.57
-130.45
-118.92
-99.82
-75.41
-48.53
-21.84
2.75
24.22
42.16
56.41
66.84
73.36
76.15
75.74
73.07
69.27
65.34
61.97
59.40
57.57
56.32
55.55
55.34
55.80
56.94
58.54
60.11
61.04
60.73
58.85
55.37
50.57
44.90
38.87
32.86
27.08
21.50
15.85
9.73
2.71
-5.43
-14.57
-24.22
-33.64
-42.11
-49.24
-55.14
-60.40
-66.02
-73.10
-82.46
-94.21
-107.46
-120.20
-129.69
-133.17
-128.74
-115.87
-95.64
-70.35
-42.82
-15.67
9.09
30.22
47.10
59.62
68.01
72.74
74.45
73.87
71.70
68.56
64.93
61.13
57.39
53.86
50.71
48.18
46.62
46.31
47.35
49.49
52.08
54.18
54.88
53.54
50.04
44.82
38.61
32.19
26.09
20.35
14.65
8.53
1.58
-6.18
-14.44
-22.67
-30.39
-37.35
-43.68
-49.78
-56.28
-63.85
-72.98
-83.72
-95.43
-106.59
-115.01
-118.30
-114.52
-102.93
-84.23
-60.41
-34.18
-8.21
15.42
35.49
51.47
63.28
71.02
74.93
75.43
73.16
68.99
63.89
58.69
53.98
50.07
47.05
44.84
43.41
42.66
42.60
43.12
44.09
45.15
45.79
45.44
43.64
40.23
35.45
29.82
23.80
17.62
11.07
3.80
-4.50
-13.76
-23.51
-33.11
-41.97
-49.90
-57.10
-64.18
-71.89
-80.94
-91.72
-103.93
-116.34
-126.78
-132.56
-131.27
-121.58
-103.85
-79.96
-52.84
-25.52
-0.36
21.24
38.84
52.53
62.61
69.31
72.92
73.75
72.38
69.56
66.05
62.48
59.17
56.15
53.31
50.69
48.50
47.18
47.11
48.30
50.29
52.24
53.17
52.31
49.41
44.75
38.94
32.74
26.68
20.93
15.29
9.25
2.29
-5.85
-15.06
-24.86
-34.52
-43.43
-51.29
-58.21
-64.69
-71.48
-79.30
-88.68
-99.55
-111.05
-121.44
-128.34
-129.35
-122.78
-108.35
-87.24
-61.80
-34.83
-8.71
14.89
35.16
51.75
64.54
73.43
78.46
79.98
78.71
75.63
71.71
67.67
63.88
60.44
57.40
54.83
52.95
51.96
52.02
52.99
54.53
56.01
56.75
56.11
53.74
49.59
43.99
37.52
30.78
24.24
18.03
11.98
5.76
-0.96
-8.27
-15.97
-23.69
-31.05
-37.76
-43.79
-49.34
-54.85
-60.91
-68.12
-76.97
-87.43
-98.77
-109.32
-116.81
-118.79
-113.49
-100.43
-80.66
-56.38
-30.40
-5.30
17.08
35.76
50.48
61.29
68.31
71.68
71.66
68.82
64.08
58.58
53.36
49.09
46.00
43.91
42.52
41.62
41.18
41.21
41.57
41.90
41.65
40.31
37.65
33.85
29.33
24.50
19.57
14.43
8.72
2.18
-5.24
-13.23
-21.30
-28.97
-36.00
-42.47
-48.74
-55.36
-62.96
-72.00
-82.61
-94.18
-105.30
-113.74
-117.03
-113.20
-101.46
-82.54
-58.54
-32.24
-6.36
17.02
36.70
52.19
63.51
70.91
74.79
75.67
74.18
71.03
66.88
62.32
57.78
53.54
49.73
46.48
43.95
42.38
41.98
42.72
44.23
45.74
46.35
45.33
42.43
37.96
32.58
27.00
21.60
16.42
11.13
5.34
-1.18
-8.44
-16.18
-24.08
-31.82
-39.15
-46.00
-52.43
-58.81
-65.79
-74.15
-84.55
-96.96
-110.25
-122.20
-129.95
-130.83
-123.32
-107.61
-85.48
-59.68
-33.04
-7.78
14.82
34.07
49.69
61.47
69.25
73.19
73.81
72.03
68.93
65.46
62.24
59.52
57.29
55.33
53.51
51.77
50.21
49.05
48.41
48.25
48.20
47.64
45.97
42.89
38.54
33.44
28.24
23.33
18.67
13.86
8.35
1.77
-5.82
-14.06
-22.38
-30.21
-37.26
-43.57
-49.47
-55.51
-62.36
-70.61
-80.56
-91.93
-103.60
-113.63
-119.55
-119.12
-111.01
-95.37
-73.77
-48.71
-22.86
1.59
23.23
41.29
55.39
65.32
71.06
72.85
71.38
67.69
62.92
58.09
53.84
50.41
47.77
45.73
44.23
43.26
42.87
43.06
43.62
44.14
44.13
43.14
40.87
37.33
32.67
27.24
21.27
14.90
8.08
0.73
-7.16
-15.39
-23.63
-31.48
-38.68
-45.22
-51.43
-57.90
-65.40
-74.48
-85.13
-96.37
-106.21
-112.06
-111.50
-103.13
-87.19
-65.43
-40.53
-15.17
8.67
29.86
47.91
62.50
73.30
79.99
82.52
81.34
77.37
71.75
65.51
59.38
53.73
48.78
44.62
41.41
39.33
38.50
38.89
40.22
41.96
43.42
43.90
42.83
39.99
35.56
30.00
23.93
17.78
11.64
5.32
-1.57
-9.28
-17.76
-26.63
-35.37
-43.52
-50.90
-57.61
-64.00
-70.51
-77.69
-86.10
-96.17
-107.89
-120.38
-131.79
-139.43
-140.56
-133.32
-117.42
-94.32
-66.69
-37.52
-9.35
16.15
38.03
55.80
69.13
77.82
82.04
82.42
79.99
76.00
71.57
67.39
63.72
60.50
57.60
55.01
52.90
51.47
50.89
51.13
51.92
52.84
53.40
53.12
51.63
48.73
44.39
38.87
32.63
26.22
20.03
14.20
8.53
2.60
-4.00
-11.44
-19.57
-28.00
-36.22
-43.79
-50.56
-56.66
-62.51
-68.78
-76.18
-85.22
-95.95
-107.59
-118.42
-126.03
-127.91
-122.26
-108.58
-87.96
-62.74
-35.72
-9.44
14.30
34.54
50.91
63.29
71.70
76.27
77.39
75.75
72.27
67.85
63.27
59.00
55.26
52.07
49.37
47.11
45.33
44.22
43.96
44.59
45.80
46.89
47.02
45.45
41.98
36.96
31.23
25.68
20.86
16.75
12.83
8.37
2.77
-4.10
-11.90
-20.00
-27.74
-34.72
-40.84
-46.36
-51.73
-57.55
-64.42
-72.84
-82.87
-93.82
-104.14
-111.50
-113.44
-108.22
-95.43
-76.25
-52.98
-28.27
-4.25
17.72
37.04
53.29
65.95
74.30
77.71
76.14
70.36
61.94
52.75
44.46
38.07
33.90
31.72
31.16
31.92
33.76
36.46
39.50
42.19
43.76
43.65
41.67
38.04
33.26
27.84
22.18
16.46
10.66
4.60
-1.93
-9.08
-16.84
-24.97
-33.13
-40.91
-48.12
-54.80
-61.29
-68.16
-75.99
-85.25
-95.93
-107.39
-118.09
-125.85
-128.25
-123.43
-110.74
-91.01
-66.39
-39.59
-13.11
11.26
32.54
50.34
64.48
74.78
81.13
83.60
82.68
79.19
74.18
68.66
63.42
58.92
55.29
52.52
50.49
49.11
48.34
48.18
48.54
49.15
49.55
49.14
47.38
43.98
39.06
33.16
26.96
21.02
15.59
10.48
5.23
-0.60
-7.28
-14.74
-22.64
-30.53
-37.98
-44.78
-50.88
-56.52
-62.09
-68.14
-75.33
-84.20
-94.83
-106.50
-117.44
-125.08
-126.69
-120.31
-105.50
-83.56
-57.14
-29.39
-3.06
20.01
39.01
53.81
64.65
71.83
75.68
76.63
75.21
72.12
68.07
63.78
59.75
56.32
53.59
51.54
50.17
49.50
49.59
50.42
51.80
53.27
54.31
54.42
53.33
51.00
47.58
43.26
38.16
32.41
26.14
19.60
13.05
6.69
0.45
-5.99
-12.94
-20.59
-28.71
-36.79
-44.17
-50.42
-55.55
-59.96
-64.37
-69.51
-76.10
-84.55
-94.90
-106.45
-117.64
-126.10
-129.19
-124.80
-112.16
-92.22
-67.37
-40.63
-14.72
8.52
28.26
44.27
56.49
64.82
69.20
69.89
67.64
63.61
59.03
54.87
51.60
49.18
47.35
45.86
44.69
44.01
44.01
44.71
45.91
47.21
48.14
48.26
47.28
45.14
41.86
37.66
32.77
27.47
21.92
16.17
10.14
3.70
-3.21
-10.53
-17.99
-25.23
-31.85
-37.62
-42.62
-47.25
-52.23
-58.36
-66.32
-76.33
-87.83
-99.40
-108.88
-113.84
-112.31
-103.33
-87.29
-65.82
-41.32
-16.29
7.14
27.58
44.27
56.88
65.39
69.95
70.94
69.08
65.33
60.70
56.10
52.07
48.78
46.07
43.69
41.53
39.67
38.35
37.76
37.87
38.31
38.56
38.03
36.33
33.31
29.09
24.06
18.70
13.47
8.58
3.87
-1.08
-6.88
-13.94
-22.13
-30.89
-39.29
-46.54
-52.32
-57.01
-61.46
-66.79
-73.93
-83.38
-94.94
-107.56
-119.34
-127.80
-130.40
-125.29
-111.94
-91.39
-65.90
-38.30
-11.25
13.34
34.38
51.35
64.15
72.79
77.55
78.92
77.58
74.41
70.26
65.85
61.69
58.02
54.90
52.28
50.08
48.33
47.13
46.66
46.92
47.69
48.45
48.52
47.31
44.48
40.07
34.51
28.42
22.42
16.87
11.80
6.93
1.80
-4.01
-10.75
-18.27
-26.21
-34.07
-41.45
-48.18
-54.38
-60.50
-67.16
-75.03
-84.65
-96.04
-108.42
-120.04
-128.41
-130.89
-125.57
-111.90
-91.01
-65.26
-37.62
-10.79
13.33
33.78
50.26
62.83
71.61
76.77
78.55
77.49
74.38
70.19
65.80
61.84
58.58
56.16
54.62
54.19
55.04
57.14
60.05
62.92
64.80
64.94
63.09
59.51
54.68
49.08
42.96
36.46
29.73
23.04
16.67
10.70
4.89
-1.32
-8.55
-17.09
-26.74
-36.80
-46.39
-54.79
-61.80
-67.82
-73.67
-80.34
-88.66
-98.89
-110.43
-121.75
-130.52
-134.24
-130.95
-119.92
-101.91
-78.94
-53.61
-28.35
-4.93
15.68
33.04
46.93
57.25
63.92
67.16
67.47
65.59
62.36
58.44
54.32
50.33
46.74
43.87
42.07
41.58
42.41
44.23
46.38
48.09
48.64
47.56
44.78
40.65
35.74
30.61
25.66
20.92
16.12
10.82
4.63
-2.57
-10.58
-18.93
-27.06
-34.52
-41.18
-47.31
-53.61
-61.08
-70.66
-82.78
-96.85
-111.16
-123.02
-129.52
-128.37
-118.64
-101.04
-77.60
-51.13
-24.43
0.26
21.51
38.67
51.68
60.81
66.51
69.26
69.66
68.21
65.50
62.06
58.34
54.75
51.49
48.68
46.38
44.70
43.79
43.79
44.66
46.01
47.15
47.29
45.80
42.53
37.84
32.41
26.88
21.57
16.39
10.89
4.61
-2.67
-10.83
-19.44
-27.91
-35.72
-42.61
-48.69
-54.41
-60.54
-67.92
-77.19
-88.37
-100.53
-111.69
-119.26
-120.63
-114.13
-99.60
-78.47
-53.27
-26.89
-1.75
20.62
39.49
54.68
66.14
73.84
77.79
78.23
75.83
71.63
66.83
62.44
59.02
56.53
54.59
52.72
50.79
49.10
48.18
48.43
49.79
51.62
52.96
52.93
51.06
47.46
42.67
37.37
32.09
26.99
21.88
16.39
10.15
2.99
-4.98
-13.40
-21.77
-29.65
-36.77
-43.16
-49.11
-55.13
-61.80
-69.73
-79.36
-90.68
-102.92
-114.42
-122.83
-125.59
-120.77
-107.76
-87.59
-62.67
-36.04
-10.52
11.99
30.61
45.26
56.23
63.75
68.02
69.30
67.99
64.76
60.46
55.88
51.64
48.11
45.45
43.69
42.87
43.01
44.01
45.63
47.41
48.72
48.95
47.74
45.03
41.03
36.11
30.49
24.16
17.04
9.06
0.38
-8.59
-17.26
-25.15
-32.00
-37.89
-43.20
-48.53
-54.64
-62.26
-71.78
-82.86
-94.13
-103.32
-107.82
-105.50
-95.51
-78.59
-56.77
-32.66
-8.70
13.34
32.42
48.05
59.97
68.10
72.50
73.56
71.91
68.35
63.63
58.39
53.11
48.13
43.77
40.33
38.08
37.11
37.25
38.10
39.02
39.32
38.52
36.42
33.14
29.06
24.57
19.92
15.12
9.94
4.07
-2.71
-10.40
-18.73
-27.25
-35.51
-43.23
-50.40
-57.35
-64.69
-73.15
-83.24
-94.90
-107.18
-118.26
-125.68
-126.98
-120.59
-106.26
-85.28
-60.03
-33.20
-7.19
16.30
36.30
52.31
64.10
71.67
75.35
75.79
74.00
70.94
67.42
63.87
60.38
56.93
53.62
50.72
48.60
47.54
47.53
48.26
49.14
49.53
48.92
47.08
44.09
40.21
35.80
31.12
26.28
21.13
15.33
8.50
0.41
-8.94
-19.09
-29.36
-38.97
-47.39
-54.58
-61.03
-67.66
-75.47
-85.09
-96.38
-108.09
-118.06
-123.68
-122.65
-113.76
-97.30
-74.96
-49.34
-23.14
1.43
22.98
40.80
54.66
64.58
70.68
73.31
73.02
70.64
67.00
62.91
58.93
55.36
52.33
49.88
48.16
47.27
47.31
48.20
49.64
51.07
51.87
51.45
49.44
45.83
40.98
35.41
29.66
24.08
18.68
13.16
7.06
0.04
-7.92
-16.49
-25.07
-33.04
-40.03
-46.06
-51.60
-57.39
-64.31
-72.97
-83.34
-94.56
-104.82
-111.74
-112.98
-107.01
-93.57
-73.88
-50.21
-25.26
-1.42
19.65
37.10
50.75
60.70
67.15
70.29
70.40
67.96
63.61
58.22
52.64
47.61
43.58
40.79
39.28
38.95
39.60
40.86
42.25
43.15
43.03
41.50
38.51
34.25
29.06
23.33
17.29
11.03
4.49
-2.43
-9.80
-17.51
-25.35
-33.04
-40.39
-47.39
-54.35
-61.85
-70.60
-81.09
-93.28
-106.18
-117.79
-125.48
-126.69
-119.81
-104.75
-83.01
-57.20
-30.22
-4.47
18.41
37.63
52.93
64.30
71.83
75.78
76.61
75.01
71.81
67.79
63.66
59.84
56.53
53.78
51.64
50.18
49.54
49.73
50.52
51.36
51.53
50.41
47.72
43.66
38.75
33.54
28.32
23.04
17.37
10.92
3.49
-4.86
-13.80
-22.97
-32.03
-40.74
-49.01
-56.89
-64.62
-72.67
-81.65
-91.98
-103.41
-114.71
-123.62
-127.47
-123.96
-112.12
-92.65
-67.83
-40.75
-14.34
9.25
28.95
44.52
56.23
64.39
69.34
71.39
70.96
68.66
65.18
61.23
57.34
53.87
50.90
48.52
46.82
45.96
46.16
47.40
49.43
51.60
53.05
53.02
51.04
47.14
41.77
35.65
29.42
23.51
17.95
12.46
6.56
-0.14
-7.75
-16.10
-24.66
-32.88
-40.36
-46.93
-52.80
-58.52
-64.82
-72.49
-81.97
-93.00
-104.34
-113.75
-118.56
-116.52
-106.55
-89.22
-66.60
-41.45
-16.52
6.20
25.65
41.45
53.57
62.15
67.35
69.37
68.71
66.00
62.03
57.59
53.35
49.75
46.98
45.08
43.96
43.53
43.73
44.40
45.23
45.71
45.25
43.33
39.76
34.78
29.00
23.06
17.42
12.12
6.79
0.90
-5.85
-13.41
-21.32
-28.93
-35.79
-41.85
-47.53
-53.68
-61.19
-70.64
-81.93
-94.08
-105.20
-112.93
-114.94
-109.75
-97.08
-78.07
-54.80
-29.77
-5.23
17.14
36.36
51.94
63.74
71.77
76.19
77.36
75.84
72.45
68.10
63.68
59.88
57.09
55.27
54.11
53.22
52.33
51.45
50.76
50.41
50.27
49.89
48.60
45.82
41.34
35.47
28.96
22.66
17.12
12.42
8.16
3.62
-1.79
-8.37
-15.98
-24.18
-32.47
-40.48
-48.07
-55.38
-62.70
-70.43
-79.06
-88.98
-100.22
-112.07
-122.93
-130.45
-132.17
-126.31
-112.44
-91.75
-66.56
-39.63
-13.36
10.59
31.28
48.23
61.24
70.27
75.56
77.68
77.46
75.75
73.25
70.33
67.13
63.77
60.41
57.46
55.35
54.39
54.65
55.88
57.64
59.41
60.77
61.33
60.75
58.74
55.08
49.80
43.21
35.86
28.27
20.73
13.12
5.02
-4.04
-14.32
-25.62
-37.31
-48.52
-58.38
-66.27
-71.94
-75.47
-77.26
-77.97
-78.48
-79.83
-83.10
-89.03
-97.66
-107.96
-117.80
-124.37
-125.03
-118.12
-103.57
-82.84
-58.42
-32.99
-8.76
12.78
30.91
45.35
56.06
63.13
66.83
67.67
66.43
63.93
60.95
58.04
55.50
53.36
51.55
50.00
48.75
48.01
47.96
48.69
50.03
51.46
52.33
52.06
50.29
47.09
42.81
37.95
33.01
28.21
23.52
18.68
13.30
7.08
-0.10
-8.01
-16.17
-23.92
-30.78
-36.57
-41.55
-46.35
-51.76
-58.47
-66.86
-76.90
-87.85
-98.36
-106.46
-109.92
-106.97
-96.84
-80.16
-58.82
-35.34
-12.13
9.09
27.45
42.70
54.76
63.51
68.79
70.60
69.31
65.71
60.80
55.53
50.64
46.46
43.05
40.35
38.35
37.16
36.89
37.52
38.80
40.18
40.92
40.41
38.24
34.46
29.52
24.08
18.71
13.74
9.04
4.19
-1.33
-7.90
-15.55
-23.95
-32.56
-40.76
-48.16
-54.64
-60.57
-66.66
-73.85
-82.94
-94.14
-106.67
-118.67
-127.55
-130.68
-126.25
-113.86
-94.64
-70.83
-45.09
-19.79
3.37
23.48
40.21
53.47
63.21
69.43
72.21
71.98
69.47
65.63
61.39
57.40
53.99
51.15
48.79
46.79
45.25
44.33
44.19
44.84
46.02
47.24
47.87
47.30
45.21
41.66
37.09
32.06
27.00
21.93
16.55
10.36
3.05
-5.35
-14.41
-23.49
-32.04
-39.78
-46.75
-53.25
-59.71
-66.56
-74.30
-83.27
-93.54
-104.55
-114.95
-122.66
-125.41
-121.39
-109.98
-91.96
-69.28
-44.51
-20.05
2.30
21.50
37.17
49.32
58.06
63.62
66.28
66.49
64.81
61.88
58.34
54.71
51.37
48.56
46.46
45.21
44.91
45.52
46.88
48.57
50.07
50.85
50.47
48.67
45.47
41.07
35.87
30.27
24.57
18.86
12.97
6.61
-0.44
-8.18
-16.29
-24.17
-31.27
-37.23
-42.07
-46.26
-50.57
-55.88
-62.99
-72.28
-83.37
-95.08
-105.40
-111.90
-112.36
-105.45
-91.23
-71.14
-47.63
-23.40
-0.74
18.96
35.16
47.93
57.47
63.86
67.05
67.10
64.41
59.79
54.33
49.04
44.59
41.24
38.92
37.44
36.69
36.65
37.24
38.22
39.18
39.59
39.03
37.30
34.41
30.52
25.80
20.35
14.24
7.61
0.57
-6.65
-13.88
-21.07
-28.28
-35.73
-43.75
-52.76
-63.06
-74.69
-87.12
-99.02
-108.45
-113.22
-111.49
-102.45
-86.57
-65.54
-41.69
-17.36
5.55
25.79
42.69
55.94
65.42
71.22
73.56
72.88
69.84
65.12
59.46
53.52
47.91
43.15
39.64
37.53
36.64
36.50
36.52
36.16
35.12
33.36
31.04
28.32
25.26
21.71
17.44
12.21
5.96
-1.21
-9.10
-17.39
-25.80
-34.09
-42.13
-50.02
-58.07
-66.83
-76.83
-88.26
-100.58
-112.32
-121.32
-125.15
-121.95
-110.95
-92.84
-69.50
-43.54
-17.56
6.35
26.89
43.46
56.01
64.78
70.14
72.58
72.60
70.74
67.55
63.57
59.30
55.19
51.67
49.01
47.37
46.75
46.94
47.61
48.29
48.46
47.62
45.44
41.85
37.11
31.72
26.14
20.61
15.00
8.92
2.00
-5.82
-14.29
-22.88
-31.11
-38.76
-45.99
-53.27
-61.21
-70.37
-81.03
-92.85
-104.69
-114.63
-120.28
-119.50
-111.09
-95.33
-73.80
-49.02
-23.55
0.53
21.89
39.81
53.89
63.93
69.81
71.78
70.49
66.91
62.21
57.38
53.11
49.59
46.71
44.16
41.72
39.38
37.34
35.90
35.23
35.28
35.70
35.98
35.47
33.62
30.04
24.63
17.68
9.77
1.70
-5.85
-12.44
-18.13
-23.34
-28.75
-35.06
-42.84
-52.41
-63.68
-75.98
-87.87
-97.25
-101.85
-99.78
-90.30
-74.08
-52.99
-29.58
-6.36
14.74
32.58
46.69
57.03
63.83
67.41
68.15
66.51
63.03
58.38
53.29
48.47
44.46
41.55
39.67
38.51
37.65
36.75
35.60
34.17
32.53
30.79
28.94
26.81
24.06
20.23
14.99
8.29
0.51
-7.70
-15.66
-22.98
-29.74
-36.48
-43.96
-52.92
-63.80
-76.51
-90.28
-103.62
-114.36
-120.03
-118.52
-108.77
-91.29
-68.13
-42.34
-17.06
5.35
23.82
38.38
49.77
58.73
65.63
70.44
72.91
72.94
70.83
67.24
62.98
58.74
54.96
51.84
49.43
47.73
46.73
46.31
46.17
45.84
44.83
42.80
39.63
35.45
30.48
24.94
18.94
12.51
5.57
-1.89
-9.83
-18.07
-26.30
-34.28
-41.81
-48.97
-56.17
-64.15
-73.63
-84.94
-97.57
-109.87
-119.33
-123.24
-119.56
-107.63
-88.46
-64.38
-38.26
-12.74
10.39
30.23
46.41
58.87
67.56
72.63
74.47
73.82
71.62
68.72
65.61
62.47
59.21
55.85
52.62
50.04
48.60
48.53
49.61
51.17
52.29
52.17
50.37
46.85
42.01
36.39
30.46
24.52
18.58
12.49
6.03
-0.94
-8.41
-16.13
-23.81
-31.14
-37.93
-44.22
-50.36
-56.97
-64.78
-74.38
-85.76
-97.96
-109.03
-116.35
-117.45
-110.79
-96.36
-75.68
-51.30
-25.96
-1.92
19.37
37.17
51.14
61.08
66.93
68.88
67.52
63.81
58.93
53.94
49.64
46.41
44.33
43.28
43.05
43.45
44.25
45.20
46.00
46.35
45.99
44.76
42.59
39.50
35.55
30.79
25.27
19.00
12.00
4.36
-3.76
-12.12
-20.44
-28.47
-36.12
-43.51
-51.13
-59.68
-69.73
-81.35
-93.63
-104.64
-111.89
-112.99
-106.52
-92.50
-72.38
-48.52
-23.55
0.35
21.70
39.76
54.29
65.28
72.83
77.06
78.21
76.78
73.39
68.83
63.81
58.92
54.52
50.79
47.80
45.64
44.39
44.06
44.54
45.44
46.19
46.14
44.74
41.71
37.15
31.46
25.17
18.81
12.55
6.34
-0.15
-7.24
-15.06
-23.50
-32.15
-40.51
-48.09
-54.68
-60.43
-65.85
-71.71
-78.85
-87.88
-98.79
-110.68
-121.72
-129.45
-131.42
-125.92
-112.64
-92.67
-68.24
-41.94
-16.08
7.77
28.65
46.11
59.84
69.63
75.48
77.71
77.03
74.37
70.72
66.81
63.11
59.78
56.81
54.24
52.12
50.60
49.76
49.61
49.95
50.43
50.59
49.97
48.22
45.16
40.82
35.49
29.61
23.64
17.94
12.61
7.44
2.01
-4.08
-11.01
-18.59
-26.37
-33.85
-40.70
-46.94
-52.82
-58.75
-65.21
-72.71
-81.69
-92.24
-103.75
-114.67
-122.59
-124.92
-119.73
-106.52
-86.49
-62.14
-36.39
-11.75
10.19
28.71
43.65
55.08
63.08
67.80
69.52
68.75
66.16
62.44
58.17
53.76
49.56
45.88
43.02
41.24
40.65
41.12
42.26
43.52
44.28
44.06
42.56
39.78
35.88
31.13
25.71
19.73
13.19
6.09
-1.47
-9.25
-16.92
-24.13
-30.73
-36.83
-42.81
-49.24
-56.70
-65.56
-75.74
-86.53
-96.52
-103.72
-106.06
-101.95
-90.84
-73.51
-51.91
-28.53
-5.75
14.71
32.00
45.93
56.64
64.26
68.81
70.30
68.93
65.20
59.85
53.76
47.73
42.34
37.94
34.66
32.49
31.26
30.72
30.54
30.37
29.96
29.15
27.82
25.85
22.98
18.91
13.38
6.41
-1.68
-10.32
-18.89
-27.01
-34.63
-42.03
-49.64
-57.91
-67.23
-77.78
-89.40
-101.35
-112.22
-119.99
-122.47
-117.90
-105.63
-86.43
-62.35
-36.17
-10.57
12.35
31.46
46.38
57.28
64.54
68.53
69.66
68.38
65.30
61.15
56.65
52.34
48.54
45.31
42.62
40.48
39.00
38.26
38.20
38.47
38.51
37.69
35.65
32.37
28.15
23.36
18.26
12.84
6.95
0.38
-6.87
-14.61
-22.50
-30.23
-37.57
-44.60
-51.63
-59.19
-67.96
-78.46
-90.72
-103.90
-116.16
-124.95
-127.67
-122.60
-109.41
-89.42
-65.05
-39.05
-13.74
9.40
29.59
46.47
59.74
69.11
74.43
75.97
74.49
71.06
66.78
62.46
58.48
54.89
51.62
48.75
46.51
45.30
45.31
46.41
48.05
49.41
49.70
48.40
45.45
41.24
36.36
31.33
26.39
21.40
15.97
9.68
2.28
-6.18
-15.26
-24.36
-32.88
-40.49
-47.32
-53.91
-61.04
-69.49
-79.76
-91.70
-104.35
-115.92
-123.99
-126.17
-120.77
-107.37
-87.04
-62.01
-35.02
-8.65
15.24
35.54
51.77
63.74
71.47
75.15
75.27
72.66
68.32
63.23
58.18
53.62
49.74
46.61
44.30
42.92
42.56
43.15
44.42
45.92
47.07
47.32
46.29
43.78
39.87
34.88
29.24
23.47
17.93
12.68
7.47
1.85
-4.59
-11.87
-19.62
-27.19
-33.96
-39.74
-44.88
-50.22
-56.77
-65.32
-76.05
-88.30
-100.56
-110.66
-116.28
-115.45
-107.16
-91.62
-70.23
-45.23
-19.09
5.98
28.33
46.91
61.18
70.98
76.43
77.99
76.38
72.51
67.35
61.78
56.42
51.60
47.47
44.04
41.40
39.69
39.09
39.63
41.07
42.82
44.03
43.88
41.84
37.89
32.49
26.42
20.40
14.81
9.53
4.08
-2.17
-9.64
-18.31
-27.74
-37.21
-46.02
-53.80
-60.56
-66.80
-73.29
-80.89
-90.23
-101.23
-112.86
-123.08
-129.25
-128.81
-120.25
-103.60
-80.50
-53.69
-26.09
-0.12
22.72
41.77
56.86
68.04
75.44
79.28
80.01
78.28
74.97
70.90
66.74
62.88
59.45
56.43
53.77
51.58
50.07
49.49
49.92
51.17
52.67
53.60
53.16
50.80
46.47
40.65
34.17
27.82
22.00
16.59
10.99
4.51
-3.28
-12.34
-22.17
-32.03
-41.26
-49.53
-56.87
-63.71
-70.69
-78.57
-87.91
-98.82
-110.62
-121.59
-129.32
-131.28
-125.72
-112.21
-91.89
-66.97
-40.11
-13.65
10.71
31.91
49.36
62.76
72.02
77.33
79.19
78.32
75.52
71.45
66.66
61.52
56.40
51.60
47.46
44.29
42.33
41.66
42.12
43.28
44.51
45.09
44.49
42.47
39.22
35.22
30.94
26.64
22.18
17.15
11.12
3.92
-4.23
-12.76
-21.02
-28.55
-35.28
-41.58
-48.06
-55.48
-64.41
-75.06
-87.01
-99.02
-109.13
-114.94
-114.28
-105.97
-90.24
-68.79
-44.26
-19.45
3.38
22.89
38.63
50.66
59.14
64.23
66.04
64.88
61.42
56.58
51.33
46.51
42.57
39.65
37.72
36.67
36.42
36.92
38.05
39.54
41.05
42.13
42.27
41.04
38.08
33.20
26.52
18.32
9.04
-0.87
-11.07
-21.32
-31.42
-41.25
-50.73
-59.91
-69.05
-78.56
-88.64
-98.97
-108.46
-115.33
-117.54
-113.48
-102.55
-85.41
-63.87
-40.28
-16.91
4.53
23.09
38.43
50.52
59.40
65.09
67.67
67.37
64.76
60.54
55.55
50.47
45.84
41.97
39.06
37.25
36.58
36.90
37.83
38.81
39.20
38.55
36.67
33.66
29.81
25.41
20.63
15.37
9.38
2.38
-5.73
-14.75
-24.21
-33.49
-42.15
-50.03
-57.38
-64.82
-73.11
-82.95
-94.57
-107.38
-119.79
-129.38
-133.40
-129.66
-117.28
-97.10
-71.42
-43.28
-15.55
9.64
31.16
48.69
62.32
72.23
78.59
81.62
81.68
79.43
75.76
71.61
67.77
64.64
62.21
60.20
58.36
56.71
55.53
55.18
55.77
56.91
57.76
57.39
55.12
50.87
45.14
38.77
32.48
26.62
21.03
15.26
8.80
1.40
-6.89
-15.68
-24.48
-32.86
-40.59
-47.70
-54.47
-61.34
-68.85
-77.61
-88.00
-99.94
-112.51
-123.86
-131.50
-132.92
-126.46
-111.87
-90.45
-64.62
-37.10
-10.35
13.95
34.83
51.90
65.03
74.39
80.29
83.27
83.93
82.87
80.60
77.53
74.02
70.46
67.15
64.43
62.44
61.24
60.76
60.83
61.23
61.66
61.75
61.15
59.63
57.13
53.82
49.92
45.59
40.83
35.52
29.59
23.13
16.45
9.88
3.64
-2.39
-8.61
-15.47
-23.20
-31.64
-40.26
-48.42
-55.62
-61.79
-67.29
-72.80
-79.19
-87.22
-97.24
-108.86
-120.79
-130.89
-136.54
-135.40
-126.10
-108.79
-85.14
-57.80
-29.68
-3.24
19.90
38.93
53.58
63.94
70.31
73.11
73.03
70.92
67.70
64.15
60.80
57.86
55.34
53.21
51.50
50.34
49.94
50.39
51.63
53.35
55.09
56.30
56.49
55.30
52.58
48.40
43.07
37.06
30.84
24.80
19.06
13.47
7.67
1.26
-5.95
-13.92
-22.24
-30.39
-37.90
-44.55
-50.48
-56.13
-62.16
-69.26
-77.98
-88.38
-99.77
-110.59
-118.59
-121.31
-116.89
-104.65
-85.40
-61.22
-34.79
-8.76
14.89
34.95
50.93
62.78
70.67
74.90
75.83
74.07
70.38
65.64
60.72
56.24
52.51
49.51
47.09
45.10
43.55
42.59
42.39
42.95
44.02
45.09
45.51
44.68
42.22
38.05
32.48
26.07
19.47
13.17
7.34
1.77
-3.95
-10.26
-17.35
-25.07
-33.01
-40.66
-47.66
-53.94
-59.72
-65.51
-72.00
-79.87
-89.60
-101.03
-113.12
-123.85
-130.53
-130.60
-122.43
-106.02
-82.98
-56.01
-28.05
-1.57
21.85
41.37
56.68
67.67
74.45
77.41
77.29
75.03
71.57
67.66
63.72
59.92
56.29
52.91
49.99
47.83
46.72
46.78
47.83
49.36
50.63
50.83
49.43
46.25
41.56
35.90
29.88
23.97
18.34
12.90
7.39
1.50
-4.96
-12.03
-19.56
-27.26
-34.80
-41.94
-48.53
-54.62
-60.40
-66.31
-72.98
-81.00
-90.69
-101.59
-112.32
-120.61
-123.92
-120.25
-108.79
-90.30
-66.80
-40.86
-14.98
8.92
29.59
46.28
58.63
66.53
70.30
70.67
68.67
65.38
61.64
57.90
54.22
50.48
46.62
42.77
39.40
37.05
36.18
36.84
38.57
40.53
41.75
41.52
39.62
36.31
32.14
27.63
23.02
18.28
13.11
7.26
0.66
-6.48
-13.79
-20.89
-27.50
-33.63
-39.53
-45.63
-52.45
-60.47
-69.98
-80.79
-91.99
-101.86
-108.07
-108.32
-101.10
-86.35
-65.53
-41.20
-16.24
7.06
27.29
43.94
56.95
66.36
72.07
74.09
72.62
68.25
61.93
54.70
47.54
41.15
35.90
31.83
28.80
26.65
25.18
24.32
23.98
24.00
24.12
23.97
23.18
21.43
18.48
14.26
8.81
2.24
-5.25
-13.38
-21.80
-30.12
-38.03
-45.36
-52.20
-58.87
-65.98
-74.22
-84.01
-95.17
-106.58
-116.18
-121.40
-119.93
-110.52
-93.49
-70.69
-44.85
-18.78
5.33
26.22
43.42
56.84
66.54
72.59
75.16
74.68
71.76
67.18
61.70
55.96
50.46
45.57
41.53
38.40
36.13
34.56
33.49
32.78
32.35
32.11
31.91
31.38
30.00
27.24
22.68
16.28
8.38
-0.35
-9.18
-17.46
-24.89
-31.55
-37.93
-44.80
-53.04
-63.28
-75.64
-89.32
-102.56
-112.87
-117.59
-114.74
-103.59
-84.89
-60.64
-33.55
-6.34
18.68
39.97
56.68
68.66
76.16
79.70
79.83
77.08
72.00
65.15
57.26
49.14
41.63
35.37
30.74
27.78
26.34
26.14
26.84
28.00
29.15
29.84
29.69
28.49
26.18
22.85
18.58
13.48
7.64
1.07
-6.12
-13.81
-21.76
-29.66
-37.24
-44.41
-51.35
-58.54
-66.59
-75.90
-86.33
-96.94
-105.98
-111.29
-110.83
-103.31
-88.73
-68.36
-44.48
-19.67
3.85
24.64
42.03
55.88
66.21
73.05
76.39
76.45
73.74
69.14
63.71
58.35
53.69
49.95
47.08
44.86
43.12
41.74
40.69
39.94
39.37
38.79
37.81
35.99
32.91
28.31
22.18
14.86
6.95
-0.87
-8.09
-14.55
-20.54
-26.61
-33.40
-41.44
-50.99
-61.89
-73.49
-84.50
-93.15
-97.38
-95.41
-86.32
-70.47
-49.48
-25.83
-2.10
19.63
38.14
52.97
64.06
71.39
74.91
74.62
70.97
64.90
57.73
50.76
44.85
40.15
36.33
32.92
29.76
27.09
25.35
24.76
25.03
25.38
24.74
22.31
17.78
11.42
3.90
-4.05
-11.85
-19.26
-26.33
-33.43
-41.10
-49.97
-60.54
-72.76
-85.75
-97.66
-106.02
-108.41
-103.31
-90.62
-71.74
-49.11
-25.46
-3.18
16.12
31.60
43.02
50.45
54.14
54.47
51.97
47.31
41.18
34.32
27.36
20.86
15.22
10.72
7.48
5.43
4.38
3.99
3.79
3.23
1.85
-0.69
-4.49
-9.37
-14.99
-21.05
-27.42
-34.32
-42.28
-51.88
-63.40
-76.43
-89.57
-100.58
-106.87
-106.26
-97.63
-81.40
-59.31
-33.99
-8.15
15.94
36.76
53.51
65.86
73.79
77.59
77.76
75.11
70.53
64.90
58.88
52.88
47.15
41.86
37.22
33.51
30.94
29.55
29.04
28.79
27.93
25.63
21.25
14.64
6.15
-3.43
-13.15
-22.24
-30.42
-38.04
-46.03
-55.54
-67.48
-81.97
-97.94
-113.12
-124.48
-129.07
-124.95
-111.72
-90.69
-64.37
-35.71
-7.39
18.62
41.17
59.68
73.92
83.93
89.88
92.20
91.48
88.47
83.94
78.62
73.10
67.86
63.25
59.52
56.71
54.70
53.23
51.93
50.47
48.59
46.09
42.85
38.68
33.39
26.80
18.84
9.72
-0.13
-10.10
-19.68
-28.57
-36.84
-44.86
-53.28
-62.83
-74.19
-87.69
-102.92
-118.55
-132.30
-141.35
-143.06
-135.83
-119.58
-95.82
-67.06
-36.14
-5.53
22.88
47.79
68.37
84.11
94.85
100.88
102.91
101.91
98.93
94.86
90.35
85.75
81.25
76.95
73.04
69.80
67.57
66.55
66.70
67.57
68.42
68.37
66.67
62.94
57.25
50.06
42.06
33.89
25.92
18.09
10.03
1.24
-8.50
-19.01
-29.64
-39.61
-48.35
-55.83
-62.65
-69.91
-78.80
-90.24
-104.37
-120.19
-135.59
-147.62
-153.22
-150.11
-137.45
-116.18
-88.63
-57.83
-26.68
2.51
28.24
49.57
66.03
77.48
84.15
86.71
86.15
83.55
79.89
75.90
71.94
68.19
64.72
61.63
59.07
57.31
56.57
56.90
58.09
59.61
60.69
60.56
58.65
54.86
49.51
43.22
36.62
30.18
24.02
18.02
11.84
5.17
-2.21
-10.26
-18.73
-27.26
-35.41
-42.96
-49.86
-56.32
-62.87
-70.19
-78.96
-89.57
-101.64
-113.81
-123.74
-128.63
-125.98
-114.52
-94.64
-68.32
-38.47
-8.12
20.24
45.02
65.39
81.07
92.02
98.41
100.61
99.22
95.08
89.19
82.49
75.76
69.54
64.06
59.46
55.84
53.31
51.95
51.71
52.21
52.83
52.77
51.39
48.41
44.02
38.67
32.90
26.98
20.88
14.37
7.23
-0.52
-8.58
-16.48
-23.78
-30.26
-35.99
-41.24
-46.51
-52.35
-59.31
-67.61
-76.93
-86.12
-93.24
-95.99
-92.41
-81.55
-63.87
-41.04
-15.48
10.33
34.37
55.21
71.96
84.09
91.35
93.85
92.13
87.16
80.09
72.03
63.84
56.08
49.06
42.97
37.93
34.13
31.72
30.77
31.17
32.56
34.32
35.71
35.96
34.54
31.30
26.54
20.80
14.69
8.63
2.74
-3.17
-9.37
-16.06
-23.24
-30.61
-37.77
-44.38
-50.34
-55.90
-61.58
-68.04
-75.75
-84.80
-94.58
-103.82
-110.60
-112.84
-108.78
-97.57
-79.61
-56.53
-30.78
-5.12
18.08
37.17
51.36
60.59
65.30
66.14
63.93
59.45
53.48
46.72
39.82
33.29
27.55
22.87
19.37
17.00
15.60
14.95
14.86
15.18
15.77
16.34
16.41
15.46
13.01
8.96
3.64
-2.22
-7.84
-12.71
-16.77
-20.29
-23.64
-26.95
-29.97
-32.14
-32.91
-32.07
-29.91
-27.12
-24.62
-23.32
-23.87
-26.68
-31.72
-38.42
-45.49
-51.04
-53.07
-50.04
-41.52
-28.42
-12.64
3.66
18.69
31.46
41.71
49.47
54.77
57.52
57.63
55.21
50.74
44.93
38.60
32.51
27.25
23.12
20.18
18.25
17.04
16.36
16.16
16.45
17.16
17.99
18.37
17.69
15.63
12.26
8.12
3.88
0.05
-3.29
-6.46
-9.99
-14.36
-19.75
-25.99
-32.64
-39.15
-45.07
-50.21
-54.71
-58.99
-63.69
-69.36
-76.27
-84.07
-91.66
-97.31
-99.04
-95.24
-85.20
-69.40
-49.35
-27.18
-5.03
15.36
32.82
46.71
56.69
62.74
64.95
63.76
59.85
54.12
47.51
40.88
34.81
29.58
25.25
21.73
18.94
16.93
15.79
15.61
16.33
17.63
18.99
19.78
19.51
17.93
15.16
11.55
7.55
3.51
-0.43
-4.43
-8.78
-13.87
-19.81
-26.42
-33.17
-39.43
-44.74
-49.16
-53.30
-58.10
-64.44
-72.61
-82.00
-91.10
-97.83
-100.16
-96.59
-86.61
-70.79
-50.63
-28.19
-5.68
14.97
32.41
45.88
55.19
60.50
62.24
60.99
57.40
52.23
46.17
39.85
33.77
28.30
23.70
20.21
17.96
16.94
16.99
17.78
18.88
19.83
20.23
19.82
18.48
16.28
13.40
10.16
6.75
3.25
-0.57
-5.01
-10.35
-16.68
-23.63
-30.65
-37.10
-42.53
-46.85
-50.43
-53.90
-57.98
-63.31
-70.03
-77.68
-85.06
-90.36
-91.64
-87.40
-77.07
-61.22
-41.40
-19.66
1.91
21.60
38.24
51.17
60.12
65.12
66.50
64.76
60.60
54.72
47.80
40.48
33.25
26.58
20.87
16.46
13.56
12.27
12.37
13.41
14.71
15.67
15.92
15.41
14.29
12.75
10.81
8.29
5.00
0.83
-4.06
-9.36
-14.76
-20.08
-25.31
-30.53
-35.84
-41.31
-47.12
-53.53
-60.89
-69.24
-78.04
-85.98
-91.21
-91.85
-86.56
-75.08
-58.29
-37.95
-16.23
4.84
23.64
39.16
50.87
58.67
62.73
63.41
61.23
56.84
50.94
44.30
37.60
31.39
26.01
21.59
18.15
15.68
14.16
13.51
13.56
14.03
14.48
14.42
13.47
11.43
8.38
4.65
0.58
-3.61
-7.96
-12.68
-18.00
-23.99
-30.50
-37.18
-43.73
-50.02
-56.18
-62.57
-69.63
-77.53
-85.93
-93.73
-99.22
-100.44
-95.77
-84.57
-67.42
-46.06
-22.79
0.06
20.69
37.99
51.45
60.94
66.52
68.42
67.05
63.03
57.11
50.12
42.79
35.75
29.49
24.42
20.80
18.74
18.10
18.52
19.48
20.39
20.85
20.70
19.98
18.86
17.37
15.45
12.89
9.51
5.19
-0.11
-6.30
-13.22
-20.59
-28.05
-35.27
-42.04
-48.47
-55.06
-62.55
-71.51
-81.89
-92.71
-102.04
-107.50
-106.91
-99.01
-83.89
-63.01
-38.75
-13.78
9.61
29.83
46.01
57.92
65.65
69.47
69.87
67.49
63.15
57.76
52.13
46.81
42.10
38.04
34.67
32.05
30.33
29.62
29.91
30.90
32.09
32.89
32.79
31.58
29.31
26.23
22.61
18.53
13.89
8.46
2.07
-5.23
-13.13
-21.11
-28.69
-35.53
-41.60
-47.22
-52.92
-59.42
-67.37
-76.99
-87.75
-98.11
-105.72
-108.03
-103.11
-90.37
-70.85
-46.88
-21.27
3.39
25.31
43.47
57.46
67.15
72.57
73.99
71.99
67.43
61.33
54.65
48.14
42.34
37.54
33.89
31.38
29.90
29.24
29.12
29.26
29.43
29.44
29.07
28.10
26.21
23.10
18.58
12.67
5.68
-1.89
-9.50
-16.71
-23.35
-29.49
-35.48
-41.87
-49.25
-58.08
-68.39
-79.46
-89.71
-96.93
-98.83
-93.86
-81.69
-63.47
-41.41
-18.09
4.24
24.09
40.70
53.81
63.35
69.32
71.78
71.03
67.67
62.54
56.61
50.69
45.40
40.98
37.42
34.55
32.19
30.22
28.63
27.43
26.57
25.91
25.15
23.87
21.68
18.35
13.82
8.28
2.01
-4.71
-11.66
-18.67
-25.60
-32.32
-38.85
-45.43
-52.58
-60.96
-70.95
-82.29
-93.71
-103.14
-108.20
-106.98
-98.63
-83.71
-63.90
-41.49
-18.67
2.85
22.08
38.56
52.06
62.45
69.55
73.27
73.71
71.34
66.88
61.19
55.12
49.30
44.21
40.15
37.32
35.81
35.55
36.25
37.43
38.47
38.79
37.97
35.83
32.45
28.05
22.88
17.18
11.11
4.73
-1.95
-8.97
-16.36
-24.08
-32.03
-40.02
-47.91
-55.76
-63.83
-72.57
-82.28
-92.67
-102.57
-110.03
-112.81
-109.07
-98.13
-80.65
-58.47
-33.95
-9.39
13.45
33.45
49.99
62.75
71.57
76.49
77.75
75.90
71.71
66.14
60.12
54.45
49.63
45.79
42.87
40.76
39.48
39.17
39.95
41.65
43.74
45.35
45.60
44.00
40.54
35.75
30.33
24.83
19.37
13.75
7.64
0.83
-6.53
-14.16
-21.67
-28.81
-35.44
-41.59
-47.40
-53.18
-59.47
-66.90
-76.01
-86.71
-97.94
-107.69
-113.39
-112.69
-104.29
-88.41
-66.75
-41.92
-16.73
6.56
26.48
42.39
54.17
61.97
66.05
66.77
64.60
60.21
54.41
48.09
42.14
37.21
33.76
31.87
31.35
31.77
32.69
33.71
34.63
35.37
35.87
35.96
35.42
33.95
31.33
27.41
22.25
16.09
9.31
2.33
-4.51
-11.03
-17.33
-23.66
-30.41
-37.94
-46.49
-56.07
-66.31
-76.37
-84.80
-89.86
-89.83
-83.67
-71.37
-54.13
-33.94
-13.06
6.69
24.16
38.96
51.08
60.61
67.49
71.52
72.60
70.81
66.64
60.89
54.50
48.35
43.06
38.97
36.14
34.48
33.77
33.76
34.12
34.49
34.55
34.02
32.62
30.14
26.39
21.28
14.86
7.44
-0.53
-8.52
-16.14
-23.26
-30.04
-36.85
-44.25
-52.82
-63.02
-74.93
-88.02
-100.87
-111.27
-116.66
-114.89
-104.95
-87.38
-64.16
-38.09
-12.01
11.83
32.09
48.19
60.08
67.89
71.94
72.71
70.93
67.50
63.28
58.96
54.91
51.34
48.37
46.22
45.18
45.38
46.65
48.45
49.92
50.21
48.87
45.89
41.70
36.82
31.66
26.32
20.69
14.61
8.00
0.92
-6.46
-13.98
-21.50
-28.89
-36.07
-43.01
-49.92
-57.26
-65.66
-75.59
-86.89
-98.45
-108.26
-113.77
-112.77
-104.05
-87.91
-66.01
-40.99
-15.62
7.81
27.86
43.96
56.12
64.69
70.07
72.71
73.00
71.45
68.57
64.97
61.23
57.85
55.15
53.24
52.12
51.69
51.89
52.66
53.95
55.57
57.10
57.97
57.52
55.29
51.17
45.47
38.91
32.25
26.14
20.75
15.85
10.86
5.21
-1.46
-9.02
-16.99
-24.71
-31.61
-37.55
-42.77
-47.89
-53.70
-60.92
-69.97
-80.68
-92.15
-102.69
-110.12
-112.23
-107.48
-95.49
-77.19
-54.56
-30.07
-6.05
15.67
33.91
48.00
57.74
63.23
64.93
63.58
60.15
55.65
50.96
46.69
43.19
40.54
38.70
37.59
37.17
37.40
38.28
39.72
41.45
43.09
44.08
43.92
42.26
39.13
34.90
30.13
25.40
21.00
16.79
12.27
6.95
0.57
-6.64
-14.05
-20.94
-26.77
-31.52
-35.65
-39.94
-45.28
-52.28
-61.22
-71.77
-82.94
-93.08
-100.06
-101.77
-96.70
-84.52
-66.20
-43.88
-20.16
2.54
22.43
38.59
50.85
59.41
64.62
66.85
66.48
64.05
60.24
55.82
51.56
47.96
45.27
43.40
42.15
41.29
40.73
40.53
40.83
41.63
42.76
43.83
44.34
43.85
42.12
39.16
35.30
30.91
26.31
21.60
16.61
11.04
4.62
-2.77
-10.97
-19.58
-28.11
-36.09
-43.15
-49.17
-54.26
-58.79
-63.43
-68.99
-76.21
-85.36
-95.89
-106.26
-114.15
-117.06
-113.04
-101.41
-82.92
-59.62
-34.19
-9.31
12.94
31.29
45.33
55.24
61.57
65.01
66.23
65.82
64.26
62.00
59.47
57.09
55.15
53.80
53.07
52.87
53.05
53.43
53.82
54.05
54.00
53.49
52.42
50.68
48.22
45.03
41.22
36.97
32.50
28.00
23.52
18.99
14.29
9.29
3.93
-1.80
-7.88
-14.33
-21.15
-28.26
-35.46
-42.48
-49.06
-55.08
-60.64
-66.11
-72.03
-78.98
-87.24
-96.55
-105.87
-113.50
-117.29
-115.37
-106.70
-91.44
-71.02
-47.69
-23.87
-1.59
17.84
33.86
46.35
55.39
61.13
63.78
63.77
61.71
58.39
54.58
50.94
47.87
45.57
44.06
43.27
43.12
43.46
44.19
45.16
46.25
47.30
48.08
48.32
47.70
45.95
42.99
38.99
34.26
29.23
24.22
19.30
14.26
8.80
2.64
-4.28
-11.74
-19.33
-26.59
-33.13
-38.81
-43.68
-48.03
-52.34
-57.20
-63.17
-70.67
-79.64
-89.31
-98.13
-104.05
-104.97
-99.41
-87.02
-68.78
-46.69
-23.19
-0.60
19.37
35.78
48.29
56.94
61.99
63.76
62.74
59.57
55.03
49.96
45.12
41.07
38.04
36.03
34.89
34.47
34.72
35.61
37.00
38.54
39.61
39.55
37.83
34.35
29.48
23.91
18.36
13.27
8.63
4.01
-1.13
-7.24
-14.36
-22.18
-30.12
-37.67
-44.56
-50.84
-56.86
-63.17
-70.35
-78.85
-88.69
-99.28
-109.28
-116.76
-119.54
-115.95
-105.28
-88.10
-66.14
-41.83
-17.64
4.41
23.03
37.63
48.17
54.91
58.28
58.82
57.17
54.02
50.11
46.09
42.37
39.13
36.43
34.26
32.71
31.92
32.02
33.01
34.64
36.46
37.91
38.45
37.75
35.66
32.34
28.10
23.33
18.32
13.20
7.82
1.89
-4.91
-12.76
-21.44
-30.45
-39.02
-46.50
-52.61
-57.61
-62.39
-68.05
-75.51
-84.98
-95.68
-105.77
-112.84
-114.53
-109.30
-96.87
-78.25
-55.44
-30.82
-6.58
15.57
34.56
49.80
61.15
68.66
72.60
73.47
71.89
68.64
64.49
60.11
55.92
52.18
48.94
46.25
44.20
42.93
42.60
43.16
44.27
45.34
45.72
44.88
42.65
39.20
34.93
30.26
25.42
20.42
15.06
9.06
2.29
-5.16
-13.00
-20.84
-28.29
-35.12
-41.31
-47.09
-52.90
-59.42
-67.34
-76.98
-87.97
-98.93
-107.62
-111.57
-108.90
-98.92
-82.44
-61.41
-38.24
-15.17
6.15
24.68
39.80
51.25
58.96
63.12
64.17
62.71
59.37
54.76
49.45
43.97
38.86
34.59
31.48
29.57
28.77
28.79
29.33
30.16
31.01
31.63
31.71
30.98
29.19
26.27
22.24
17.22
11.41
4.97
-1.90
-8.99
-16.10
-22.97
-29.43
-35.46
-41.28
-47.29
-54.07
-62.00
-71.04
-80.46
-88.72
-93.76
-93.61
-86.97
-73.76
-55.30
-33.80
-11.84
8.34
25.38
38.76
48.63
55.31
59.11
60.14
58.56
54.76
49.44
43.55
37.99
33.40
29.93
27.42
25.53
24.04
22.93
22.33
22.37
22.92
23.59
23.75
22.77
20.16
15.80
9.90
3.01
-4.22
-11.16
-17.50
-23.29
-29.04
-35.52
-43.56
-53.65
-65.68
-78.59
-90.53
-99.14
-102.17
-98.13
-86.78
-69.24
-47.58
-24.39
-2.04
17.74
33.99
46.43
55.17
60.42
62.49
61.74
58.74
54.24
49.10
44.08
39.75
36.35
33.84
31.99
30.63
29.59
28.83
28.34
28.09
27.93
27.61
26.74
24.87
21.68
16.96
10.86
3.80
-3.65
-10.98
-17.84
-24.20
-30.31
-36.67
-43.92
-52.64
-63.08
-74.82
-86.54
-96.15
-101.24
-99.75
-90.76
-74.83
-53.93
-30.83
-8.34
11.47
27.50
39.55
48.00
53.42
56.39
57.42
57.02
55.67
53.77
51.49
48.91
45.94
42.65
39.28
36.27
34.17
33.35
33.90
35.44
37.26
38.52
38.54
37.02
34.07
30.15
25.77
21.29
16.74
11.91
6.55
0.54
-5.98
-12.71
-19.32
-25.65
-31.71
-37.74
-44.11
-51.26
-59.64
-69.42
-80.20
-90.84
-99.45
-103.86
-102.24
-93.86
-79.34
-60.52
-39.75
-19.17
-0.17
16.66
31.21
43.45
53.14
59.91
63.43
63.78
61.53
57.59
52.97
48.47
44.56
41.37
38.92
37.23
36.47
36.82
38.35
40.77
43.48
45.69
46.69
46.10
43.94
40.60
36.60
32.37
28.11
23.80
19.19
13.97
7.90
0.91
-6.79
-14.76
-22.36
-29.07
-34.67
-39.39
-43.90
-49.05
-55.64
-64.08
-74.08
-84.63
-93.97
-99.96
-100.64
-94.72
-82.08
-63.79
-41.88
-18.75
3.37
22.89
38.96
51.31
60.06
65.47
67.85
67.54
65.02
60.91
55.99
51.03
46.70
43.39
41.18
39.93
39.43
39.51
40.02
40.84
41.71
42.21
41.86
40.27
37.30
33.13
28.12
22.69
17.08
11.37
5.48
-0.65
-7.02
-13.50
-19.89
-26.03
-31.88
-37.60
-43.61
-50.47
-58.74
-68.68
-79.88
-91.10
-100.33
-105.32
-104.18
-96.12
-81.61
-62.31
-40.45
-18.20
2.76
21.37
36.96
49.17
57.75
62.75
64.53
63.78
61.39
58.19
54.75
51.32
47.96
44.66
41.58
39.03
37.41
37.05
37.98
39.86
42.00
43.51
43.61
41.89
38.48
33.93
28.96
24.12
19.52
14.90
9.72
3.50
-3.94
-12.41
-21.37
-30.12
-38.05
-44.78
-50.37
-55.26
-60.24
-66.18
-73.71
-82.92
-93.00
-102.34
-108.78
-110.23
-105.29
-93.72
-76.43
-55.30
-32.57
-10.31
9.91
27.12
40.80
50.79
57.17
60.28
60.71
59.23
56.66
53.63
50.50
47.42
44.45
41.67
39.27
37.48
36.46
36.26
36.73
37.60
38.48
38.99
38.80
37.67
35.53
32.44
28.61
24.31
19.83
15.37
10.94
6.43
1.55
-3.92
-10.10
-16.82
-23.79
-30.60
-36.96
-42.84
-48.38
-53.95
-59.96
-66.80
-74.73
-83.83
-93.68
-103.18
-110.51
-113.50
-110.27
-99.93
-83.02
-61.38
-37.65
-14.39
6.45
23.85
37.55
47.75
54.78
58.97
60.67
60.29
58.29
55.14
51.31
47.21
43.24
39.79
37.16
35.54
35.00
35.45
36.70
38.46
40.33
41.88
42.70
42.43
40.93
38.25
34.64
30.34
25.56
20.38
14.76
8.70
2.23
-4.47
-11.22
-17.78
-24.05
-30.06
-36.06
-42.43
-49.65
-58.08
-67.70
-77.87
-87.22
-93.91
-96.07
-92.37
-82.44
-67.05
-47.84
-26.83
-5.97
13.24
29.79
43.10
52.92
59.20
62.07
61.95
59.51
55.49
50.70
45.79
41.18
37.11
33.70
30.99
28.99
27.77
27.33
27.56
28.22
28.94
29.26
28.77
27.24
24.60
21.00
16.63
11.61
5.97
-0.33
-7.24
-14.60
-22.09
-29.35
-36.12
-42.36
-48.27
-54.31
-61.05
-69.07
-78.67
-89.56
-100.62
-109.95
-115.22
-114.38
-106.32
-91.28
-70.84
-47.43
-23.65
-1.63
17.28
32.54
44.17
52.44
57.64
60.05
59.98
57.88
54.31
49.95
45.43
41.22
37.63
34.77
32.65
31.37
31.03
31.59
32.88
34.41
35.56
35.74
34.62
32.18
28.68
24.50
19.90
14.95
9.54
3.58
-2.96
-9.97
-17.24
-24.48
-31.45
-37.96
-43.95
-49.59
-55.36
-61.96
-70.02
-79.65
-90.10
-99.62
-105.87
-106.60
-100.48
-87.59
-69.34
-48.00
-25.96
-5.14
13.27
28.71
41.01
50.14
56.19
59.38
60.11
58.99
56.70
53.88
51.00
48.37
46.08
44.17
42.68
41.71
41.38
41.80
42.87
44.26
45.38
45.61
44.46
41.80
37.86
33.11
28.09
23.15
18.35
13.45
8.09
1.92
-5.13
-12.85
-20.73
-28.19
-34.77
-40.37
-45.24
-49.94
-55.18
-61.55
-69.43
-78.63
-88.24
-96.58
-101.53
-101.02
-93.78
-79.84
-60.63
-38.55
-16.22
4.29
21.78
35.94
46.92
54.93
60.09
62.42
62.07
59.47
55.30
50.39
45.51
41.22
37.81
35.37
33.89
33.32
33.59
34.53
35.84
37.11
37.89
37.81
36.68
34.48
31.33
27.38
22.75
17.52
11.76
5.56
-0.89
-7.37
-13.64
-19.56
-25.12
-30.48
-36.03
-42.36
-50.07
-59.44
-70.09
-80.69
-89.13
-93.08
-90.70
-81.34
-65.78
-45.94
-24.27
-3.05
16.11
32.33
45.29
55.00
61.50
64.91
65.43
63.47
59.66
54.72
49.42
44.38
40.04
36.61
34.18
32.73
32.19
32.35
32.85
33.24
33.05
31.99
29.99
27.15
23.64
19.50
14.69
9.11
2.80
-4.08
-11.25
-18.47
-25.65
-32.88
-40.26
-47.90
-55.84
-64.12
-72.92
-82.34
-92.17
-101.56
-108.87
-112.01
-109.09
-99.16
-82.68
-61.43
-37.93
-14.70
6.37
24.27
38.69
49.71
57.56
62.53
64.92
65.07
63.42
60.40
56.50
52.20
48.03
44.50
42.00
40.67
40.34
40.65
41.12
41.39
41.23
40.52
39.15
36.94
33.69
29.29
23.83
17.55
10.75
3.69
-3.46
-10.65
-17.82
-24.90
-31.76
-38.39
-45.00
-52.11
-60.35
-70.15
-81.34
-92.84
-102.72
-108.62
-108.41
-100.95
-86.50
-66.59
-43.66
-20.29
1.33
19.80
34.50
45.44
52.95
57.51
59.61
59.71
58.27
55.70
52.42
48.85
45.36
42.33
40.05
38.70
38.27
38.62
39.44
40.35
40.96
40.93
40.07
38.29
35.67
32.29
28.21
23.41
17.84
11.45
4.36
-3.17
-10.73
-17.95
-24.66
-31.01
-37.45
-44.58
-52.97
-62.88
-74.05
-85.48
-95.53
-102.12
-103.23
-97.59
-85.05
-66.82
-45.07
-22.35
-0.80
18.11
33.81
46.20
55.40
61.48
64.45
64.43
61.82
57.31
51.82
46.21
41.13
36.96
33.79
31.60
30.26
29.65
29.61
29.88
30.18
30.19
29.63
28.29
26.01
22.69
18.26
12.75
6.31
-0.79
-8.23
-15.72
-23.09
-30.30
-37.41
-44.67
-52.44
-61.15
-71.02
-81.85
-92.60
-101.51
-106.35
-105.14
-96.88
-81.89
-61.83
-39.08
-16.10
5.20
23.67
38.76
50.33
58.35
62.93
64.27
62.87
59.48
55.05
50.48
46.46
43.32
41.06
39.51
38.47
37.93
37.98
38.69
39.89
41.11
41.74
41.25
39.38
36.31
32.43
28.06
23.31
17.97
11.71
4.32
-4.05
-13.03
-22.02
-30.57
-38.41
-45.59
-52.32
-59.02
-66.26
-74.64
-84.51
-95.62
-106.78
-115.93
-120.58
-118.59
-108.95
-92.23
-70.33
-45.85
-21.31
1.41
21.24
37.73
50.76
60.31
66.48
69.50
69.83
68.17
65.33
62.16
59.35
57.33
56.22
55.91
56.16
56.70
57.39
58.15
58.91
59.57
59.96
59.83
58.94
57.08
54.13
50.11
45.15
39.50
33.49
27.39
21.41
15.59
9.87
4.10
-1.84
-8.06
-14.60
-21.38
-28.26
-35.03
-41.50
-47.55
-53.25
-58.87
-64.83
-71.65
-79.75
-89.23
-99.53
-109.30
-116.47
-118.74
-114.22
-102.23
-83.53
-60.23
-35.10
-10.76
10.92
28.99
43.24
53.79
60.80
64.45
65.06
63.17
59.66
55.52
51.74
49.00
47.65
47.60
48.49
49.83
51.24
52.48
53.55
54.57
55.56
56.39
56.61
55.67
53.16
49.01
43.57
37.51
31.49
25.87
20.65
15.58
10.35
4.78
-1.15
-7.38
-13.78
-20.23
-26.58
-32.62
-38.19
-43.35
-48.50
-54.43
-62.02
-71.81
-83.53
-95.83
-106.54
-113.10
-113.37
-106.26
-92.05
-72.24
-49.11
-25.10
-2.28
17.91
34.69
47.73
57.07
62.91
65.68
65.94
64.33
61.61
58.47
55.50
53.10
51.44
50.51
50.19
50.30
50.68
51.24
51.91
52.59
53.11
53.23
52.63
50.98
48.06
43.76
38.24
31.85
25.08
18.41
12.12
6.26
0.64
-5.05
-11.09
-17.53
-24.22
-30.90
-37.31
-43.35
-49.06
-54.60
-60.15
-65.96
-72.29
-79.54
-88.09
-98.01
-108.76
-118.88
-126.23
-128.47
-123.85
-111.84
-93.28
-70.17
-45.01
-20.13
2.74
22.60
39.07
52.06
61.65
67.93
71.09
71.54
69.87
66.87
63.35
60.05
57.35
55.34
53.92
52.93
52.34
52.19
52.54
53.27
54.05
54.47
54.14
52.94
50.91
48.30
45.32
42.00
38.23
33.82
28.68
22.93
16.87
10.96
5.55
0.77
-3.55
-7.83
-12.59
-18.19
-24.65
-31.65
-38.68
-45.17
-50.80
-55.54
-59.70
-63.87
-68.77
-75.13
-83.48
-93.75
-105.01
-115.42
-122.50
-123.84
-117.90
-104.54
-85.08
-61.79
-37.22
-13.48
7.96
26.31
41.20
52.46
60.14
64.43
65.78
64.77
62.14
58.51
54.48
50.55
47.16
44.67
43.33
43.19
44.11
45.72
47.58
49.29
50.63
51.48
51.78
51.46
50.34
48.18
44.88
40.48
35.24
29.57
23.80
18.18
12.74
7.37
1.91
-3.74
-9.63
-15.68
-21.75
-27.71
-33.41
-38.81
-43.99
-49.18
-54.74
-61.13
-68.81
-77.98
-88.31
-98.69
-107.16
-111.45
-109.55
-100.46
-84.58
-63.60
-39.99
-16.29
5.46
24.02
38.94
50.26
58.22
63.12
65.27
64.97
62.65
58.90
54.38
49.78
45.67
42.40
40.09
38.73
38.24
38.50
39.39
40.69
42.08
43.21
43.78
43.59
42.56
40.68
37.94
34.39
30.11
25.22
19.91
14.38
8.81
3.27
-2.22
-7.77
-13.52
-19.65
-26.27
-33.32
-40.57
-47.68
-54.32
-60.29
-65.78
-71.23
-77.37
-84.89
-94.09
-104.59
-115.16
-123.79
-128.12
-126.20
-116.99
-100.81
-79.19
-54.45
-29.08
-5.17
15.87
33.28
46.79
56.49
62.72
66.02
67.11
66.68
65.33
63.44
61.16
58.50
55.54
52.48
49.69
47.62
46.63
46.79
47.88
49.40
50.73
51.38
51.06
49.71
47.46
44.46
40.85
36.63
31.83
26.46
20.65
14.62
8.66
3.00
-2.29
-7.36
-12.51
-18.09
-24.31
-31.12
-38.20
-45.10
-51.40
-56.91
-61.70
-66.20
-71.07
-77.08
-84.93
-94.79
-105.97
-116.76
-124.68
-127.14
-122.30
-109.77
-90.70
-67.42
-42.55
-18.34
3.73
22.86
38.68
50.92
59.41
64.24
65.81
64.84
62.18
58.58
54.59
50.59
46.85
43.62
41.20
39.79
39.46
40.12
41.51
43.27
45.03
46.43
47.17
47.06
46.02
44.06
41.31
37.89
33.95
29.61
24.99
20.12
15.00
9.52
3.54
-3.04
-10.19
-17.68
-25.14
-32.16
-38.45
-43.96
-48.96
-53.97
-59.64
-66.55
-74.94
-84.49
-94.16
-102.26
-106.75
-105.87
-98.55
-84.89
-66.10
-44.23
-21.60
-0.27
18.34
33.56
45.30
53.78
59.35
62.24
62.65
60.87
57.36
52.77
47.84
43.17
39.15
35.89
33.40
31.70
30.95
31.33
32.88
35.31
37.98
40.05
40.76
39.67
36.86
32.75
28.01
23.14
18.41
13.74
8.82
3.22
-3.36
-10.98
-19.37
-28.02
-36.29
-43.64
-49.84
-55.11
-60.09
-65.75
-72.97
-82.29
-93.50
-105.53
-116.44
-123.84
-125.44
-119.74
-106.51
-86.88
-62.98
-37.38
-12.45
10.07
29.14
44.29
55.45
62.77
66.58
67.41
65.92
62.88
59.04
54.95
51.06
47.60
44.71
42.46
40.91
40.14
40.23
41.20
42.89
44.93
46.73
47.62
47.03
44.69
40.74
35.73
30.39
25.30
20.68
16.25
11.41
5.58
-1.58
-9.89
-18.75
-27.39
-35.22
-41.97
-47.91
-53.74
-60.32
-68.47
-78.59
-90.41
-102.82
-113.88
-121.20
-122.54
-116.45
-102.78
-82.81
-58.89
-33.74
-9.79
11.29
28.73
42.44
52.68
59.81
64.17
66.09
66.00
64.40
61.81
58.63
55.09
51.40
47.78
44.58
42.24
41.13
41.33
42.58
44.24
45.51
45.65
44.22
41.21
37.00
32.22
27.40
22.87
18.50
13.90
8.52
2.08
-5.36
-13.33
-21.19
-28.37
-34.63
-40.21
-45.69
-51.86
-59.41
-68.71
-79.43
-90.45
-99.83
-105.30
-104.80
-97.22
-82.78
-62.97
-40.10
-16.61
5.50
24.92
41.03
53.65
62.82
68.65
71.34
71.25
68.91
64.99
60.15
55.03
50.05
45.60
41.92
39.23
37.70
37.40
38.28
40.01
41.97
43.44
43.68
42.28
39.21
34.89
29.91
24.82
19.84
14.82
9.32
2.88
-4.72
-13.32
-22.47
-31.62
-40.29
-48.25
-55.57
-62.50
-69.53
-77.23
-86.13
-96.39
-107.41
-117.63
-124.70
-126.06
-119.87
-105.80
-85.20
-60.64
-35.06
-10.84
10.61
28.76
43.60
55.15
63.42
68.43
70.41
69.90
67.62
64.32
60.65
57.08
54.01
51.74
50.48
50.27
50.97
52.31
53.96
55.58
56.90
57.60
57.36
55.91
53.05
48.76
43.30
37.13
30.74
24.58
18.85
13.44
8.05
2.21
-4.41
-11.94
-20.22
-28.85
-37.24
-44.85
-51.34
-56.75
-61.61
-66.72
-73.11
-81.53
-92.15
-104.12
-115.64
-124.12
-126.92
-122.18
-109.45
-89.82
-65.60
-39.58
-14.21
8.75
28.39
44.32
56.44
64.76
69.48
71.03
70.13
67.61
64.26
60.69
57.26
54.21
51.71
49.96
49.10
49.20
50.17
51.74
53.49
55.00
55.92
56.05
55.34
53.78
51.34
47.99
43.73
38.62
32.93
26.99
21.10
15.40
9.84
4.19
-1.81
-8.33
-15.36
-22.73
-30.16
-37.33
-44.01
-50.10
-55.70
-61.19
-67.16
-74.29
-82.97
-93.03
-103.34
-111.92
-116.33
-114.43
-105.15
-88.91
-67.51
-43.49
-19.34
3.09
22.81
39.36
52.57
62.24
68.26
70.78
70.36
67.92
64.46
60.77
57.28
54.06
51.06
48.34
46.15
44.86
44.69
45.64
47.38
49.31
50.72
51.03
49.79
46.90
42.57
37.25
31.53
25.84
20.39
15.04
9.41
3.07
-4.21
-12.32
-20.82
-29.16
-36.83
-43.60
-49.59
-55.18
-61.02
-67.82
-76.22
-86.47
-98.12
-109.81
-119.39
-124.28
-122.35
-112.56
-95.44
-72.89
-47.64
-22.35
0.90
20.91
37.22
49.82
58.91
64.78
67.89
68.75
68.01
66.24
63.92
61.36
58.76
56.27
54.08
52.41
51.48
51.48
52.32
53.76
55.34
56.50
56.83
56.08
54.16
51.12
46.99
41.84
35.81
29.18
22.35
15.75
9.67
4.08
-1.29
-6.89
-13.11
-20.10
-27.67
-35.42
-42.92
-49.87
-56.23
-62.22
-68.26
-74.93
-82.77
-92.15
-102.92
-114.10
-123.86
-129.78
-129.54
-121.61
-106.00
-84.19
-58.77
-32.63
-8.20
13.00
30.35
43.83
53.65
60.11
63.61
64.59
63.69
61.63
59.08
56.51
54.20
52.27
50.78
49.86
49.67
50.32
51.77
53.77
55.88
57.53
58.22
57.57
55.41
51.85
47.08
41.51
35.55
29.55
23.76
18.19
12.67
6.91
0.61
-6.30
-13.67
-21.11
-28.12
-34.39
-39.90
-44.95
-50.09
-55.89
-62.89
-71.35
-81.23
-91.90
-102.10
-109.92
-113.23
-110.25
-100.14
-83.45
-61.96
-38.12
-14.42
7.21
25.66
40.44
51.54
59.15
63.58
65.24
64.59
62.15
58.45
53.98
49.24
44.72
40.85
37.97
36.23
35.67
36.20
37.57
39.45
41.32
42.55
42.57
41.00
37.80
33.26
27.90
22.20
16.52
10.79
4.74
-1.99
-9.63
-18.04
-26.80
-35.24
-42.82
-49.25
-54.78
-60.10
-66.19
-73.94
-83.73
-95.02
-106.29
-115.21
-119.19
-116.23
-105.60
-88.00
-65.46
-40.60
-15.91
6.75
26.34
42.42
54.90
63.85
69.44
71.97
71.95
69.98
66.71
62.71
58.49
54.40
50.73
47.71
45.47
44.19
43.94
44.68
46.10
47.61
48.48
48.04
45.94
42.21
37.31
31.84
26.31
20.93
15.59
9.97
3.68
-3.54
-11.67
-20.46
-29.41
-37.99
-45.78
-52.60
-58.57
-64.19
-70.13
-77.17
-85.82
-96.02
-106.84
-116.41
-122.30
-122.17
-114.60
-99.58
-78.63
-54.20
-28.99
-5.17
15.90
33.56
47.61
57.92
64.46
67.41
67.29
64.98
61.51
57.79
54.41
51.59
49.31
47.48
46.11
45.30
45.22
45.96
47.39
49.17
50.73
51.43
50.76
48.50
44.79
40.04
34.80
29.46
24.12
18.57
12.41
5.35
-2.66
-11.29
-19.96
-28.09
-35.23
-41.29
-46.55
-51.68
-57.52
-64.91
-74.32
-85.43
-96.95
-106.69
-112.07
-110.87
-102.00
-85.88
-64.33
-39.90
-15.21
7.65
27.33
43.16
54.93
62.72
66.84
67.82
66.27
62.85
58.12
52.59
46.79
41.31
36.75
33.67
32.30
32.52
33.84
35.60
37.19
38.20
38.43
37.80
36.24
33.65
29.94
25.09
19.25
12.67
5.68
-1.46
-8.61
-15.69
-22.74
-29.80
-36.94
-44.24
-51.92
-60.35
-69.87
-80.57
-91.94
-102.60
-110.44
-113.13
-108.87
-97.10
-78.77
-56.09
-31.87
-8.67
11.67
28.24
40.76
49.32
54.06
55.18
53.11
48.61
42.83
37.00
32.07
28.48
26.00
24.02
21.83
19.01
15.49
11.53
7.43
3.39
-0.50
-4.02
-6.60
-7.32
-5.15
0.54
9.60
20.80
32.22
41.70
47.61
49.30
47.24
42.65
36.88
31.02
25.55
20.36
14.88
8.27
-0.31
-11.52
-25.47
-41.49
-57.86
-72.15
-81.62
-84.10
-78.72
-66.20
-48.58
-28.51
-8.53
9.59
24.85
36.98
46.09
52.34
55.90
56.98
55.92
53.20
49.46
45.35
41.45
38.21
35.87
34.55
34.21
34.77
36.06
37.89
39.98
42.03
43.67
44.50
44.18
42.46
39.26
34.72
29.27
23.47
17.85
12.71
7.93
3.11
-2.34
-8.80
-16.28
-24.31
-32.15
-39.11
-44.86
-49.63
-54.05
-58.98
-65.25
-73.43
-83.62
-95.40
-107.60
-118.45
-125.72
-127.25
-121.63
-108.59
-89.19
-65.47
-39.90
-14.74
8.34
28.21
44.30
56.30
64.19
68.29
69.26
67.99
65.41
62.29
59.08
56.05
53.29
50.91
49.01
47.72
47.10
47.17
47.85
48.89
49.93
50.46
49.92
47.90
44.29
39.40
33.90
28.51
23.71
19.57
15.66
11.35
6.09
-0.35
-7.79
-15.73
-23.58
-30.86
-37.35
-43.21
-48.96
-55.26
-62.84
-72.08
-82.76
-93.79
-103.29
-109.00
-108.84
-101.66
-87.50
-67.71
-44.41
-19.99
3.47
24.48
42.13
55.94
65.76
71.62
73.81
72.91
69.67
64.96
59.65
54.45
49.89
46.24
43.52
41.62
40.44
39.92
40.07
40.91
42.24
43.60
44.34
43.84
41.76
38.15
33.42
28.13
22.78
17.60
12.58
7.47
1.97
-4.23
-11.30
-19.20
-27.68
-36.27
-44.48
-51.95
-58.64
-64.93
-71.46
-78.98
-88.02
-98.54
-109.66
-119.71
-126.47
-127.78
-122.16
-109.29
-90.11
-66.61
-41.14
-15.96
7.18
27.19
43.47
55.82
64.30
69.22
71.04
70.47
68.18
64.81
60.93
56.95
53.19
49.85
47.09
44.98
43.58
43.00
43.31
44.52
46.44
48.59
50.30
50.82
49.59
46.40
41.47
35.36
28.81
22.41
16.44
10.82
5.11
-1.23
-8.55
-16.81
-25.58
-34.10
-41.74
-48.21
-53.70
-58.81
-64.39
-71.20
-79.70
-89.79
-100.67
-110.74
-117.86
-119.81
-114.96
-102.85
-84.39
-61.58
-36.93
-12.79
9.08
27.65
42.49
53.53
60.92
65.00
66.21
65.15
62.43
58.61
54.20
49.61
45.25
41.48
38.62
36.91
36.40
36.96
38.24
39.74
40.81
40.90
39.74
37.36
34.13
30.46
26.67
22.75
18.43
13.34
7.26
0.27
-7.28
-14.87
-22.13
-28.88
-35.18
-41.33
-47.81
-55.26
-64.21
-74.83
-86.52
-97.75
-106.22
-109.50
-105.83
-94.70
-77.11
-55.19
-31.52
-8.42
12.50
30.33
44.68
55.37
62.36
65.78
66.07
63.89
60.10
55.49
50.69
46.05
41.77
38.03
35.01
32.96
32.09
32.36
33.53
35.05
36.22
36.38
35.10
32.22
27.95
22.77
17.21
11.67
6.22
0.64
-5.49
-12.45
-20.25
-28.54
-36.72
-44.29
-51.05
-57.30
-63.74
-71.26
-80.46
-91.36
-103.08
-113.87
-121.46
-123.60
-118.76
-106.62
-88.19
-65.46
-40.79
-16.36
6.22
25.91
42.14
54.65
63.36
68.39
70.13
69.20
66.38
62.57
58.54
54.87
51.83
49.46
47.63
46.25
45.31
44.92
45.15
45.91
46.90
47.60
47.43
45.90
42.86
38.45
33.16
27.49
21.79
16.02
9.90
2.99
-4.92
-13.62
-22.61
-31.22
-39.01
-45.90
-52.23
-58.50
-65.24
-72.94
-81.88
-92.12
-103.15
-113.71
-121.77
-125.00
-121.41
-110.20
-92.06
-69.04
-43.84
-18.99
3.69
23.22
39.25
51.66
60.46
65.71
67.76
67.14
64.65
61.07
57.06
53.03
49.30
46.12
43.72
42.29
41.92
42.51
43.78
45.28
46.46
46.83
46.01
43.93
40.76
36.81
32.44
27.79
22.78
17.13
10.56
2.97
-5.37
-13.90
-21.98
-29.15
-35.37
-40.97
-46.63
-53.06
-60.79
-70.01
-80.24
-90.36
-98.59
-102.91
-101.45
-93.21
-78.35
-58.25
-35.18
-11.56
10.51
29.69
45.31
57.20
65.37
69.88
70.98
69.13
65.12
59.89
54.45
49.50
45.44
42.37
40.19
38.82
38.21
38.37
39.19
40.36
41.37
41.61
40.62
38.19
34.50
29.93
24.98
19.95
14.83
9.32
3.03
-4.23
-12.37
-20.94
-29.39
-37.29
-44.53
-51.42
-58.59
-66.81
-76.65
-88.27
-101.00
-113.37
-123.15
-127.98
-125.90
-116.05
-98.97
-76.39
-50.70
-24.37
0.57
22.70
41.14
55.48
65.63
71.83
74.64
74.75
72.99
70.02
66.40
62.56
58.87
55.63
53.13
51.59
51.07
51.52
52.72
54.33
55.90
56.98
57.11
55.94
53.29
49.19
43.92
37.90
31.65
25.57
19.85
14.36
8.78
2.69
-4.20
-11.93
-20.24
-28.70
-36.80
-44.19
-50.76
-56.71
-62.54
-68.98
-76.77
-86.41
-97.75
-109.70
-120.25
-126.88
-127.19
-119.76
-104.66
-83.43
-58.59
-32.89
-8.62
12.83
30.83
45.27
56.26
63.90
68.35
69.87
68.97
66.35
62.79
59.06
55.74
53.13
51.33
50.28
49.86
49.96
50.53
51.52
52.82
54.21
55.24
55.39
54.18
51.38
47.11
41.85
36.17
30.58
25.28
20.19
14.97
9.24
2.82
-4.27
-11.74
-19.16
-26.08
-32.31
-37.88
-43.14
-48.60
-54.85
-62.42
-71.63
-82.36
-93.83
-104.49
-112.18
-114.63
-110.20
-98.45
-80.37
-58.03
-33.92
-10.25
11.38
30.04
45.21
56.58
64.05
67.78
68.27
66.35
62.93
58.81
54.56
50.54
46.96
44.06
42.09
41.29
41.80
43.51
46.05
48.76
50.89
51.74
50.93
48.51
44.88
40.64
36.26
31.94
27.54
22.64
16.87
10.01
2.19
-6.14
-14.38
-21.93
-28.34
-33.60
-38.14
-42.92
-49.12
-57.76
-69.04
-82.00
-94.50
-103.76
-107.19
-103.27
-91.95
-74.61
-53.50
-31.03
-9.25
10.38
26.90
39.74
48.59
53.40
54.50
52.55
48.51
43.38
38.05
33.09
28.81
25.28
22.56
20.72
19.91
20.30
21.92
24.51
27.51
30.18
31.75
31.75
30.09
27.12
23.36
19.38
15.55
11.86
8.10
3.88
-1.10
-6.97
-13.60
-20.72
-28.01
-35.21
-42.18
-48.94
-55.62
-62.48
-69.97
-78.59
-88.60
-99.75
-110.86
-119.79
-124.07
-121.49
-111.05
-93.28
-70.16
-44.39
-18.64
5.14
25.82
42.93
56.31
65.92
71.82
74.27
73.79
71.12
67.10
62.47
57.76
53.33
49.40
46.11
43.61
42.07
41.56
42.09
43.43
45.18
46.74
47.45
46.68
44.09
39.79
34.28
28.32
22.65
17.64
13.16
8.63
3.33
-3.28
-11.20
-19.93
-28.67
-36.68
-43.60
-49.56
-55.14
-61.11
-68.25
-77.05
-87.45
-98.60
-108.78
-115.68
-116.92
-110.90
-97.37
-77.62
-54.10
-29.64
-6.60
13.58
30.36
43.78
54.00
61.10
65.02
65.86
63.94
59.95
54.78
49.30
44.27
40.19
37.32
35.81
35.65
36.70
38.60
40.83
42.73
43.69
43.28
41.41
38.27
34.17
29.44
24.27
18.72
12.80
6.52
-0.07
-6.87
-13.78
-20.72
-27.65
-34.68
-42.03
-50.14
-59.46
-70.14
-81.62
-92.49
-100.62
-103.74
-100.20
-89.53
-72.59
-51.34
-28.06
-4.91
16.49
35.10
50.31
61.77
69.36
73.19
73.62
71.27
66.90
61.29
55.25
49.46
44.46
40.55
37.77
35.95
34.78
33.91
33.12
32.25
31.18
29.78
27.88
25.34
22.04
17.96
13.16
7.68
1.59
-5.10
-12.32
-19.88
-27.55
-35.00
-41.96
-48.34
-54.33
-60.47
-67.58
-76.41
-87.18
-99.13
-110.38
-118.26
-120.15
-114.38
-100.87
-81.14
-57.73
-33.32
-10.03
10.84
28.67
43.22
54.34
61.99
66.30
67.74
66.97
64.72
61.63
58.09
54.41
50.83
47.63
45.16
43.69
43.35
44.00
45.25
46.47
46.98
46.22
43.91
40.10
35.13
29.46
23.41
17.21
10.85
4.23
-2.72
-10.01
-17.50
-25.06
-32.50
-39.69
-46.63
-53.49
-60.72
-68.92
-78.72
-90.17
-102.51
-113.90
-121.74
-123.41
-117.20
-102.92
-81.95
-56.84
-30.48
-5.36
16.90
35.46
50.12
60.97
68.23
72.23
73.32
71.99
68.77
64.27
59.16
54.13
49.84
46.79
45.23
45.08
45.99
47.39
48.67
49.25
48.74
46.94
43.87
39.72
34.70
28.98
22.66
15.78
8.37
0.56
-7.46
-15.41
-23.05
-30.24
-36.96
-43.39
-49.85
-56.84
-64.94
-74.52
-85.37
-96.37
-105.49
-110.22
-108.31
-98.68
-81.73
-59.40
-34.45
-9.58
13.11
32.44
47.98
59.69
67.62
71.86
72.60
70.27
65.56
59.47
52.99
47.04
42.21
38.73
36.52
35.29
34.72
34.48
34.38
34.19
33.71
32.78
31.33
29.36
26.87
23.79
19.89
14.82
8.36
0.50
-8.38
-17.65
-26.68
-35.13
-43.08
-51.06
-59.78
-69.75
-80.82
-91.98
-101.41
-106.86
-106.43
-99.05
-85.01
-65.74
-43.42
-20.29
1.82
21.71
38.75
52.50
62.67
69.00
71.49
70.59
67.21
62.51
57.59
53.18
49.50
46.46
43.80
41.51
39.78
38.96
39.23
40.44
42.07
43.34
43.57
42.28
39.42
35.28
30.27
24.82
19.19
13.42
7.35
0.78
-6.47
-14.31
-22.47
-30.48
-37.85
-44.31
-49.88
-54.97
-60.25
-66.58
-74.66
-84.80
-96.62
-108.80
-119.24
-125.40
-124.96
-116.56
-100.31
-77.82
-51.68
-24.82
0.36
22.32
40.43
54.61
65.05
71.92
75.36
75.69
73.47
69.55
64.94
60.56
56.97
54.38
52.68
51.66
51.18
51.22
51.81
52.90
54.19
55.19
55.30
54.05
51.27
47.12
41.99
36.44
30.85
25.40
19.97
14.23
7.82
0.55
-7.48
-15.87
-24.07
-31.61
-38.25
-44.11
-49.60
-55.38
-62.13
-70.41
-80.39
-91.61
-102.76
-111.81
-116.45
-114.76
-105.78
-89.90
-68.73
-44.55
-19.72
3.81
24.71
42.18
55.80
65.37
70.89
72.64
71.20
67.36
62.02
56.11
50.40
45.52
41.89
39.68
38.81
39.00
39.86
40.97
41.93
42.39
42.08
40.85
38.69
35.69
31.98
27.63
22.55
16.61
9.75
2.14
-5.82
-13.60
-20.81
-27.37
-33.53
-39.74
-46.54
-54.39
-63.55
-73.90
-84.74
-94.71
-101.92
-104.32
-100.31
-89.33
-72.06
-50.29
-26.35
-2.61
19.06
37.44
51.94
62.39
69.06
72.33
72.80
71.07
67.70
63.23
58.13
52.86
47.89
43.64
40.41
38.35
37.41
37.36
37.84
38.38
38.45
37.57
35.48
32.19
28.01
23.40
18.70
13.95
8.91
3.13
-3.69
-11.58
-20.14
-28.82
-37.03
-44.47
-51.17
-57.51
-64.11
-71.64
-80.64
-91.17
-102.57
-113.30
-121.12
-123.58
-118.84
-106.22
-86.58
-62.08
-35.58
-9.84
13.06
31.97
46.65
57.39
64.68
69.03
70.87
70.59
68.57
65.23
60.99
56.28
51.52
47.16
43.59
41.12
39.87
39.76
40.44
41.33
41.87
41.55
40.09
37.42
33.75
29.37
24.49
19.19
13.35
6.79
-0.58
-8.59
-16.85
-24.85
-32.20
-38.75
-44.75
-50.78
-57.60
-65.95
-76.24
-88.16
-100.41
-110.80
-116.68
-115.79
-107.04
-90.96
-69.52
-45.44
-21.28
1.12
20.79
37.33
50.56
60.27
66.31
68.75
68.06
65.02
60.57
55.57
50.69
46.32
42.65
39.76
37.64
36.29
35.72
35.88
36.62
37.61
38.37
38.31
36.99
34.15
29.81
24.24
17.75
10.65
3.12
-4.65
-12.47
-20.11
-27.34
-34.13
-40.73
-47.73
-55.81
-65.52
-76.67
-88.17
-97.99
-103.63
-102.91
-94.68
-79.28
-58.47
-34.81
-10.99
10.89
29.57
44.55
55.75
63.28
67.25
67.93
65.75
61.41
55.79
49.77
44.06
39.14
35.22
32.39
30.65
29.95
30.06
30.58
30.87
30.21
28.01
23.95
18.09
10.80
2.66
-5.60
-13.20
-19.47
-23.91
-26.44
-27.39
-27.52
-27.74
-28.90
-31.63
-36.27
-42.94
-51.49
-61.31
-71.21
-79.39
-83.88
-82.98
-75.92
-63.11
-46.03
-26.69
-7.07
11.34
27.58
41.09
51.57
58.83
62.82
63.80
62.28
59.02
54.79
50.29
46.04
42.41
39.69
37.98
37.28
37.35
37.78
38.06
37.75
36.57
34.50
31.61
28.09
24.03
19.42
14.18
8.18
1.34
-6.24
-14.34
-22.56
-30.52
-37.96
-44.89
-51.66
-58.83
-67.10
-76.88
-87.94
-99.18
-108.66
-113.99
-113.05
-104.64
-88.89
-67.28
-42.18
-16.23
8.31
29.77
47.20
60.21
68.80
73.29
74.27
72.59
69.22
65.06
60.78
56.72
52.95
49.45
46.28
43.64
41.87
41.20
41.62
42.78
44.01
44.53
43.70
41.28
37.40
32.57
27.34
22.14
17.07
11.90
6.26
-0.13
-7.32
-15.02
-22.75
-30.07
-36.76
-42.90
-48.72
-54.64
-61.12
-68.65
-77.60
-87.89
-98.74
-108.46
-114.72
-115.16
-108.28
-93.91
-73.41
-49.18
-23.91
0.12
21.37
39.04
52.75
62.38
67.92
69.64
68.15
64.34
59.22
53.76
48.68
44.41
41.20
39.16
38.34
38.69
40.02
41.95
43.91
45.32
45.71
44.84
42.70
39.48
35.40
30.66
25.41
19.63
13.30
6.35
-1.18
-9.14
-17.21
-24.97
-32.07
-38.27
-43.67
-48.67
-53.94
-60.23
-68.14
-77.68
-88.08
-97.69
-104.23
-105.50
-100.01
-87.56
-69.27
-47.19
-23.70
-0.88
19.77
37.33
51.26
61.34
67.53
70.03
69.37
66.31
61.70
56.35
50.88
45.72
41.17
37.39
34.56
32.79
32.16
32.59
33.76
35.15
36.05
35.82
34.11
30.96
26.80
22.24
17.80
13.63
9.49
4.84
-0.86
-7.85
-15.90
-24.37
-32.49
-39.66
-45.73
-51.07
-56.42
-62.66
-70.50
-80.21
-91.35
-102.66
-112.14
-117.44
-116.51
-108.20
-92.70
-71.48
-46.92
-21.65
2.06
22.71
39.53
52.35
61.38
66.98
69.61
69.80
68.14
65.23
61.63
57.75
53.88
50.20
46.82
43.97
41.90
40.91
41.09
42.30
43.98
45.36
45.59
44.08
40.67
35.70
29.86
23.88
18.26
13.05
7.87
2.19
-4.43
-12.05
-20.29
-28.52
-36.10
-42.71
-48.37
-53.56
-58.94
-65.30
-73.24
-82.94
-93.85
-104.53
-112.78
-116.09
-112.48
-101.14
-82.86
-59.73
-34.57
-9.97
12.16
30.88
45.91
57.26
65.01
69.25
70.22
68.48
64.88
60.32
55.56
51.04
46.94
43.39
40.55
38.69
38.03
38.53
39.81
41.19
41.98
41.67
40.10
37.46
34.02
30.10
25.90
21.44
16.65
11.43
5.70
-0.49
-7.04
-13.68
-20.09
-25.95
-31.14
-35.78
-40.36
-45.54
-51.97
-59.85
-68.64
-76.92
-82.59
-83.44
-77.78
-64.91
-45.41
-20.88
6.31
33.42
57.80
77.26
90.43
96.98
97.57
93.54
86.36
77.27
67.11
56.46
45.99
36.52
28.93
23.81
21.17
20.38
20.54
20.80
20.72
20.22
19.42
18.31
16.58
13.70
9.14
2.60
-5.77
-15.43
-25.53
-35.28
-44.06
-51.61
-57.98
-63.52
-68.66
-73.87
-79.69
-86.57
-94.81
-104.21
-113.79
-121.76
-125.85
-123.95
-114.88
-98.89
-77.54
-53.32
-28.75
-5.85
14.21
30.90
44.07
53.69
59.84
62.71
62.76
60.62
57.00
52.55
47.77
43.08
38.82
35.31
32.85
31.55
31.35
31.91
32.64
32.95
32.35
30.69
28.09
24.81
21.07
16.84
11.93
6.07
-0.77
-8.35
-16.23
-23.95
-31.21
-38.01
-44.49
-50.95
-57.76
-65.45
-74.50
-85.07
-96.61
-107.55
-115.53
-118.05
-113.34
-100.99
-82.08
-58.80
-33.68
-8.99
13.63
33.16
49.00
60.85
68.63
72.55
73.15
71.23
67.71
63.40
58.90
54.55
50.49
46.79
43.58
41.01
39.28
38.40
38.23
38.45
38.60
38.31
37.29
35.39
32.62
29.06
24.81
19.92
14.41
8.26
1.50
-5.78
-13.38
-21.04
-28.53
-35.64
-42.34
-48.82
-55.55
-63.15
-72.23
-82.84
-94.08
-104.04
-110.12
-109.94
-102.21
-87.29
-66.98
-43.93
-20.62
1.16
20.48
36.96
50.37
60.43
66.83
69.47
