1706177608.00
64.000000
-0.00
-0.00
-0.00
-0.00
-0.00
-0.00
-0.00
-0.00
-0.00
-0.00
0.00
0.01
0.01
-0.00
-0.03
-0.05
-0.05
0.00
0.13
0.36
0.66
1.01
1.37
1.72
2.06
2.40
2.79
3.24
3.80
4.42
5.06
5.66
6.20
6.68
7.15
7.68
8.31
9.14
10.09
11.04
11.88
12.56
13.14
13.76
14.65
15.96
17.91
20.32
22.90
25.38
27.58
29.57
31.68
34.32
37.81
42.54
48.15
54.10
59.83
64.97
69.58
74.14
79.34
85.71
93.76
103.00
112.62
121.73
129.77
136.75
143.30
150.75
157.77
166.64
177.95
191.79
206.97
220.57
228.25
225.36
208.53
176.87
132.76
80.05
23.07
-34.94
-92.44
-149.16
-205.23
-260.37
-313.74
-363.87
-409.83
-450.91
-486.50
-515.74
-537.23
-549.22
-549.96
-538.37
-514.21
-478.67
-433.88
-382.45
-327.02
-269.84
-212.63
-156.66
-102.95
-52.37
-5.90
35.58
71.43
101.35
125.50
144.38
158.69
169.15
176.37
180.75
182.57
182.07
179.51
175.23
169.65
163.18
156.15
148.81
141.30
133.69
126.02
118.33
110.69
103.16
95.80
88.68
81.83
75.25
68.95
62.95
57.25
51.86
46.78
42.03
37.59
33.45
29.61
26.07
22.81
19.83
17.11
14.67
12.48
10.54
8.83
7.35
6.07
4.97
4.05
3.27
2.62
2.09
1.65
1.30
1.01
0.79
0.61
0.48
0.37
0.29
0.22
0.18
0.14
0.11
0.09
0.08
0.07
0.06
0.05
0.05
0.05
0.05
0.05
0.06
0.08
0.09
0.11
0.14
0.17
0.20
0.24
0.28
0.33
0.38
0.44
0.49
0.56
0.63
0.70
0.77
0.85
0.94
1.03
1.12
1.22
1.32
1.43
1.55
1.68
1.82
1.97
2.15
2.35
2.58
2.83
3.12
3.45
3.82
4.23
4.68
5.19
5.73
6.32
6.95
7.64
8.37
9.15
9.97
10.85
11.78
12.76
13.78
14.86
16.00
17.20
18.48
19.82
21.23
22.67
24.12
25.51
26.79
27.85
28.58
28.89
28.67
27.84
26.35
24.20
21.44
18.08
14.25
10.03
5.51
0.76
-4.13
-9.07
-13.96
-18.69
-23.11
-27.12
-30.60
-33.45
-35.58
-36.88
-37.20
-36.40
-34.36
-30.98
-26.29
-20.49
-13.92
-7.00
-0.19
6.09
11.49
15.80
18.90
20.79
21.29
20.29
17.75
13.80
8.77
3.26
-1.99
-6.20
-8.76
-9.71
-9.36
-8.23
-6.87
-5.57
-4.32
-2.80
-0.53
2.87
6.82
10.55
13.15
13.87
12.47
9.31
5.19
1.13
-2.00
-4.55
-7.23
-11.13
-17.71
-28.61
-45.40
-69.14
-100.26
-132.72
-161.21
-180.49
-186.86
-179.42
-160.39
-134.16
-105.56
-78.29
-54.05
-33.65
-16.96
-3.72
6.12
12.66
16.42
18.42
20.00
22.39
25.74
29.79
33.77
36.80
38.25
37.88
36.05
33.47
31.04
29.20
28.16
27.90
28.15
28.53
28.52
27.50
24.84
20.03
12.92
4.28
-4.00
-9.25
-8.67
-0.33
16.13
39.24
66.08
93.13
117.17
136.09
148.98
155.95
157.69
155.06
148.94
140.06
129.09
116.52
102.75
88.20
73.43
59.36
47.21
38.24
33.19
31.89
32.98
34.31
33.65
29.49
21.53
10.52
-2.24
-15.64
-29.06
-42.32
-55.12
-66.67
-75.67
-80.76
-81.24
-77.46
-70.81
-63.09
-55.78
-49.44
-43.72
-37.84
-31.25
-24.11
-17.29
-12.00
-9.21
-9.19
-11.43
-14.90
-18.48
-21.32
-23.12
-24.02
-24.50
-25.01
-25.90
-27.29
-29.18
-31.49
-34.19
-37.37
-41.16
-45.78
-51.45
-58.29
-66.23
-74.81
-83.10
-89.79
-93.39
-92.64
-86.97
-76.69
-62.89
-47.19
-31.21
-16.25
-3.12
7.84
16.62
23.37
28.25
31.47
33.21
33.65
33.03
31.61
29.68
27.55
25.45
23.49
21.63
19.76
17.76
15.56
13.16
10.59
7.89
5.01
1.93
-1.44
-5.19
-9.43
-14.31
-19.99
-26.64
-34.32
-42.79
-51.34
-58.81
-63.66
-64.49
-60.42
-51.54
-38.90
-24.20
-9.24
4.62
16.68
26.77
35.01
41.44
45.95
48.39
48.72
47.19
44.32
40.83
37.32
34.17
31.49
29.22
27.00
24.46
21.40
17.93
14.38
11.05
8.07
5.27
2.40
-0.99
-5.30
-10.75
-17.32
-24.74
-32.64
-40.33
-46.64
-49.94
-48.93
-42.99
-32.36
-18.01
-1.48
15.12
29.95
42.07
51.96
59.89
66.06
70.57
73.84
76.38
77.69
77.23
74.89
72.23
69.62
67.20
65.31
65.14
68.04
73.25
79.29
84.93
91.23
96.74
98.51
92.64
76.16
47.57
5.36
-49.47
-112.71
-175.79
-233.44
-283.25
-325.09
-358.77
-370.66
-351.68
-303.88
-253.96
-209.96
-173.80
-141.67
-113.44
-89.00
-67.89
-51.41
-40.27
-33.43
-25.89
-15.37
-1.35
15.24
33.69
53.22
71.25
85.37
94.68
101.91
108.59
115.75
123.76
132.99
143.29
152.81
159.71
163.31
165.75
168.73
173.59
180.91
190.70
202.28
213.78
223.12
228.71
230.37
228.04
222.22
213.96
204.99
197.17
191.70
188.98
188.56
189.59
190.64
190.29
187.41
181.47
172.36
160.33
145.95
130.05
113.69
97.99
83.86
71.65
61.08
51.35
41.46
30.70
18.85
6.24
-6.52
-18.88
-30.50
-41.42
-51.86
-62.15
-72.49
-82.91
-93.28
-103.30
-112.54
-120.53
-126.89
-131.36
-133.96
-134.99
-135.00
-134.63
-134.50
-135.05
-136.49
-138.81
-141.86
-145.48
-149.54
-154.08
-159.08
-164.46
-169.88
-174.76
-178.36
-180.05
-179.51
-176.90
-172.77
-167.93
-163.13
-158.84
-155.27
-152.28
-149.63
-147.06
-144.37
-141.47
-138.38
-135.33
-132.70
-131.01
-130.80
-132.33
-135.46
-139.36
-142.68
-143.73
-140.96
-133.43
-121.07
-104.59
-85.20
-64.11
-42.24
-20.24
1.36
21.83
40.13
54.89
64.68
68.34
65.44
56.71
44.13
30.81
20.33
15.77
18.83
29.07
43.96
59.56
71.82
77.87
77.00
70.80
62.66
56.53
55.73
61.78
74.19
90.84
108.97
126.33
141.81
155.63
168.93
183.17
199.49
218.41
239.52
261.58
282.71
300.81
313.99
321.18
322.38
318.65
311.64
302.50
292.05
280.88
269.35
257.60
245.56
233.00
219.58
204.85
187.85
168.06
145.81
122.36
99.22
77.54
57.69
39.18
20.96
0.72
-22.90
-49.40
-76.70
-102.30
-124.22
-141.28
-152.99
-159.33
-163.99
-169.81
-177.14
-183.97
-188.30
-189.34
-187.25
-182.68
-176.34
-175.59
-185.39
-204.89
-228.12
-249.24
-265.25
-275.64
-281.10
-282.53
-291.40
-315.41
-353.29
-396.22
-436.02
-469.27
-496.28
-518.91
-538.88
-571.33
-626.33
-702.33
-787.88
-872.52
-951.87
-1026.34
-1098.35
-1082.95
-939.06
-693.27
-420.12
-180.65
3.68
138.92
240.02
319.90
386.39
428.98
439.59
419.42
384.76
350.29
323.69
307.09
299.37
298.59
292.42
272.93
241.80
209.12
184.50
169.43
162.72
162.06
165.59
165.72
157.78
142.85
126.63
113.63
105.15
100.69
99.08
99.71
99.47
96.86
92.95
90.53
90.97
93.24
95.13
94.18
88.98
78.65
64.27
48.74
35.71
27.53
24.61
26.27
31.17
38.37
47.65
59.23
73.28
89.58
107.25
124.78
140.20
151.23
155.87
153.21
144.14
131.45
119.06
110.71
108.46
112.30
120.43
130.59
141.25
152.19
164.24
178.33
194.47
211.37
226.60
237.41
241.66
238.55
228.84
214.64
198.36
181.90
166.02
150.52
134.87
118.96
103.53
89.78
78.75
70.68
64.81
59.84
54.67
48.87
42.92
37.82
34.56
33.56
34.55
36.60
38.68
39.91
39.85
38.47
35.96
32.55
28.35
23.36
17.56
11.02
3.98
-3.18
-10.00
-16.09
-21.29
-25.65
-29.36
-32.60
-35.41
-37.73
-39.46
-40.70
-41.77
-43.27
-45.77
-49.58
-54.54
-59.96
-64.72
-67.54
-67.28
-63.21
-55.15
-43.49
-28.99
-12.62
4.76
22.44
39.82
56.27
71.10
83.46
92.51
97.57
98.24
94.43
86.21
73.61
56.49
34.59
7.81
-23.44
-57.95
-93.76
-128.35
-159.12
-183.83
-200.89
-209.40
-209.28
-201.21
-186.77
-168.19
-147.95
-128.26
-110.58
-95.56
-83.27
-73.46
-65.71
-59.46
-53.96
-48.44
-42.25
-35.13
-27.19
-18.74
-10.02
-0.97
8.76
19.63
32.18
46.87
63.98
83.51
104.74
125.78
143.57
154.32
154.82
143.70
122.38
94.76
66.14
41.44
23.68
13.53
9.69
10.05
12.69
16.27
19.77
22.14
22.03
18.16
9.88
-2.41
-17.30
-32.92
-47.55
-60.19
-70.61
-79.31
-87.18
-95.05
-103.50
-112.48
-121.29
-128.67
-133.12
-133.36
-128.65
-119.06
-105.29
-88.49
-69.85
-50.41
-31.00
-12.29
5.07
20.41
33.16
42.98
49.82
54.03
56.18
56.97
57.04
56.82
56.55
56.31
56.05
55.66
55.02
54.01
52.46
50.23
47.24
43.40
38.72
33.23
26.96
19.97
12.31
4.00
-4.91
-14.17
-23.21
-31.16
-36.90
-39.39
-37.95
-32.49
-23.45
-11.76
1.51
15.30
28.67
40.80
50.97
58.63
63.43
65.40
64.87
62.46
58.93
55.02
51.33
48.27
46.04
44.67
44.03
43.84
43.72
43.27
42.09
39.89
36.50
31.94
26.44
20.34
14.11
8.08
2.44
-2.93
-8.42
-14.52
-21.77
-30.41
-40.26
-50.57
-60.04
-67.10
-70.24
-68.46
-61.60
-50.45
-36.45
-21.33
-6.58
6.82
18.44
28.14
35.88
41.54
44.95
46.11
45.32
43.16
40.40
37.66
35.32
33.39
31.68
29.89
27.83
25.50
22.93
20.25
17.51
14.69
11.67
8.29
4.38
-0.24
-5.78
-12.41
-20.28
-29.36
-39.24
-49.04
-57.45
-62.96
-64.38
-61.09
-53.34
-42.07
-28.61
-14.31
-0.27
12.74
24.20
33.75
41.10
46.09
48.78
49.44
48.57
46.78
44.69
42.75
41.18
39.94
38.86
37.75
36.48
35.09
33.69
32.31
30.88
29.13
26.71
23.33
18.90
13.61
7.82
1.91
-3.86
-9.47
-15.08
-20.94
-27.26
-34.26
-42.05
-50.65
-59.83
-68.92
-76.80
-82.04
-83.29
-79.71
-71.35
-59.10
-44.44
-29.03
-14.24
-0.99
10.27
19.39
26.40
31.35
34.34
35.59
35.39
34.17
32.37
30.41
28.53
26.80
25.14
23.46
21.71
19.89
18.00
16.01
13.80
11.20
8.07
4.34
0.05
-4.68
-9.77
-15.24
-21.25
-27.98
-35.47
-43.36
-50.78
-56.48
-59.10
-57.66
-51.87
-42.32
-30.23
-17.12
-4.26
7.47
17.64
26.08
32.66
37.26
39.79
40.39
39.45
37.58
35.40
33.41
31.82
30.65
29.78
29.06
28.39
27.71
26.96
26.05
24.86
23.32
21.35
18.90
15.91
12.35
8.20
3.51
-1.63
-7.07
-12.63
-18.14
-23.50
-28.64
-33.57
-38.41
-43.41
-48.90
-55.17
-62.33
-70.05
-77.45
-83.24
-85.97
-84.54
-78.55
-68.43
-55.34
-40.80
-26.26
-12.77
-0.89
9.21
17.56
24.20
29.12
32.33
33.93
34.21
33.59
32.59
31.62
30.92
30.57
30.45
30.43
30.39
30.22
29.88
29.31
28.42
27.15
25.44
23.28
20.66
17.59
13.99
9.83
5.07
-0.24
-5.92
-11.73
-17.39
-22.71
-27.66
-32.35
-37.11
-42.31
-48.26
-54.96
-61.97
-68.43
-73.11
-74.82
-72.70
-66.54
-56.84
-44.70
-31.42
-18.27
-6.18
4.30
12.92
19.64
24.57
27.86
29.77
30.63
30.75
30.45
29.98
29.51
29.05
28.60
28.05
27.34
26.43
25.32
24.07
22.76
21.35
19.74
17.71
15.00
11.44
7.02
1.97
-3.38
-8.65
-13.61
-18.17
-22.46
-26.76
-31.44
-36.83
-43.11
-50.12
-57.24
-63.48
-67.58
-68.40
-65.30
-58.33
-48.28
-36.37
-23.91
-12.00
-1.33
7.78
15.20
20.91
24.90
27.24
28.12
27.91
27.11
26.20
25.50
25.08
24.81
24.44
23.78
22.85
21.87
21.08
20.63
20.45
20.20
19.45
17.79
15.06
11.36
7.05
2.56
-1.72
-5.55
-8.93
-12.10
-15.43
-19.36
-24.31
-30.35
-37.19
-44.01
-49.63
-52.76
-52.40
-48.16
-40.41
-30.14
-18.70
-7.37
2.92
11.62
18.52
23.62
26.95
28.65
28.91
28.02
26.32
24.09
21.56
18.88
16.20
13.66
11.48
9.82
8.72
7.99
7.27
6.17
4.40
1.88
-1.25
-4.74
-8.33
-11.88
-15.39
-19.03
-23.06
-27.77
-33.32
-39.62
-46.13
-51.95
-55.88
-56.85
-54.22
-48.08
-39.20
-28.75
-17.97
-7.83
1.07
8.39
13.92
17.55
19.25
19.22
17.87
15.79
13.59
11.77
10.56
9.90
9.52
9.06
8.22
6.85
5.05
3.05
1.12
-0.60
-2.19
-3.90
-6.07
-9.05
-13.16
-18.63
-25.50
-33.37
-41.29
-47.88
-51.69
-51.78
-48.14
-41.71
-34.01
-26.50
-20.06
-14.89
-10.78
-7.48
-4.86
-2.75
-0.78
1.80
5.78
11.58
18.89
26.84
34.39
40.93
46.59
52.08
58.23
65.34
72.81
79.11
82.13
79.71
70.29
53.52
30.61
4.41
-21.15
-42.04
-55.29
-59.89
-56.99
-49.38
-40.46
-33.14
-29.14
-28.86
-31.73
-36.66
-42.47
-48.00
-52.12
-53.85
-52.44
-47.71
-40.11
-30.47
-19.45
-7.22
6.54
21.89
37.88
52.29
62.23
65.55
61.99
53.62
43.93
36.27
32.42
32.16
33.91
35.90
36.98
36.76
35.05
31.39
25.03
15.49
3.17
-10.68
-24.67
-38.28
-52.33
-68.31
-86.98
-107.12
-125.25
-136.88
-138.25
-127.89
-106.95
-78.27
-45.04
-9.90
25.13
58.23
87.31
110.33
125.89
133.83
135.21
131.64
124.56
114.82
102.94
89.69
76.47
65.20
57.70
54.86
56.10
59.41
62.10
61.78
57.22
48.66
37.62
26.08
15.84
7.89
2.35
-1.33
-4.06
-6.80
-10.37
-15.43
-22.32
-30.94
-40.66
-50.27
-58.13
-62.61
-62.52
-57.59
-48.62
-37.31
-25.72
-15.69
-8.30
-3.73
-1.44
-0.57
-0.40
-0.55
-1.04
-2.01
-3.57
-5.57
-7.70
-9.54
-10.78
-11.34
-11.31
-10.97
-10.60
-10.41
-10.50
-10.84
-11.40
-12.18
-13.29
-14.87
-17.15
-20.27
-24.31
-29.15
-34.39
-39.34
-43.06
-44.67
-43.54
-39.54
-33.09
-25.00
-16.21
-7.55
0.35
7.07
12.30
15.80
17.44
17.26
15.48
12.51
8.83
4.86
0.87
-2.98
-6.64
-10.11
-13.35
-16.35
-19.05
-21.42
-23.42
-25.15
-26.80
-28.68
-31.13
-34.45
-38.78
-44.07
-50.14
-56.65
-63.12
-68.90
-73.16
-75.00
-73.63
-68.59
-59.96
-48.37
-34.84
-20.58
-6.66
6.18
17.53
27.26
35.41
42.18
47.95
53.32
59.06
65.92
74.33
84.13
94.51
104.17
111.74
116.25
117.43
115.76
112.17
107.62
102.67
97.22
90.67
82.24
71.44
58.35
43.57
28.04
12.69
-1.70
-14.40
-24.63
-31.40
-33.71
-30.88
-22.92
-10.70
4.34
20.58
36.74
51.92
65.62
77.42
86.75
93.01
95.72
94.75
90.47
83.66
75.32
66.41
57.78
50.08
43.74
38.89
35.21
31.89
27.80
21.85
13.41
2.63
-9.66
-22.22
-33.97
-44.29
-53.12
-60.78
-67.67
-74.13
-80.31
-86.22
-91.67
-96.20
-99.07
-99.42
-96.59
-90.37
-81.23
-70.17
-58.43
-47.09
-36.85
-28.00
-20.52
-14.33
-9.33
-5.45
-2.62
-0.73
0.41
1.02
1.34
1.58
1.88
2.29
2.75
3.19
3.54
3.75
3.78
3.51
2.80
1.47
-0.55
-3.16
-6.16
-9.28
-12.41
-15.66
-19.33
-23.78
-29.14
-35.10
-40.92
-45.57
-47.99
-47.51
-43.98
-37.88
-30.13
-21.80
-13.81
-6.70
-0.68
4.29
8.26
11.21
13.06
13.78
13.40
12.13
10.25
8.04
5.67
3.30
1.02
-1.02
-2.67
-3.84
-4.54
-4.96
-5.38
-6.07
-7.19
-8.70
-10.40
-12.01
-13.38
-14.57
-15.83
-17.49
-19.69
-22.21
-24.44
-25.51
-24.64
-21.42
-15.98
-9.00
-1.40
5.90
12.26
17.42
21.37
24.20
25.95
26.55
25.94
24.20
21.61
18.64
15.78
13.32
11.30
9.54
7.79
5.89
3.85
1.82
-0.03
-1.64
-3.02
-4.31
-5.64
-7.11
-8.79
-10.75
-13.13
-16.05
-19.61
-23.78
-28.28
-32.60
-36.03
-37.89
-37.72
-35.46
-31.50
-26.52
-21.27
-16.30
-11.92
-8.13
-4.88
-2.15
-0.07
1.23
1.75
1.70
1.49
1.65
2.53
4.27
6.70
9.43
12.00
14.02
15.30
15.83
15.82
15.49
15.03
14.45
13.60
12.25
10.20
7.31
3.61
-0.77
-5.49
-10.15
-14.15
-16.83
-17.61
-16.15
-12.52
-7.20
-0.94
5.45
11.33
16.35
20.39
23.47
25.64
26.89
27.14
26.33
24.53
21.91
18.80
15.57
12.53
9.84
7.52
5.48
3.63
1.87
0.18
-1.43
-3.01
-4.68
-6.57
-8.80
-11.40
-14.29
-17.34
-20.40
-23.40
-26.38
-29.39
-32.39
-35.18
-37.30
-38.21
-37.42
-34.69
-30.14
-24.17
-17.34
-10.23
-3.28
3.20
9.02
14.01
18.10
21.24
23.46
24.89
25.71
26.11
26.26
26.21
25.93
25.36
24.42
23.09
21.45
19.62
17.70
15.71
13.52
10.95
7.85
4.19
0.17
-3.95
-7.87
-11.54
-15.11
-18.91
-23.16
-27.76
-32.21
-35.69
-37.36
-36.65
-33.45
-28.12
-21.34
-13.88
-6.40
0.59
6.76
11.92
15.99
18.98
20.99
22.16
22.66
22.66
22.29
21.64
20.82
19.87
18.89
17.93
17.01
16.15
15.32
14.47
13.55
12.51
11.33
10.01
8.54
6.87
4.90
2.45
-0.65
-4.42
-8.58
-12.56
-15.59
-16.97
-16.28
-13.62
-9.44
-4.42
0.80
5.79
10.28
14.09
17.04
18.87
19.42
18.67
16.78
14.07
10.86
7.44
4.01
0.69
-2.38
-5.07
-7.22
-8.79
-9.82
-10.51
-11.11
-11.86
-12.90
-14.19
-15.62
-17.05
-18.41
-19.76
-21.30
-23.26
-25.87
-29.24
-33.33
-37.90
-42.51
-46.55
-49.37
-50.43
-49.39
-46.23
-41.19
-34.66
-27.14
-19.10
-11.03
-3.37
3.47
9.23
13.78
17.13
19.41
20.75
21.31
21.20
20.53
19.43
18.09
16.68
15.41
14.40
13.66
13.07
12.42
11.54
10.37
8.94
7.36
5.70
3.89
1.75
-0.97
-4.50
-8.91
-14.06
-19.52
-24.57
-28.35
-29.94
-28.68
-24.32
-17.11
-7.71
2.99
14.16
25.06
35.14
44.02
51.46
57.32
61.58
64.28
65.45
65.14
63.36
60.14
55.53
49.66
42.73
35.12
27.36
20.10
13.88
8.89
4.82
0.93
-3.54
-8.98
-15.11
-21.13
-26.12
-29.64
-32.05
-34.49
-38.47
-45.33
-55.84
-69.91
-86.40
-103.10
-116.67
-123.06
-118.56
-101.24
-72.24
-36.02
0.76
31.41
51.51
60.19
59.83
54.38
47.47
41.09
35.60
30.57
25.80
21.72
19.09
18.34
19.02
19.97
19.83
17.79
14.00
9.42
5.36
2.76
1.80
1.78
1.53
0.01
-3.30
-8.20
-14.00
-19.82
-25.01
-29.22
-32.35
-34.38
-35.24
-34.74
-32.69
-29.02
-23.79
-17.29
-9.90
-2.07
5.72
13.01
19.36
24.36
27.72
29.41
29.64
28.82
27.52
26.17
25.01
24.05
23.12
22.06
20.84
19.52
18.24
17.02
15.82
14.55
13.11
11.49
9.73
7.93
6.17
4.49
2.94
1.49
0.09
-1.40
-3.18
-5.55
-8.79
-13.04
-18.18
-23.75
-28.98
-32.97
-34.87
-34.18
-30.84
-25.15
-17.72
-9.17
-0.08
8.96
17.35
24.44
29.67
32.76
33.83
33.31
31.85
30.02
28.18
26.46
24.81
23.12
21.31
19.43
17.57
15.92
14.63
13.70
12.94
11.97
10.34
7.78
4.24
-0.01
-4.58
-9.10
-13.36
-17.41
-21.44
-25.64
-30.15
-34.88
-39.56
-43.66
-46.54
-47.52
-46.08
-42.06
-35.70
-27.62
-18.65
-9.70
-1.43
5.74
11.72
16.59
20.50
23.58
25.80
27.08
27.37
26.74
25.40
23.69
21.91
20.20
18.54
16.78
14.77
12.46
9.99
7.54
5.30
3.27
1.32
-0.83
-3.47
-6.79
-10.90
-15.67
-20.79
-25.71
-29.70
-32.02
-32.09
-29.64
-24.90
-18.44
-11.08
-3.62
3.31
9.33
14.31
18.21
21.09
23.06
24.26
24.88
25.06
24.92
24.47
23.70
22.60
21.24
19.76
18.32
17.08
16.04
15.11
14.10
12.84
11.17
9.07
6.54
3.70
0.64
-2.56
-5.88
-9.37
-13.09
-17.10
-21.35
-25.70
-29.84
-33.36
-35.78
-36.63
-35.57
-32.50
-27.65
-21.61
-15.15
-9.03
-3.76
0.47
3.77
6.35
8.36
9.85
10.76
11.17
11.24
11.22
11.19
10.99
10.26
8.66
6.21
3.37
0.91
-0.54
-0.80
-0.27
0.28
0.21
-0.69
-2.13
-3.59
-4.75
-5.71
-7.09
-9.65
-13.95
-19.94
-26.91
-33.62
-38.75
-41.29
-40.85
-37.61
-32.17
-25.17
-17.15
-8.52
0.30
8.74
16.05
21.52
24.78
25.92
25.49
24.17
22.52
20.73
18.74
16.41
13.71
10.87
8.24
6.16
4.72
3.77
2.91
1.73
-0.12
-2.72
-5.92
-9.43
-12.92
-16.23
-19.40
-22.67
-26.38
-30.84
-36.10
-41.96
-47.96
-53.43
-57.62
-59.81
-59.41
-56.10
-49.93
-41.32
-31.03
-19.96
-8.88
1.63
11.31
20.05
27.80
34.46
39.90
44.04
46.95
48.90
50.27
51.42
52.54
53.56
54.26
54.37
53.77
52.66
51.32
50.02
48.75
47.22
44.95
41.54
36.85
31.08
24.63
17.99
11.59
5.76
0.76
-3.32
-6.55
-9.23
-11.86
-14.92
-18.69
-22.97
-27.15
-30.28
-31.48
-30.21
-26.46
-20.74
-13.91
-6.87
-0.30
5.38
10.05
13.66
16.20
17.61
17.84
17.00
15.34
13.28
11.24
9.54
8.26
7.29
6.37
5.23
3.75
1.96
0.10
-1.53
-2.70
-3.33
-3.56
-3.69
-4.06
-4.96
-6.56
-8.86
-11.72
-14.90
-18.01
-20.57
-22.08
-22.01
-20.00
-15.97
-10.11
-2.94
4.94
12.89
20.38
27.05
32.59
36.81
39.49
40.61
40.32
38.97
37.12
35.25
33.62
32.20
30.71
28.82
26.35
23.36
20.08
16.76
13.56
10.51
7.52
4.51
1.47
-1.59
-4.68
-7.91
-11.41
-15.25
-19.30
-23.14
-26.14
-27.63
-27.13
-24.52
-20.02
-14.11
-7.43
-0.59
5.80
11.25
15.45
18.30
19.91
20.57
20.54
19.92
18.67
16.69
13.98
10.80
7.58
4.79
2.77
1.52
0.85
0.45
0.10
-0.29
-0.55
-0.33
0.79
3.09
6.55
10.70
14.69
17.47
18.29
17.29
15.76
16.10
21.22
33.60
54.43
83.03
116.86
151.94
183.81
208.50
223.49
228.18
223.92
213.33
199.39
184.55
170.15
156.52
143.24
129.73
115.45
100.06
83.39
65.52
46.85
28.05
9.80
-7.61
-24.53
-41.71
-59.83
-78.80
-97.51
-114.09
-126.73
-134.48
-137.81
-138.51
-139.17
-142.36
-150.02
-163.12
-181.62
-204.69
-230.78
-257.65
-282.39
-301.69
-312.33
-312.14
-300.69
-279.46
-251.42
-219.81
-186.97
-153.69
-119.57
-84.14
-48.05
-13.64
15.73
36.98
48.68
51.66
48.57
42.56
36.06
30.02
24.12
17.53
9.78
1.25
-7.00
-13.75
-18.16
-20.00
-19.60
-17.50
-14.19
-9.89
-4.72
1.22
7.64
13.98
19.49
23.47
25.47
25.49
23.95
21.52
18.88
16.57
14.80
13.56
12.64
11.78
10.72
9.23
7.16
4.43
1.08
-2.76
-6.89
-11.09
-15.19
-19.09
-22.75
-26.20
-29.52
-32.84
-36.33
-40.05
-43.89
-47.47
-50.12
-51.06
-49.60
-45.32
-38.22
-28.77
-17.75
-6.12
5.19
15.40
24.01
30.82
35.80
39.13
41.06
41.88
41.86
41.23
40.20
38.90
37.45
35.87
34.14
32.23
30.13
27.85
25.47
23.07
20.67
18.25
15.71
12.93
9.89
6.66
3.39
0.24
-2.73
-5.65
-8.78
-12.36
-16.50
-21.03
-25.55
-29.40
-31.84
-32.23
-30.16
-25.61
-18.99
-11.03
-2.64
5.36
12.45
18.45
23.46
27.73
31.48
34.83
37.85
40.58
43.01
45.16
46.99
48.37
49.19
49.42
49.07
48.26
47.09
45.68
44.04
42.23
40.30
38.34
36.48
34.82
33.34
31.94
30.36
28.21
25.14
20.81
15.00
7.72
-0.72
-9.61
-17.94
-24.64
-28.83
-30.17
-28.89
-25.64
-21.22
-16.30
-11.22
-6.12
-1.10
3.68
7.92
11.32
13.79
15.48
16.78
18.13
19.83
21.88
24.01
25.83
27.05
27.61
27.65
27.42
27.07
26.59
25.80
24.52
22.78
20.83
19.10
17.90
17.30
17.05
16.73
15.95
14.51
12.50
10.11
7.53
4.77
1.69
-1.85
-5.77
-9.65
-12.71
-14.09
-13.31
-10.45
-6.23
-1.74
2.15
5.19
7.85
11.08
15.86
22.73
31.80
42.69
54.84
67.45
79.50
89.70
96.56
98.78
95.61
87.19
74.46
58.85
41.91
24.98
8.99
-5.47
-18.10
-28.84
-37.83
-45.29
-51.53
-56.76
-61.13
-64.69
-67.48
-69.58
-71.21
-72.71
-74.48
-76.85
-79.98
-83.70
-87.52
-90.73
-92.44
-91.92
-88.67
-82.64
-74.24
-64.20
-53.48
-42.96
-33.30
-24.81
-17.49
-11.16
-5.65
-0.88
3.13
6.37
8.93
11.07
13.12
15.39
18.19
21.72
26.13
31.40
37.33
43.42
49.06
53.82
57.65
61.13
65.19
70.79
78.53
88.46
99.93
111.81
122.61
130.73
134.68
133.40
126.55
114.74
99.53
83.00
67.31
54.09
44.14
37.43
33.27
30.69
28.71
26.67
24.21
21.21
17.49
12.44
4.92
-6.59
-23.44
-46.15
-73.92
-104.72
-135.89
-164.92
-190.10
-210.43
-225.16
-233.38
-233.97
-226.11
-210.00
-187.08
-159.65
-129.88
-99.11
-67.91
-36.86
-7.49
17.44
34.67
41.83
38.71
27.59
12.39
-2.75
-14.83
-22.56
-26.06
-26.15
-23.66
-19.18
-13.12
-6.06
1.27
7.98
13.33
16.94
18.88
19.63
19.82
19.98
20.33
20.70
20.68
19.89
18.18
15.84
13.42
11.54
10.50
10.18
10.07
9.60
8.41
6.54
4.37
2.39
0.92
0.01
-0.52
-1.01
-1.78
-3.06
-5.06
-7.91
-11.68
-16.33
-21.59
-26.91
-31.49
-34.43
-34.93
-32.55
-27.36
-20.02
-11.51
-2.86
5.14
12.12
18.08
23.19
27.57
31.23
34.06
36.02
37.16
37.63
37.60
37.13
36.15
34.55
32.32
29.60
26.71
24.03
21.82
20.12
18.72
17.24
15.27
12.55
9.06
5.05
0.91
-3.01
-6.54
-9.81
-13.15
-17.04
-21.79
-27.45
-33.55
-39.24
-43.43
-45.12
-43.76
-39.40
-32.73
-24.83
-16.78
-9.44
-3.31
1.52
5.18
7.96
10.24
12.31
14.42
16.56
18.56
20.08
20.81
20.62
19.55
17.83
15.68
13.26
10.59
7.63
4.31
0.68
-3.17
-7.07
-10.83
-14.29
-17.31
-19.88
-22.07
-24.03
-25.99
-28.14
-30.57
-33.19
-35.62
-37.29
-37.48
-35.56
-31.17
-24.34
-15.49
-5.32
5.38
15.86
25.49
33.83
40.64
45.84
49.52
51.99
53.54
54.46
54.88
54.79
54.03
52.50
50.23
47.40
44.37
41.50
39.00
36.86
34.87
32.69
30.02
26.69
22.68
18.10
13.11
7.91
2.67
-2.42
-7.28
-11.98
-16.77
-21.98
-27.76
-33.94
-39.85
-44.49
-46.84
-46.22
-42.57
-36.45
-28.72
-20.30
-11.81
-3.57
4.32
11.72
18.33
23.78
27.64
29.75
30.28
29.70
28.65
27.64
26.96
26.56
26.19
25.56
24.54
23.20
21.82
20.80
20.45
20.87
21.93
23.33
24.80
26.19
27.58
29.19
31.31
34.28
38.43
44.10
51.58
60.98
71.94
83.42
93.84
101.37
104.61
103.17
98.00
91.14
85.11
81.99
82.68
86.65
92.17
97.05
99.45
98.52
94.40
88.04
80.65
73.24
66.45
60.40
54.88
49.39
43.26
35.76
26.25
14.37
0.14
-16.03
-33.56
-51.92
-70.93
-90.80
-111.99
-134.72
-158.46
-181.65
-201.76
-216.03
-222.51
-221.05
-213.49
-202.93
-192.26
-182.69
-173.07
-160.48
-142.06
-116.78
-86.55
-55.70
-29.17
-10.43
-0.13
3.69
4.28
4.42
5.36
6.84
8.03
8.52
8.80
9.98
12.87
17.44
22.54
26.55
28.12
26.86
23.46
19.37
16.17
14.87
15.64
17.73
19.94
21.08
20.42
18.02
14.51
10.84
7.80
5.70
4.33
3.07
1.28
-1.44
-5.03
-9.11
-13.20
-16.99
-20.37
-23.44
-26.17
-28.31
-29.39
-28.93
-26.67
-22.77
-17.73
-12.16
-6.59
-1.27
3.73
8.33
12.34
15.47
17.45
18.20
17.93
17.07
16.10
15.32
14.81
14.46
14.09
13.56
12.89
12.18
11.57
11.11
10.73
10.26
9.51
8.33
6.67
4.59
2.17
-0.50
-3.41
-6.58
-10.09
-13.97
-18.19
-22.59
-26.82
-30.40
-32.80
-33.61
-32.62
-29.87
-25.65
-20.31
-14.27
-7.91
-1.62
4.26
9.42
13.64
16.87
19.14
20.61
21.45
21.80
21.79
21.55
21.20
20.84
20.52
20.23
19.91
19.45
18.77
17.72
16.16
13.98
11.20
7.99
4.66
1.47
-1.39
-4.01
-6.56
-9.25
-12.18
-15.30
-18.53
-21.84
-25.21
-28.64
-31.94
-34.69
-36.28
-36.08
-33.69
-29.13
-22.85
-15.57
-8.06
-0.94
5.46
11.08
15.98
20.19
23.63
26.16
27.70
28.30
28.20
27.77
27.33
27.05
26.92
26.81
26.54
26.00
25.23
24.32
23.39
22.48
21.53
20.42
18.97
17.15
15.03
12.75
10.47
8.25
6.03
3.65
0.97
-2.07
-5.40
-8.84
-12.22
-15.48
-18.65
-21.86
-25.19
-28.53
-31.53
-33.63
-34.29
-33.10
-30.01
-25.28
-19.40
-12.93
-6.33
0.05
5.98
11.24
15.66
19.16
21.73
23.44
24.45
24.91
24.93
24.61
24.02
23.24
22.38
21.54
20.75
19.99
19.15
18.12
16.85
15.36
13.69
11.92
10.11
8.29
6.44
4.53
2.53
0.39
-1.90
-4.36
-6.97
-9.73
-12.70
-15.96
-19.60
-23.62
-27.77
-31.53
-34.23
-35.27
-34.28
-31.31
-26.72
-21.09
-14.97
-8.85
-3.03
2.29
6.99
10.96
14.17
16.64
18.48
19.79
20.66
21.12
21.15
20.74
19.92
18.81
17.56
16.25
14.95
13.65
12.31
10.97
9.64
8.29
6.84
5.13
3.00
0.40
-2.59
-5.81
-9.10
-12.42
-15.81
-19.33
-22.94
-26.40
-29.32
-31.26
-31.87
-30.97
-28.63
-25.00
-20.29
-14.76
-8.72
-2.54
3.34
8.54
12.76
15.90
18.05
19.43
20.24
20.67
20.85
20.80
20.57
20.17
19.63
18.96
18.17
17.21
16.06
14.67
13.02
11.16
9.13
6.99
4.76
2.42
-0.05
-2.67
-5.48
-8.51
-11.85
-15.57
-19.67
-23.96
-28.07
-31.47
-33.60
-34.09
-32.77
-29.79
-25.41
-19.99
-13.90
-7.51
-1.17
4.72
9.82
13.92
17.02
19.27
20.94
22.23
23.14
23.51
23.16
22.05
20.44
18.83
17.77
17.59
18.24
19.20
19.73
19.16
17.19
14.05
10.46
7.34
5.45
5.03
5.72
6.60
6.56
4.75
0.94
-4.34
-9.91
-14.21
-15.83
-13.96
-8.75
-1.41
6.09
11.82
14.80
15.69
16.88
21.75
33.36
52.92
78.95
107.39
132.79
150.25
157.02
153.18
141.13
124.19
105.01
84.65
62.66
37.59
7.86
-27.49
-68.35
-113.13
-158.77
-201.08
-235.65
-258.99
-269.72
-268.69
-258.25
-240.86
-217.89
-189.63
-156.23
-119.24
-82.29
-50.50
-28.62
-19.01
-20.70
-29.81
-41.33
-51.00
-56.52
-57.63
-55.15
-49.92
-42.23
-32.08
-19.68
-6.02
7.13
17.84
24.71
27.45
26.93
24.82
22.90
22.41
23.65
26.00
28.29
29.32
28.36
25.38
20.94
15.83
10.76
6.05
1.73
-2.39
-6.51
-10.78
-15.27
-20.13
-25.60
-31.94
-39.36
-47.84
-57.08
-66.63
-75.92
-84.31
-90.95
-94.71
-94.21
-88.26
-76.28
-58.66
-36.58
-11.61
14.84
41.71
68.00
92.27
112.36
125.86
130.91
127.23
116.64
102.74
89.94
82.25
82.19
90.26
104.95
123.16
140.84
153.82
158.65
153.31
137.79
114.05
85.55
56.21
29.28
6.61
-11.52
-25.73
-36.77
-44.85
-49.60
-50.58
-47.85
-42.23
-34.98
-27.20
-19.39
-11.36
-2.83
6.20
15.15
23.09
29.20
33.18
35.25
36.02
36.06
35.69
34.90
33.59
31.72
29.42
27.05
24.98
23.49
22.61
22.09
21.53
20.45
18.48
15.42
11.34
6.51
1.26
-4.07
-9.33
-14.59
-20.10
-26.18
-32.95
-40.19
-47.20
-52.89
-56.13
-56.05
-52.39
-45.52
-36.38
-26.03
-15.44
-5.23
4.27
12.87
20.39
26.55
31.13
33.96
35.12
34.87
33.63
31.84
29.89
28.04
26.39
24.92
23.51
22.03
20.36
18.46
16.31
13.92
11.26
8.30
4.94
1.05
-3.56
-9.12
-15.83
-23.64
-32.13
-40.49
-47.59
-52.26
-53.58
-51.14
-45.10
-36.15
-25.33
-13.82
-2.71
7.21
15.50
22.09
27.12
30.83
33.34
34.67
34.78
33.72
31.68
29.08
26.32
23.70
21.33
19.13
16.96
14.72
12.40
10.03
7.64
5.14
2.35
-1.00
-5.22
-10.51
-16.92
-24.26
-32.04
-39.50
-45.70
-49.66
-50.64
-48.27
-42.65
-34.33
-24.09
-12.86
-1.53
9.16
18.65
26.62
32.93
37.58
40.63
42.22
42.49
41.67
40.03
37.89
35.56
33.25
31.10
29.10
27.21
25.31
23.31
21.03
18.34
15.08
11.19
6.72
1.82
-3.29
-8.41
-13.50
-18.70
-24.32
-30.61
-37.60
-44.82
-51.28
-55.66
-56.68
-53.54
-46.23
-35.60
-23.04
-10.12
1.86
12.16
20.61
27.39
32.83
37.06
39.95
41.18
40.46
37.77
33.49
28.34
23.15
18.60
14.99
12.15
9.58
6.55
2.22
-4.23
-13.46
-25.61
-39.87
-54.31
-66.17
-72.86
-73.06
-67.52
-58.92
-50.70
-45.64
-44.55
-46.26
-48.26
-48.05
-44.09
-36.10
-24.60
-10.35
6.00
23.90
42.58
60.79
76.96
89.43
97.09
99.64
97.76
92.81
86.44
80.12
74.76
70.62
67.41
64.54
61.46
57.89
53.82
49.41
44.86
40.15
35.18
29.70
23.56
16.72
9.32
1.54
-6.46
-14.64
-22.96
-31.24
-38.98
-45.38
-49.50
-50.50
-48.00
-42.19
-33.83
-24.00
-13.77
-3.99
4.81
12.38
18.57
23.25
26.31
27.67
27.48
26.07
23.88
21.41
19.03
16.90
15.00
13.20
11.33
9.34
7.24
5.12
3.05
1.04
-1.01
-3.28
-6.01
-9.47
-13.90
-19.43
-25.98
-33.11
-40.03
-45.65
-48.85
-48.75
-45.07
-38.19
-28.98
-18.56
-8.00
1.95
10.75
18.07
23.66
27.32
29.00
28.78
26.95
23.88
20.04
15.85
11.71
7.95
4.73
2.04
-0.33
-2.62
-5.01
-7.48
-9.88
-12.04
-13.94
-15.78
-17.89
-20.62
-24.26
-28.92
-34.55
-40.86
-47.23
-52.72
-56.17
-56.64
-53.70
-47.68
-39.59
-30.66
-21.95
-13.98
-6.77
-0.18
5.81
10.86
14.36
15.78
15.02
12.50
9.15
5.99
3.75
2.71
2.64
3.07
3.55
3.90
4.17
4.50
4.92
5.16
4.73
3.10
-0.08
-4.87
-10.96
-17.78
-24.54
-30.34
-34.29
-35.70
-34.21
-29.89
-23.29
-15.21
-6.43
2.39
10.81
18.49
25.05
30.03
32.99
33.72
32.40
29.62
26.21
23.00
20.57
19.15
18.58
18.48
18.33
17.77
16.59
14.77
12.45
9.74
6.70
3.28
-0.68
-5.35
-10.86
-17.28
-24.55
-32.40
-40.29
-47.36
-52.57
-54.89
-53.63
-48.66
-40.43
-29.84
-18.00
-5.91
5.58
15.85
24.38
30.81
34.90
36.67
36.44
34.78
32.30
29.57
26.85
24.23
21.64
19.04
16.51
14.25
12.44
11.16
10.28
9.48
8.36
6.53
3.73
-0.20
-5.26
-11.32
-18.07
-24.94
-31.12
-35.65
-37.69
-36.70
-32.68
-26.09
-17.69
-8.34
1.20
10.29
18.37
24.93
29.57
32.06
32.53
31.41
29.31
26.82
24.34
22.00
19.80
17.63
15.46
13.30
11.18
9.09
6.94
4.61
2.00
-0.97
-4.31
-8.10
-12.44
-17.46
-23.21
-29.52
-35.86
-41.33
-44.93
-45.82
-43.59
-38.39
-30.86
-21.84
-12.19
-2.62
6.31
14.06
20.17
24.25
26.13
25.99
24.36
21.93
19.37
17.15
15.40
14.02
12.72
11.24
9.43
7.30
5.00
2.72
0.53
-1.60
-3.83
-6.39
-9.53
-13.43
-18.23
-23.89
-30.05
-36.01
-40.80
-43.42
-43.07
-39.53
-33.10
-24.56
-14.88
-5.00
4.42
12.94
20.27
26.17
30.41
32.84
33.51
32.70
30.95
28.86
26.94
25.38
24.09
22.70
20.85
18.36
15.33
12.14
9.17
6.65
4.50
2.36
-0.21
-3.65
-8.17
-13.78
-20.22
-27.04
-33.59
-39.08
-42.66
-43.63
-41.61
-36.68
-29.34
-20.42
-10.82
-1.39
7.18
14.39
19.92
23.65
25.65
26.16
25.53
24.18
22.49
20.73
19.04
17.47
15.93
14.27
12.39
10.24
7.90
5.51
3.19
0.95
-1.34
-3.96
-7.19
-11.27
-16.26
-22.05
-28.32
-34.55
-39.99
-43.88
-45.48
-44.36
-40.44
-34.07
-25.91
-16.79
-7.50
1.28
9.11
15.70
20.93
24.78
27.29
28.55
28.71
27.95
26.51
24.65
22.65
20.71
18.96
17.40
15.95
14.49
12.87
10.98
8.75
6.18
3.31
0.19
-3.17
-6.78
-10.70
-15.05
-19.95
-25.42
-31.35
-37.33
-42.71
-46.64
-48.22
-46.81
-42.22
-34.84
-25.52
-15.39
-5.51
3.32
10.67
16.48
20.88
24.05
26.14
27.23
27.43
26.92
25.97
24.81
23.65
22.53
21.45
20.39
19.35
18.37
17.42
16.37
15.01
13.18
10.80
7.95
4.81
1.50
-2.02
-5.98
-10.62
-16.08
-22.15
-28.24
-33.49
-36.93
-37.80
-35.73
-30.87
-23.85
-15.56
-6.94
1.21
8.36
14.26
18.81
22.08
24.14
25.10
25.11
24.32
22.91
21.10
19.18
17.43
16.08
15.20
14.65
14.14
13.30
11.92
9.97
7.60
5.01
2.34
-0.43
-3.37
-6.58
-10.14
-14.06
-18.40
-23.22
-28.51
-34.10
-39.54
-44.15
-47.14
-47.86
-46.00
-41.69
-35.53
-28.41
-21.33
-15.23
-10.76
-8.23
-7.55
-8.36
-10.16
-12.54
-15.32
-18.55
-22.38
-26.96
-32.26
-38.00
-43.74
-48.99
-53.43
-57.05
-60.28
-63.99
-69.27
-77.20
-88.32
-102.28
-117.53
-131.49
-141.09
-143.52
-136.97
-121.14
-97.24
-67.75
-35.85
-4.80
22.87
45.83
64.11
78.75
91.03
101.67
110.33
115.87
117.03
113.28
105.22
94.39
82.44
70.54
59.21
48.83
40.28
35.14
35.16
41.25
52.60
66.60
79.70
88.71
91.96
89.66
83.46
75.47
67.41
60.35
54.78
51.01
49.29
49.68
51.60
53.76
54.32
51.47
44.12
32.49
18.25
4.20
-6.59
-11.74
-10.30
-3.12
7.58
19.07
29.17
36.94
42.78
47.78
52.70
57.21
59.72
58.09
50.72
37.55
20.39
2.45
-12.92
-23.36
-28.25
-28.67
-26.59
-24.01
-22.22
-21.74
-22.47
-24.11
-26.40
-29.16
-32.36
-35.95
-39.93
-44.24
-48.40
-51.12
-50.15
-42.77
-26.91
-2.51
27.93
59.78
87.90
108.22
118.86
120.01
113.02
99.42
80.55
57.89
33.56
10.41
-8.59
-21.54
-28.49
-31.50
-33.65
-37.56
-44.21
-52.44
-59.66
-63.14
-61.41
-55.03
-46.42
-38.75
-34.54
-34.59
-37.83
-42.09
-45.53
-47.63
-49.45
-52.76
-58.72
-66.97
-75.52
-81.78
-83.84
-81.42
-75.89
-69.32
-63.40
-58.70
-54.68
-50.42
-45.49
-40.23
-35.65
-32.71
-31.79
-32.45
-33.75
-34.75
-34.88
-34.10
-32.70
-31.00
-29.11
-26.98
-24.58
-22.05
-19.87
-18.62
-18.76
-20.38
-23.10
-26.14
-28.56
-29.60
-28.82
-26.19
-22.03
-16.78
-10.79
-4.13
3.44
12.33
22.88
35.15
48.73
62.74
76.07
87.60
96.52
102.45
105.39
105.57
103.26
98.76
92.50
85.02
77.09
69.44
62.54
56.34
50.22
43.21
34.34
23.00
9.12
-6.84
-23.98
-41.18
-57.23
-71.09
-82.08
-90.04
-95.53
-99.63
-103.54
-108.03
-112.99
-117.41
-119.62
-118.06
-111.86
-101.13
-86.81
-70.16
-52.40
-34.43
-16.93
-0.48
14.32
26.89
36.79
43.81
47.99
49.60
49.11
47.18
44.63
42.23
40.46
39.30
38.24
36.53
33.60
29.35
24.29
19.40
15.73
14.09
14.79
17.51
21.48
25.73
29.38
31.85
32.95
32.79
31.56
29.41
26.36
22.39
17.59
12.29
7.06
2.49
-0.96
-3.23
-4.58
-5.53
-6.51
-7.66
-8.76
-9.39
-9.23
-8.30
-7.05
-6.25
-6.76
-9.28
-14.08
-20.86
-28.72
-36.32
-42.10
-44.74
-43.42
-38.04
-29.22
-18.07
-5.93
5.94
16.54
25.21
31.50
35.17
36.11
34.42
30.39
24.55
17.55
9.99
2.36
-5.02
-11.80
-17.52
-21.52
-23.06
-21.56
-16.86
-9.36
0.01
10.04
19.55
27.45
33.02
35.86
35.91
33.53
29.47
24.99
22.00
23.07
31.06
48.16
74.52
107.48
141.95
172.04
193.28
204.04
205.42
199.88
189.43
174.85
156.28
134.46
111.50
90.27
72.67
58.04
43.12
23.73
-2.64
-34.99
-68.83
-98.19
-118.19
-127.08
-126.60
-120.70
-113.75
-109.20
-109.43
-116.18
-130.87
-153.90
-183.35
-214.11
-238.42
-248.26
-238.62
-209.77
-167.44
-120.60
-78.02
-45.45
-24.48
-13.58
-9.84
-10.69
-14.40
-19.81
-25.63
-30.17
-31.85
-30.05
-25.81
-21.76
-20.86
-24.84
-32.94
-42.07
-48.23
-48.47
-42.39
-32.07
-20.87
-11.54
-5.03
-0.50
3.78
9.14
15.84
23.07
29.56
34.09
35.93
34.78
30.86
24.81
17.62
10.40
4.17
-0.34
-2.81
-3.32
-2.28
-0.35
1.66
2.98
3.07
1.77
-0.67
-3.58
-6.06
-7.29
-6.73
-4.37
-0.75
3.15
6.22
7.54
6.77
4.37
1.54
-0.04
1.17
6.05
14.48
25.33
36.88
47.42
55.76
61.44
64.61
65.77
65.47
64.16
62.27
60.25
58.55
57.61
57.68
58.80
60.69
62.78
64.21
64.08
61.63
56.69
49.78
42.13
35.20
30.03
26.64
23.80
19.52
11.80
-0.24
-15.73
-32.06
-45.38
-51.68
-47.81
-32.65
-7.78
22.38
51.46
72.83
81.74
76.90
60.93
39.11
17.22
-0.49
-12.43
-19.24
-22.60
-23.99
-24.18
-23.55
-22.66
-22.54
-24.41
-29.02
-36.14
-44.51
-52.37
-58.16
-61.28
-62.30
-62.80
-64.60
-68.91
-75.64
-83.25
-89.23
-91.05
-87.13
-77.46
-63.53
-47.87
-33.21
-21.82
-15.06
-13.09
-14.79
-17.78
-18.82
-14.56
-2.45
18.63
48.10
83.94
123.15
162.17
197.28
225.09
243.10
250.37
247.75
237.42
221.98
203.20
181.43
155.76
124.86
87.81
44.49
-4.53
-58.12
-114.41
-170.32
-221.61
-263.82
-293.87
-311.43
-318.97
-320.32
-318.39
-313.52
-303.52
-285.29
-257.05
-219.93
-177.92
-136.42
-100.05
-71.09
-48.88
-30.63
-12.58
8.35
33.39
61.44
89.45
113.43
129.82
136.57
133.56
122.16
104.54
82.92
59.25
35.24
12.57
-7.21
-22.90
-34.09
-41.40
-46.34
-50.71
-55.87
-62.04
-68.20
-72.46
-72.89
-68.33
-58.85
-45.64
-30.53
-15.26
-1.00
11.81
23.30
33.79
43.47
52.22
59.71
65.61
69.88
72.85
75.15
77.47
80.25
83.60
87.24
90.81
93.97
96.58
98.62
100.05
100.77
100.58
99.34
97.06
93.85
89.86
85.11
79.47
72.81
65.24
57.16
49.33
42.55
37.40
34.00
32.04
30.94
30.07
28.87
26.86
23.55
18.29
10.44
-0.47
-14.37
-30.47
-47.41
-63.59
-77.74
-89.29
-98.50
-106.14
-113.06
-119.75
-126.20
-132.10
-137.09
-141.08
-144.24
-146.88
-149.21
-151.17
-152.48
-152.76
-151.78
-149.43
-145.70
-140.44
-133.26
-123.53
-110.69
-94.57
-75.56
-54.66
-33.12
-12.08
7.76
26.11
42.88
57.87
70.64
80.60
87.35
90.99
92.16
91.88
91.18
90.74
90.77
91.11
91.57
92.12
92.89
94.04
95.52
96.94
97.65
96.91
94.20
89.23
82.12
73.35
63.72
54.30
46.19
40.29
36.99
36.09
36.98
38.99
41.73
45.10
49.15
53.77
58.42
62.24
64.33
64.14
61.62
57.22
51.58
45.28
38.71
32.09
25.60
19.48
13.98
9.37
5.72
2.97
0.90
-0.77
-2.24
-3.70
-5.23
-6.88
-8.64
-10.45
-12.14
-13.46
-14.02
-13.29
-10.72
-5.86
1.43
10.76
21.17
31.40
40.32
47.28
52.32
55.94
58.71
60.87
62.18
62.18
60.45
57.00
52.23
46.78
41.20
35.80
30.66
25.75
21.09
16.76
12.85
9.36
6.15
2.99
-0.40
-4.22
-8.60
-13.60
-19.27
-25.58
-32.31
-38.94
-44.68
-48.61
-49.93
-48.26
-43.76
-37.08
-29.13
-20.77
-12.67
-5.24
1.25
6.54
10.34
12.41
12.73
11.62
9.69
7.70
6.24
5.57
5.50
5.58
5.33
4.44
2.95
1.10
-0.76
-2.38
-3.68
-4.79
-5.99
-7.61
-9.94
-13.22
-17.54
-22.78
-28.57
-34.34
-39.33
-42.81
-44.19
-43.24
-40.16
-35.45
-29.87
-24.12
-18.75
-13.99
-9.89
-6.38
-3.48
-1.33
-0.18
-0.17
-1.24
-3.04
-5.02
-6.63
-7.50
-7.59
-7.17
-6.69
-6.55
-6.96
-7.82
-8.88
-9.82
-10.50
-10.94
-11.40
-12.13
-13.35
-15.10
-17.33
-19.91
-22.65
-25.34
-27.60
-28.90
-28.67
-26.45
-22.06
-15.75
-8.14
-0.02
7.83
14.77
20.35
24.28
26.45
26.89
25.85
23.77
21.22
18.72
16.62
15.00
13.66
12.30
10.61
8.50
6.01
3.35
0.76
-1.60
-3.70
-5.69
-7.79
-10.31
-13.49
-17.45
-22.06
-27.02
-31.76
-35.60
-37.87
-38.01
-35.78
-31.27
-24.94
-17.48
-9.66
-2.20
4.34
9.57
13.24
15.21
15.53
14.41
12.35
9.93
7.69
5.93
4.62
3.50
2.26
0.72
-1.04
-2.78
-4.25
-5.36
-6.21
-7.05
-8.17
-9.80
-12.12
-15.23
-19.19
-23.99
-29.45
-35.11
-40.26
-43.99
-45.45
-44.11
-39.95
-33.45
-25.46
-16.93
-8.64
-1.13
5.37
10.76
15.01
18.02
19.74
20.21
19.61
18.30
16.69
15.13
13.84
12.84
12.00
11.16
10.17
8.97
7.58
6.04
4.38
2.55
0.48
-1.94
-4.74
-7.92
-11.47
-15.42
-19.88
-24.95
-30.63
-36.66
-42.40
-46.95
-49.28
-48.63
-44.71
-37.79
-28.65
-18.34
-7.91
1.78
10.13
16.80
21.63
24.64
26.04
26.17
25.49
24.45
23.39
22.42
21.56
20.71
19.84
18.96
18.09
17.20
16.17
14.81
12.96
10.56
7.68
4.50
1.21
-2.07
-5.38
-8.92
-13.00
-17.92
-23.78
-30.38
-37.09
-43.00
-47.07
-48.38
-46.36
-40.96
-32.62
-22.22
-10.88
0.34
10.55
19.16
25.86
30.59
33.40
34.42
33.94
32.35
30.20
28.04
26.30
25.18
24.59
24.27
23.90
23.29
22.39
21.30
20.15
18.94
17.51
15.60
12.99
9.59
5.60
1.36
-2.77
-6.58
-10.09
-13.55
-17.33
-21.80
-27.18
-33.41
-40.02
-46.17
-50.76
-52.66
-51.03
-45.61
-36.82
-25.57
-13.08
-0.51
11.17
21.30
29.43
35.34
38.96
40.47
40.26
38.86
36.85
34.74
32.90
31.52
30.59
29.99
29.50
28.93
28.17
27.22
26.21
25.20
24.14
22.83
20.99
18.41
15.07
11.17
7.06
3.02
-0.82
-4.59
-8.57
-13.03
-18.17
-24.00
-30.34
-36.82
-42.80
-47.43
-49.74
-48.91
-44.46
-36.55
-25.90
-13.69
-1.17
10.56
20.75
28.98
35.07
38.97
40.79
40.83
39.57
37.61
35.50
33.67
32.30
31.35
30.73
30.31
29.99
29.76
29.50
29.13
28.50
27.52
26.20
24.62
22.85
20.82
18.36
15.17
10.99
5.84
0.03
-5.74
-10.63
-13.84
-14.94
-13.95
-11.37
-7.99
-4.65
-2.05
-0.63
-0.35
-0.74
-0.77
0.88
5.38
13.23
23.89
35.85
47.14
56.09
61.84
64.46
64.52
62.63
59.26
54.82
49.96
45.57
42.44
40.77
39.99
38.98
36.77
32.97
27.97
22.56
17.44
12.92
8.89
5.13
1.49
-2.14
-5.94
-10.38
-16.09
-23.48
-32.37
-41.83
-50.33
-56.25
-58.43
-56.63
-51.68
-45.10
-38.63
-33.51
-30.19
-28.35
-27.17
-25.88
-24.04
-21.65
-19.08
-16.94
-15.89
-16.51
-19.11
-23.56
-29.14
-34.82
-39.54
-42.66
-44.21
-44.85
-45.40
-46.43
-47.93
-49.39
-50.06
-49.26
-46.64
-42.20
-36.27
-29.50
-22.73
-16.88
-12.71
-10.56
-10.15
-10.54
-10.40
-8.32
-3.20
5.57
17.90
33.02
49.42
65.08
77.76
85.54
87.43
83.64
75.57
65.28
54.85
45.71
38.41
32.69
27.86
23.23
18.34
13.08
7.49
1.71
-4.16
-10.05
-15.92
-21.65
-27.17
-32.42
-37.47
-42.52
-47.82
-53.68
-60.25
-67.47
-75.01
-82.43
-89.28
-95.35
-100.69
-105.45
-109.62
-112.77
-113.90
-111.78
-105.40
-94.67
-80.83
-66.34
-54.25
-47.16
-46.12
-50.17
-56.56
-61.71
-62.43
-56.73
-44.18
-25.64
-2.97
21.36
44.47
63.55
76.45
82.48
82.84
80.22
77.44
75.84
74.51
70.96
62.96
50.51
36.46
25.37
21.16
24.86
34.12
44.49
51.85
54.28
52.61
49.23
46.43
45.27
45.56
46.68
48.53
52.06
58.63
69.27
84.01
102.02
121.96
142.41
161.96
179.03
192.11
199.73
200.66
194.03
179.55
157.34
127.67
90.95
48.03
1.46
-44.49
-84.53
-113.81
-129.34
-130.91
-121.02
-103.80
-83.67
-63.27
-43.31
-23.42
-5.04
8.75
14.50
10.01
-2.65
-22.53
-47.63
-75.22
-102.22
-125.65
-143.64
-155.94
-163.54
-167.97
-170.63
-171.66
-170.34
-166.03
-159.00
-150.71
-143.37
-139.03
-138.76
-142.28
-147.71
-152.70
-155.58
-156.07
-154.96
-153.37
-151.86
-150.08
-147.10
-141.59
-132.29
-118.28
-99.03
-74.67
-46.36
-16.58
11.29
33.96
49.88
59.90
67.00
74.81
86.00
101.24
119.43
138.66
157.44
175.30
192.28
207.95
220.92
229.11
230.90
226.09
216.14
203.53
190.59
178.54
167.13
155.09
140.91
123.62
103.25
80.86
58.28
37.57
20.47
7.84
-0.71
-6.59
-11.71
-17.65
-25.00
-33.28
-41.41
-48.36
-53.69
-57.68
-61.09
-64.68
-68.77
-73.03
-76.44
-77.85
-76.53
-72.63
-67.16
-61.30
-55.52
-49.10
-40.36
-27.60
-10.03
11.89
36.83
63.37
90.33
116.49
139.96
157.98
167.62
167.15
157.28
141.11
122.89
106.02
91.61
78.46
64.35
47.67
28.38
7.92
-11.88
-29.81
-45.76
-60.29
-74.02
-86.82
-97.77
-105.59
-109.33
-108.94
-105.37
-100.32
-95.61
-92.53
-91.45
-91.69
-91.79
-89.91
-84.43
-74.22
-58.86
-38.61
-14.37
12.31
39.18
63.49
82.34
93.43
95.88
90.76
80.98
70.30
61.89
56.96
54.37
51.32
44.73
32.86
15.93
-4.06
-24.42
-42.91
-58.36
-70.56
-79.72
-85.97
-89.25
-89.53
-87.20
-83.26
-79.18
-76.49
-76.28
-78.89
-83.83
-89.83
-95.30
-98.62
-98.57
-94.56
-86.73
-75.77
-62.69
-48.53
-34.15
-20.22
-7.33
4.03
13.39
20.46
25.17
27.75
28.63
28.36
27.38
25.99
24.31
22.54
20.83
19.34
18.17
17.27
16.49
15.55
14.01
11.43
7.59
2.45
-3.90
-11.28
-19.48
-28.34
-37.81
-47.96
-58.79
-69.75
-79.87
-87.78
-92.06
-91.51
-85.54
-74.27
-58.55
-39.48
-17.46
7.04
33.12
59.27
83.72
105.16
123.29
138.67
152.73
168.33
187.11
208.62
230.30
248.94
262.32
270.05
272.99
273.10
274.40
279.38
287.98
297.69
305.38
308.88
307.44
300.75
289.39
277.13
267.53
262.98
264.12
270.43
280.85
293.88
306.99
299.12
258.23
186.25
99.73
18.40
-46.02
-91.97
-120.31
-139.45
-154.27
-163.93
-167.35
-165.76
-163.70
-165.64
-174.80
-192.06
-216.51
-244.61
-269.65
-285.72
-289.61
-281.82
-265.61
-245.22
-224.31
-205.68
-189.95
-175.37
-160.21
-143.91
-127.46
-112.50
-100.24
-90.85
-83.96
-78.56
-73.33
-67.75
-62.24
-57.79
-55.11
-54.10
-53.66
-52.28
-48.38
-40.85
-29.64
-15.79
-0.95
13.17
25.42
35.41
43.23
49.20
53.30
54.93
53.05
46.60
35.13
19.19
0.38
-18.97
-36.68
-51.36
-63.02
-72.93
-83.07
-95.16
-109.72
-125.48
-139.51
-148.04
-147.51
-135.81
-112.94
-81.36
-45.56
-11.22
15.94
31.53
33.46
22.49
1.93
-23.39
-48.39
-69.03
-83.00
-89.79
-90.24
-85.97
-78.70
-70.00
-61.11
-52.82
-45.62
-39.61
-34.72
-30.78
-27.53
-24.78
-22.44
-20.58
-19.32
-18.75
-18.74
-18.93
-18.76
-17.66
-15.40
-12.22
-8.78
-6.00
-4.61
-4.96
-6.84
-9.62
-12.55
-15.05
-16.92
-18.39
-19.84
-21.56
-23.43
-24.85
-24.96
-22.94
-18.35
-11.37
-2.59
7.14
17.09
26.79
35.99
44.47
51.94
58.06
62.51
65.24
66.51
66.83
66.70
66.46
66.20
65.80
65.11
64.07
62.75
61.29
59.84
58.51
57.42
56.69
56.30
56.06
55.57
54.27
51.59
47.12
40.70
32.44
22.67
11.82
0.64
-9.75
-17.91
-22.33
-22.03
-17.19
-9.18
-0.45
6.24
8.94
7.15
1.74
-5.60
-13.24
-20.46
-27.03
-33.32
-40.15
-48.10
-57.48
-68.61
-81.68
-96.40
-112.17
-126.98
-138.75
-146.39
-149.54
-148.26
-142.96
-133.89
-121.16
-105.73
-87.62
-67.04
-44.66
-20.57
5.82
34.78
65.91
98.31
130.28
162.62
197.21
229.83
253.74
262.54
253.82
230.64
206.95
186.56
170.86
159.95
153.03
146.18
138.43
129.81
120.74
111.48
100.84
88.94
76.20
63.02
50.32
39.59
31.63
26.35
22.84
19.21
15.15
11.31
8.43
7.08
7.48
8.68
9.11
7.33
2.24
-5.57
-14.84
-24.65
-34.70
-44.89
-55.13
-64.77
-72.58
-77.47
-78.54
-75.93
-70.87
-65.14
-60.20
-56.92
-55.51
-55.85
-57.88
-61.49
-66.44
-72.14
-77.60
-81.51
-82.74
-80.74
-75.87
-69.22
-62.27
-56.44
-52.61
-50.97
-51.07
-51.98
-52.65
-52.24
-50.32
-47.06
-43.12
-39.44
-36.93
-36.17
-37.42
-40.60
-45.52
-51.90
-59.35
-67.20
-74.50
-80.15
-83.27
-83.50
-81.01
-76.24
-69.41
-60.19
-47.88
-31.97
-12.86
7.84
27.67
44.18
55.86
62.56
65.23
65.15
63.22
59.74
54.70
48.32
41.44
35.38
31.39
30.03
30.88
32.61
33.52
32.17
27.91
21.05
12.59
3.94
-3.65
-9.44
-13.46
-16.46
-19.76
-24.80
-32.67
-43.55
-56.34
-68.53
-76.67
-77.39
-68.56
-50.25
-24.80
4.11
32.86
59.08
81.89
101.37
117.60
130.11
137.97
140.59
138.34
132.51
124.65
115.62
105.28
92.88
78.03
61.48
45.18
31.51
22.28
18.07
18.18
21.18
25.63
30.38
34.73
38.09
39.99
40.13
38.86
37.46
38.14
43.36
54.77
72.00
92.16
110.21
120.47
118.51
102.77
75.03
39.73
2.24
-32.83
-62.73
-86.69
-105.21
-119.20
-129.40
-136.21
-139.99
-141.27
-140.80
-139.39
-137.54
-135.20
-131.65
-125.75
-116.29
-102.55
-84.67
-63.69
-41.39
-19.71
-0.20
16.29
29.66
40.21
48.20
53.54
55.91
55.01
50.94
44.38
36.31
27.61
18.74
9.68
0.35
-9.00
-17.54
-24.15
-27.78
-27.98
-25.06
-19.81
-13.25
-6.26
0.47
6.37
10.93
13.80
14.91
14.55
13.24
11.48
9.53
7.38
4.91
2.08
-0.87
-3.57
-5.69
-7.07
-7.80
-8.07
-8.03
-7.68
-7.01
-6.05
-5.03
-4.36
-4.46
-5.64
-7.92
-11.00
-14.38
-17.58
-20.36
-22.76
-25.05
-27.45
-29.97
-32.20
-33.46
-33.04
-30.53
-26.05
-20.22
-14.01
-8.43
-4.35
-2.37
-2.83
-5.64
-10.30
-15.71
-20.32
-22.46
-20.98
-15.88
-8.56
-1.40
3.29
4.48
3.10
1.76
3.59
10.89
24.20
42.33
62.94
83.44
101.55
115.37
123.35
124.38
118.18
105.73
89.30
71.90
56.25
43.93
35.21
29.59
26.69
26.81
30.61
38.33
48.91
59.87
68.14
71.30
68.58
60.88
49.92
37.06
22.71
6.63
-11.10
-29.39
-46.20
-59.38
-67.85
-72.10
-73.86
-75.12
-77.13
-79.94
-82.65
-84.11
-83.48
-80.58
-75.86
-70.15
-64.50
-59.89
-56.86
-55.31
-54.22
-52.06
-47.29
-39.20
-28.28
-15.97
-3.95
6.72
16.09
25.13
34.97
46.18
58.46
70.80
82.16
91.87
99.72
105.47
108.31
106.63
98.49
82.49
58.83
29.62
-1.45
-30.35
-54.05
-71.41
-83.27
-91.72
-98.88
-106.06
-113.37
-119.98
-124.81
-127.05
-126.49
-123.49
-118.67
-112.77
-106.47
-100.43
-95.23
-91.27
-88.63
-86.86
-85.11
-82.24
-77.27
-69.69
-59.71
-48.10
-35.97
-24.32
-13.77
-4.53
3.43
10.15
15.42
18.83
19.89
18.42
14.76
9.94
5.67
4.11
7.42
17.05
33.10
53.87
76.05
95.53
108.57
112.94
108.42
96.59
79.96
61.04
41.73
23.19
6.07
-9.30
-22.79
-34.63
-45.39
-55.86
-66.58
-77.43
-87.48
-95.23
-99.17
-98.43
-93.11
-84.13
-72.82
-60.41
-47.75
-35.41
-23.94
-14.09
-6.74
-2.62
-1.83
-3.67
-6.75
-9.35
-9.95
-7.60
-2.17
5.78
15.18
24.85
33.87
41.77
48.62
54.81
60.74
66.61
72.28
77.32
81.21
83.41
83.39
80.59
74.36
64.14
49.78
31.89
12.04
-7.41
-23.92
-35.60
-41.81
-43.28
-41.69
-38.82
-35.89
-33.23
-30.54
-27.38
-23.64
-19.77
-16.46
-14.32
-13.54
-13.78
-14.44
-14.91
-14.81
-14.01
-12.51
-10.30
-7.32
-3.45
1.38
7.04
13.30
19.93
26.93
34.66
43.70
54.54
67.11
80.52
93.04
102.58
107.50
107.28
102.88
96.39
90.23
86.30
85.46
87.46
91.44
96.32
101.13
104.95
106.64
105.04
99.29
89.47
76.92
64.01
53.35
46.88
45.24
47.73
52.79
58.62
63.74
67.11
68.14
66.62
62.68
56.77
49.60
41.87
34.05
26.20
18.14
9.71
0.98
-7.73
-16.02
-23.63
-30.53
-36.90
-42.91
-48.60
-53.97
-59.05
-64.08
-69.49
-75.66
-82.63
-89.85
-96.26
-100.55
-101.60
-98.89
-92.61
-83.57
-72.81
-61.28
-49.70
-38.48
-28.01
-18.71
-11.15
-5.82
-2.98
-2.44
-3.61
-5.61
-7.59
-8.92
-9.37
-9.03
-8.17
-7.09
-6.00
-5.02
-4.28
-3.89
-3.98
-4.57
-5.60
-6.87
-8.25
-9.82
-11.83
-14.73
-18.87
-24.21
-30.26
-36.01
-40.19
-41.66
-39.70
-34.25
-25.88
-15.63
-4.68
5.90
15.33
23.13
29.03
32.94
34.92
35.18
34.17
32.49
30.72
29.29
28.32
27.70
27.15
26.43
25.42
24.12
22.63
20.98
19.14
16.98
14.35
11.17
7.43
3.20
-1.45
-6.51
-12.06
-18.20
-25.02
-32.37
-39.76
-46.37
-51.14
-53.10
-51.62
-46.71
-38.93
-29.29
-18.92
-8.83
0.27
7.96
14.00
18.29
20.85
21.85
21.56
20.43
18.92
17.45
16.31
15.62
15.28
15.09
14.75
14.03
12.79
11.06
8.91
6.46
3.77
0.80
-2.50
-6.16
-10.13
-14.33
-18.74
-23.46
-28.73
-34.76
-41.51
-48.47
-54.63
-58.69
-59.46
-56.26
-49.23
-39.29
-27.81
-16.22
-5.56
3.57
11.09
17.13
21.82
25.25
27.40
28.23
27.82
26.44
24.49
22.44
20.65
19.28
18.29
17.49
16.66
15.65
14.43
13.03
11.53
9.95
8.25
6.31
3.98
1.09
-2.54
-7.03
-12.45
-18.66
-25.31
-31.76
-37.10
-40.37
-40.76
-37.92
-32.04
-23.89
-14.51
-4.93
4.07
12.05
18.85
24.41
28.65
31.54
33.08
33.49
33.14
32.50
31.91
31.50
31.24
30.97
30.61
30.19
29.80
29.52
29.25
28.77
27.76
25.94
23.17
19.51
15.20
10.59
6.09
1.96
-1.74
-5.15
-8.70
-12.87
-18.11
-24.54
-31.80
-39.02
-45.01
-48.52
-48.61
-44.98
-37.99
-28.61
-18.04
-7.44
2.36
10.87
17.95
23.60
27.90
30.90
32.66
33.32
33.09
32.30
31.30
30.43
29.91
29.79
29.98
30.29
30.56
30.62
30.41
29.93
29.19
28.23
27.02
25.52
23.66
21.36
18.58
15.34
11.78
8.08
4.43
1.01
-2.11
-5.00
-7.84
-10.93
-14.62
-19.16
-24.62
-30.71
-36.72
-41.65
-44.42
-44.20
-40.67
-34.12
-25.29
-15.23
-4.96
4.70
13.25
20.46
26.34
30.99
34.55
37.14
38.82
39.65
39.72
39.15
38.15
36.92
35.65
34.45
33.39
32.44
31.54
30.64
29.68
28.64
27.47
26.12
24.51
22.51
20.03
17.05
13.64
9.96
6.20
2.54
-0.91
-4.12
-7.13
-10.05
-12.95
-15.97
-19.29
-23.15
-27.81
-33.39
-39.68
-46.06
-51.56
-55.10
-55.87
-53.59
-48.66
-41.93
-34.48
-27.26
-20.86
-15.52
-11.23
-7.90
-5.48
-3.89
-3.08
-2.83
-2.86
-2.80
-2.39
-1.54
-0.38
0.88
2.03
3.04
4.04
5.22
6.67
8.25
9.59
10.22
9.75
8.01
5.12
1.41
-2.72
-6.89
-10.92
-14.70
-18.32
-21.98
-25.99
-30.69
-36.26
-42.60
-49.15
-54.98
-58.99
-60.23
-58.22
-53.12
-45.67
-36.96
-28.17
-20.28
-13.90
-9.23
-6.07
-3.96
-2.39
-0.96
0.48
1.89
3.14
4.16
5.00
5.76
6.47
7.00
7.11
6.54
5.16
3.07
0.54
-2.12
-4.70
-7.16
-9.66
-12.48
-15.93
-20.22
-25.30
-30.83
-36.18
-40.51
-42.98
-42.97
-40.23
-34.98
-27.80
-19.54
-11.08
-3.22
3.51
8.83
12.67
15.08
16.18
16.09
14.98
13.17
11.11
9.30
8.14
7.79
8.04
8.52
8.76
8.50
7.68
6.43
4.90
3.19
1.27
-0.92
-3.44
-6.30
-9.55
-13.22
-17.34
-21.82
-26.28
-30.04
-32.32
-32.38
-29.87
-24.94
-18.19
-10.49
-2.67
4.61
11.02
16.39
20.65
23.68
25.33
25.52
24.46
22.59
20.54
18.94
18.10
17.96
18.12
18.04
17.34
15.95
14.11
12.18
10.48
9.11
7.90
6.55
4.67
1.97
-1.71
-6.33
-11.67
-17.30
-22.58
-26.75
-29.06
-28.93
-26.15
-20.88
-13.70
-5.42
3.08
11.05
17.94
23.47
27.51
30.07
31.22
31.13
30.10
28.58
27.14
26.34
26.59
27.95
30.18
32.81
35.33
37.45
39.14
40.66
42.37
44.55
47.15
49.77
51.70
52.11
50.33
46.06
39.55
31.54
23.21
15.84
10.61
8.24
8.87
12.01
16.71
21.81
26.23
29.21
30.35
29.58
26.99
22.79
17.30
10.95
4.30
-2.04
-7.57
-12.01
-15.35
-17.80
-19.66
-21.21
-22.66
-24.09
-25.56
-27.04
-28.46
-29.75
-30.90
-32.00
-33.27
-35.04
-37.60
-41.01
-44.96
-48.76
-51.44
-52.03
-49.85
-44.77
-37.21
-28.02
-18.22
-8.69
-0.09
7.24
13.09
17.32
19.92
21.00
20.90
20.13
19.26
18.66
18.44
18.40
18.26
17.76
16.87
15.75
14.64
13.71
12.97
12.24
11.20
9.41
6.46
2.10
-3.62
-10.25
-16.93
-22.57
-26.13
-26.95
-24.91
-20.44
-14.28
-7.29
-0.21
6.43
12.21
16.81
19.97
21.47
21.28
19.59
16.79
13.46
10.19
7.42
5.34
3.90
2.81
1.74
0.43
-1.18
-3.00
-4.85
-6.62
-8.30
-10.00
-11.91
-14.22
-17.15
-20.84
-25.35
-30.50
-35.81
-40.47
-43.50
-44.01
-41.52
-36.12
-28.48
-19.63
-10.62
-2.27
4.95
10.84
15.40
18.57
20.32
20.67
19.77
18.00
15.89
13.98
12.60
11.85
11.56
11.44
11.26
10.88
10.26
9.40
8.29
6.85
5.05
2.81
0.17
-2.78
-5.87
-8.96
-11.96
-14.90
-18.02
-21.65
-26.05
-31.27
-36.91
-42.15
-45.93
-47.31
-45.72
-41.18
-34.15
-25.40
-15.76
-5.93
3.58
12.37
20.12
26.55
31.45
34.77
36.60
37.23
37.05
36.44
35.66
34.88
34.07
33.15
32.02
30.64
29.06
27.39
25.78
24.36
23.12
21.91
20.45
18.41
15.56
11.91
7.73
3.42
-0.60
-4.12
-7.22
-10.22
-13.57
-17.65
-22.60
-28.29
-34.31
-39.98
-44.52
-47.13
-47.19
-44.38
-38.86
-31.15
-22.11
-12.67
-3.64
4.41
11.14
16.44
20.34
22.91
24.37
24.96
25.03
24.93
24.96
25.26
25.80
26.42
26.92
27.20
27.30
27.34
27.44
27.64
27.81
27.74
27.16
25.91
23.97
21.51
18.75
15.97
13.36
10.94
8.55
5.95
2.91
-0.66
-4.60
-8.62
-12.39
-15.82
-19.01
-22.23
-25.79
-29.86
-34.37
-39.11
-43.70
-47.65
-50.38
-51.31
-49.97
-46.19
-40.21
-32.65
-24.33
-16.00
-8.20
-1.23
4.70
9.40
12.64
14.26
14.40
13.47
12.15
11.11
10.82
11.29
12.28
13.30
13.99
14.14
13.77
13.04
12.13
11.10
9.95
8.62
6.97
4.86
2.13
-1.29
-5.41
-10.06
-14.91
-19.57
-23.68
-27.12
-29.95
-32.42
-34.87
-37.57
-40.70
-44.22
-47.90
-51.23
-53.53
-54.03
-52.17
-47.72
-40.91
-32.38
-22.93
-13.37
-4.31
3.82
10.80
16.45
20.66
23.35
24.62
24.71
24.01
23.02
22.09
21.44
21.02
20.67
20.21
19.53
18.69
17.76
16.79
15.78
14.61
13.15
11.29
8.93
6.03
2.56
-1.48
-6.09
-11.25
-16.87
-22.73
-28.39
-33.18
-36.30
-37.01
-34.97
-30.36
-23.89
-16.55
-9.30
-2.79
2.73
7.29
11.02
13.96
16.03
17.14
17.32
16.79
15.91
15.01
14.23
13.46
12.48
11.06
9.17
6.98
4.77
2.74
0.91
-0.91
-3.00
-5.55
-8.61
-12.10
-16.01
-20.42
-25.43
-31.02
-36.83
-42.17
-46.05
-47.53
-45.99
-41.34
-34.04
-25.02
-15.36
-6.04
2.25
9.19
14.76
19.12
22.45
24.84
26.35
27.04
27.03
26.51
25.68
24.71
23.68
22.63
21.59
20.59
19.62
18.60
17.39
15.80
13.66
10.93
7.62
3.89
-0.08
-4.10
-8.00
-11.75
-15.46
-19.43
-24.04
-29.53
-35.78
-42.19
-47.68
-51.04
-51.32
-48.12
-41.79
-33.21
-23.51
-13.70
-4.45
3.91
11.32
17.73
23.01
26.94
29.31
30.11
29.60
28.24
26.56
24.98
23.62
22.36
20.96
19.22
17.16
14.95
12.86
11.01
9.36
7.68
5.62
2.88
-0.75
-5.29
-10.64
-16.56
-22.66
-28.41
-33.14
-36.13
-36.75
-34.62
-29.80
-22.71
-14.09
-4.82
4.31
12.69
19.92
25.76
30.03
32.63
33.62
33.32
32.26
31.10
30.41
30.42
30.95
31.59
31.85
31.45
30.40
28.91
27.26
25.63
24.00
22.19
19.94
17.01
13.33
8.99
4.28
-0.46
-5.00
-9.25
-13.39
-17.76
-22.75
-28.66
-35.56
-43.12
-50.66
-57.16
-61.47
-62.60
-60.01
-53.85
-44.83
-34.09
-22.79
-11.85
-1.81
7.06
14.64
20.84
25.56
28.77
30.59
31.30
31.31
31.06
30.88
30.90
31.06
31.16
30.95
30.24
28.98
27.22
25.08
22.63
19.90
16.92
13.69
10.19
6.37
2.09
-2.87
-8.73
-15.51
-22.89
-30.10
-36.10
-39.79
-40.40
-37.65
-31.87
-23.84
-14.52
-4.87
4.39
12.74
19.87
25.61
29.87
32.68
34.22
34.77
34.66
34.16
33.41
32.45
31.25
29.76
28.02
26.15
24.26
22.44
20.63
18.66
16.25
13.12
9.09
4.12
-1.63
-7.91
-14.46
-21.11
-27.86
-34.82
-42.16
-50.01
-58.45
-67.57
-77.49
-88.33
-100.00
-112.04
-123.56
-133.40
-140.44
-143.97
-144.01
-141.21
-136.61
-131.26
-125.95
-121.10
-116.87
-113.39
-110.75
-109.06
-108.22
-107.76
-106.89
-104.69
-100.37
-93.44
-83.80
-71.47
-56.40
-38.27
-16.54
9.29
39.24
72.58
107.65
142.03
172.97
197.98
215.46
225.11
227.84
225.40
219.67
212.01
203.01
192.61
180.54
166.71
151.46
135.38
119.24
103.72
89.46
76.96
66.65
58.72
52.95
48.69
45.01
40.98
36.04
30.20
23.95
18.05
13.20
9.79
7.91
7.32
7.71
8.82
10.46
12.56
15.12
18.23
22.05
26.79
32.56
39.27
46.51
53.70
60.20
65.68
70.19
74.12
78.10
82.63
87.97
93.89
99.61
103.79
104.81
101.32
92.85
80.28
65.64
51.40
39.45
30.24
22.84
15.54
6.94
-3.29
-14.28
-24.50
-32.65
-38.28
-41.90
-44.57
-47.32
-50.70
-54.62
-58.49
-61.62
-63.39
-63.44
-61.59
-57.81
-52.21
-45.11
-37.17
-29.33
-22.64
-17.90
-15.43
-14.98
-16.00
-18.02
-20.87
-24.73
-29.84
-36.16
-43.25
-50.38
-56.85
-62.27
-66.56
-69.69
-71.51
-71.58
-69.37
-64.55
-57.33
-48.42
-38.79
-29.27
-20.21
-11.44
-2.47
7.09
17.26
27.55
37.13
45.15
50.95
54.27
55.19
54.01
51.21
47.28
42.73
38.08
33.70
29.71
26.00
22.24
18.16
13.67
8.90
4.03
-0.85
-5.93
-11.57
-18.07
-25.47
-33.49
-41.58
-49.18
-55.87
-61.40
-65.54
-67.95
-68.12
-65.64
-60.34
-52.57
-43.16
-33.22
-23.92
-16.12
-10.25
-6.22
-3.67
-2.08
-1.07
-0.41
-0.10
-0.18
-0.69
-1.52
-2.55
-3.62
-4.64
-5.57
-6.29
-6.70
-6.77
-6.68
-6.89
-7.98
-10.39
-14.25
-19.26
-24.86
-30.37
-35.14
-38.56
-40.04
-39.13
-35.65
-29.89
-22.66
-15.08
-8.19
-2.65
1.45
4.39
6.64
8.51
10.04
11.08
11.40
10.90
9.72
8.26
7.05
6.60
7.13
8.52
10.32
11.90
12.73
12.50
11.13
8.75
5.55
1.80
-2.22
-6.17
-9.74
-12.78
-15.38
-17.89
-20.76
-24.33
-28.57
-32.97
-36.66
-38.56
-37.79
-33.91
-27.12
-18.23
-8.38
1.22
9.64
16.35
21.15
24.13
25.50
25.47
24.32
22.38
20.03
17.67
15.62
14.04
12.90
11.98
10.98
9.69
8.06
6.29
4.80
3.92
3.82
4.27
4.79
4.77
3.70
1.37
-2.19
-6.80
-12.18
-17.94
-23.58
-28.37
-31.50
-32.26
-30.29
-25.81
-19.46
-12.16
-4.78
2.00
7.79
12.29
15.31
16.65
16.25
14.25
11.13
7.62
4.53
2.53
1.92
2.64
4.18
5.83
6.87
6.75
5.31
2.71
-0.56
-4.02
-7.28
-10.20
-12.80
-15.22
-17.65
-20.25
-23.17
-26.46
-29.98
-33.30
-35.76
-36.62
-35.28
-31.55
-25.64
-18.11
-9.69
-1.12
6.92
13.89
19.37
23.17
25.32
26.11
25.98
25.37
24.60
23.87
23.22
22.65
22.09
21.44
20.53
19.19
17.32
14.94
12.23
9.48
6.95
4.77
2.83
0.82
-1.69
-5.16
-9.80
-15.61
-22.16
-28.72
-34.36
-38.14
-39.37
-37.81
-33.71
-27.77
-20.93
-14.12
-8.04
-3.07
0.75
3.55
5.48
6.60
6.89
6.25
4.73
2.56
0.25
-1.54
-2.23
-1.46
0.72
3.89
7.45
10.78
13.40
15.00
15.39
14.44
12.04
8.18
2.98
-3.23
-10.02
-16.99
-23.87
-30.53
-36.85
-42.55
-47.10
-49.76
-49.84
-46.97
-41.27
-33.41
-24.40
-15.29
-6.90
0.29
6.13
10.63
13.84
15.75
16.38
15.90
14.63
13.00
11.42
10.12
9.13
8.29
7.43
6.46
5.43
4.45
3.57
2.70
1.63
0.13
-2.03
-4.98
-8.80
-13.50
-18.98
-24.97
-30.93
-36.08
-39.49
-40.38
-38.25
-33.18
-25.71
-16.78
-7.39
1.59
9.57
16.26
21.51
25.26
27.43
27.98
26.95
24.57
21.30
17.73
14.49
12.03
10.59
10.02
9.90
9.68
8.89
7.27
4.84
1.76
-1.78
-5.67
-9.85
-14.20
-18.61
-22.99
-27.48
-32.44
-38.27
-45.04
-52.15
-58.41
-62.25
-62.37
-58.25
-50.34
-39.92
-28.56
-17.65
-8.06
-0.13
6.15
10.93
14.26
16.17
16.76
16.32
15.39
14.66
14.71
15.73
17.45
19.27
20.49
20.65
19.72
17.96
15.83
13.72
11.82
10.14
8.52
6.76
4.68
2.06
-1.30
-5.54
-10.50
-15.58
-19.66
-21.38
-19.58
-13.80
-4.55
6.73
18.27
28.45
36.35
41.79
45.14
46.88
47.36
46.70
44.99
42.46
39.55
36.81
34.75
33.55
33.03
32.74
32.13
30.81
28.71
26.03
23.05
19.99
16.84
13.42
9.51
4.85
-0.68
-7.16
-14.51
-22.43
-30.26
-36.94
-41.28
-42.21
-39.30
-32.82
-23.74
-13.35
-2.82
6.90
15.28
21.98
26.81
29.66
30.59
29.84
27.81
25.05
22.10
19.38
17.14
15.45
14.18
13.17
12.21
11.13
9.84
8.34
6.67
4.85
2.89
0.70
-1.83
-4.84
-8.47
-12.79
-17.76
-23.11
-28.30
-32.54
-34.95
-34.79
-31.69
-25.84
-17.86
-8.70
0.64
9.36
16.96
23.20
28.00
31.29
33.02
33.20
32.00
29.84
27.34
25.12
23.67
23.13
23.30
23.78
24.21
24.34
24.10
23.47
22.38
20.72
18.39
15.45
12.19
8.96
6.02
3.28
0.30
-3.60
-8.89
-15.52
-22.80
-29.52
-34.30
-36.03
-34.16
-28.79
-20.59
-10.59
0.09
10.36
19.33
26.36
31.07
33.38
33.52
31.97
29.45
26.73
24.45
23.01
22.42
22.33
22.19
21.53
20.12
18.10
15.84
13.72
11.93
10.30
8.40
5.71
1.88
-3.11
-8.89
-14.86
-20.34
-24.85
-28.20
-30.60
-32.55
-34.65
-37.36
-40.79
-44.53
-47.78
-49.52
-48.92
-45.57
-39.65
-31.87
-23.17
-14.46
-6.41
0.61
6.46
11.14
14.64
16.97
18.26
18.76
18.85
18.87
19.00
19.21
19.25
18.86
17.92
16.56
15.10
13.86
13.08
12.73
12.62
12.49
12.11
11.33
10.13
8.49
6.42
3.96
1.14
-1.96
-5.33
-9.03
-13.21
-17.99
-23.30
-28.70
-33.46
-36.65
-37.50
-35.61
-31.07
-24.44
-16.51
-8.08
0.19
7.82
14.47
19.82
23.57
25.55
25.80
24.65
22.65
20.48
18.68
17.55
17.07
17.01
17.09
17.05
16.80
16.30
15.51
14.36
12.78
10.70
8.25
5.64
3.17
1.03
-0.81
-2.58
-4.68
-7.44
-11.06
-15.46
-20.47
-25.84
-31.32
-36.59
-41.18
-44.40
-45.54
-44.03
-39.74
-33.07
-24.89
-16.21
-7.91
-0.59
5.52
10.38
14.05
16.56
17.92
18.15
17.45
16.12
14.59
13.24
12.37
12.04
12.16
12.46
12.68
12.60
12.13
11.30
10.14
8.68
6.89
4.77
2.30
-0.40
-3.18
-5.84
-8.25
-10.45
-12.65
-15.21
-18.42
-22.38
-26.82
-31.12
-34.40
-35.82
-34.71
-30.80
-24.37
-16.07
-6.83
2.36
10.68
17.53
22.56
25.59
26.66
25.92
23.70
20.41
16.61
12.82
9.46
6.76
4.76
3.35
2.41
1.73
1.18
0.62
-0.07
-0.97
-2.10
-3.51
-5.18
-7.12
-9.30
-11.75
-14.50
-17.60
-21.10
-25.09
-29.57
-34.37
-39.09
-43.02
-45.29
-45.09
-41.99
-36.15
-28.34
-19.72
-11.46
-4.40
1.17
5.40
8.69
11.45
13.86
15.85
17.20
17.72
17.34
16.20
14.59
12.85
11.25
9.82
8.47
7.00
5.23
3.16
0.85
-1.53
-3.92
-6.31
-8.80
-11.52
-14.60
-18.13
-22.16
-26.69
-31.57
-36.49
-40.92
-44.22
-45.74
-44.99
-41.77
-36.30
-29.08
-20.88
-12.47
-4.52
2.57
8.63
13.60
17.47
20.14
21.56
21.76
21.02
19.71
18.28
17.00
15.95
15.08
14.33
13.71
13.30
13.00
12.58
11.60
9.73
6.82
3.08
-1.03
-5.05
-8.69
-12.08
-15.58
-19.71
-24.72
-30.45
-36.24
-41.09
-43.89
-43.83
-40.57
-34.34
-25.87
-16.09
-5.92
3.90
12.77
20.20
25.75
29.07
29.97
28.63
25.56
21.58
17.56
14.16
11.60
9.75
8.27
6.80
5.17
3.34
1.38
-0.70
-2.94
-5.43
-8.24
-11.33
-14.68
-18.31
-22.40
-27.19
-32.87
-39.43
-46.46
-53.20
-58.55
-61.45
-61.00
-56.80
-48.98
-38.23
-25.53
-11.99
1.38
13.71
24.29
32.53
38.05
40.75
40.90
39.12
36.28
33.21
30.56
28.59
27.23
26.07
24.67
22.69
20.02
16.88
13.61
10.55
7.78
5.14
2.29
-1.00
-4.86
-9.26
-14.21
-19.83
-26.22
-33.23
-40.11
-45.59
-48.19
-46.81
-41.18
-32.00
-20.68
-8.77
2.45
12.27
20.43
26.92
31.78
35.07
36.83
37.20
36.39
34.69
32.42
29.88
27.36
25.10
23.31
22.04
21.15
20.44
19.54
18.19
16.17
13.37
9.76
5.44
0.66
-4.22
-8.89
-13.24
-17.54
-22.29
-28.03
-34.84
-42.09
-48.40
-51.97
-51.29
-45.67
-35.55
-22.33
-7.93
5.88
17.82
27.28
34.24
39.06
42.22
44.17
45.25
45.69
45.62
45.12
44.28
43.24
42.15
41.14
40.26
39.38
38.26
36.60
34.08
30.53
25.96
20.57
14.73
8.85
3.25
-1.90
-6.63
-11.11
-15.62
-20.46
-25.84
-31.75
-37.86
-43.41
-47.37
-48.63
-46.38
-40.41
-31.16
-19.68
-7.22
5.04
16.21
25.75
33.37
38.95
42.50
44.12
44.07
42.71
40.49
37.84
35.12
32.60
30.43
28.68
27.33
26.27
25.27
24.11
22.50
20.28
17.40
13.86
9.82
5.49
1.12
-3.02
-6.80
-10.37
-14.13
-18.64
-24.31
-31.12
-38.36
-44.82
-49.02
-49.73
-46.37
-39.16
-29.05
-17.35
-5.46
5.49
14.68
21.72
26.50
29.11
29.82
29.06
27.36
25.33
23.53
22.34
21.81
21.71
21.65
21.20
20.12
18.41
16.32
14.11
11.98
9.90
7.71
5.23
2.34
-0.98
-4.71
-8.95
-13.83
-19.37
-25.25
-30.70
-34.59
-35.76
-33.49
-27.77
-19.29
-9.16
1.41
11.43
20.18
27.23
32.33
35.37
36.48
35.95
34.27
31.92
29.31
26.69
24.20
21.96
20.08
18.67
17.70
16.97
16.10
14.71
12.58
9.77
6.52
3.20
0.04
-2.88
-5.66
-8.44
-11.37
-14.60
-18.36
-22.95
-28.59
-35.18
-42.06
-48.05
-51.71
-51.92
-48.24
-41.09
-31.51
-20.73
-9.79
0.55
9.85
17.71
23.80
27.86
29.88
30.13
29.11
27.39
25.41
23.48
21.73
20.26
19.10
18.26
17.66
17.10
16.41
15.37
13.85
11.77
9.10
5.94
2.42
-1.25
-4.91
-8.50
-12.12
-16.08
-20.69
-26.12
-32.20
-38.32
-43.52
-46.65
-46.74
-43.26
-36.34
-26.77
-15.79
-4.73
5.30
13.60
19.93
24.38
27.16
28.52
28.69
27.91
26.47
24.67
22.77
21.02
19.57
18.54
17.95
17.74
17.69
17.46
16.73
15.21
12.88
9.89
6.51
3.05
-0.29
-3.52
-6.75
-10.26
-14.39
-19.37
-25.27
-31.78
-38.15
-43.35
-46.26
-46.05
-42.42
-35.74
-26.84
-16.86
-6.89
2.26
10.10
16.43
21.21
24.51
26.44
27.16
26.87
25.86
24.40
22.74
21.07
19.50
18.11
16.94
16.02
15.27
14.54
13.60
12.26
10.42
8.14
5.58
2.97
0.46
-1.90
-4.16
-6.47
-9.04
-12.13
-16.00
-20.81
-26.46
-32.38
-37.62
-40.98
-41.40
-38.31
-31.89
-22.98
-12.82
-2.68
6.46
14.03
19.81
23.80
26.17
27.19
27.16
26.47
25.48
24.43
23.43
22.48
21.51
20.48
19.37
18.22
17.06
15.87
14.59
13.15
11.45
9.41
6.93
3.98
0.62
-3.01
-6.74
-10.53
-14.54
-19.09
-24.43
-30.46
-36.57
-41.69
-44.60
-44.39
-40.79
-34.25
-25.76
-16.52
-7.54
0.52
7.34
12.86
17.08
19.98
21.49
21.61
20.46
18.45
16.10
14.00
12.59
11.94
11.91
12.10
12.14
11.74
10.83
9.40
7.52
5.24
2.61
-0.34
-3.59
-7.07
-10.76
-14.68
-18.96
-23.77
-29.22
-35.12
-40.93
-45.73
-48.37
-47.93
-43.95
-36.74
-27.26
-16.84
-6.78
1.99
9.00
14.25
17.92
20.22
21.35
21.44
20.70
19.38
17.85
16.47
15.54
15.20
15.39
15.84
16.17
16.01
15.15
13.63
11.62
9.40
7.08
4.64
1.90
-1.29
-4.97
-9.11
-13.63
-18.57
-24.03
-29.99
-36.11
-41.64
-45.56
-46.87
-44.95
-39.73
-31.73
-21.89
-11.31
-1.00
8.15
15.58
21.00
24.40
26.01
26.18
25.39
24.07
22.62
21.27
20.11
19.06
17.97
16.75
15.39
14.00
12.72
11.66
10.78
9.91
8.82
7.30
5.19
2.48
-0.77
-4.47
-8.57
-13.11
-18.19
-23.89
-30.11
-36.39
-41.93
-45.69
-46.69
-44.34
-38.64
-30.27
-20.39
-10.28
-1.05
6.69
12.85
17.69
21.61
24.80
27.22
28.63
28.78
27.63
25.43
22.62
19.73
17.12
15.00
13.34
11.99
10.76
9.45
7.93
6.10
3.91
1.33
-1.62
-4.88
-8.29
-11.69
-14.95
-18.11
-21.46
-25.43
-30.34
-36.14
-42.21
-47.37
-50.23
-49.71
-45.42
-37.80
-27.99
-17.38
-7.15
1.97
9.73
16.17
21.34
25.17
27.45
28.07
27.20
25.30
23.04
21.03
19.64
18.86
18.48
18.20
17.80
17.25
16.59
15.82
14.83
13.44
11.44
8.77
5.54
1.99
-1.54
-4.91
-8.19
-11.76
-16.10
-21.54
-27.94
-34.59
-40.34
-43.88
-44.22
-40.97
-34.44
-25.53
-15.42
-5.28
3.92
11.49
17.06
20.61
22.37
22.76
22.27
21.31
20.14
18.83
17.43
15.96
14.54
13.36
12.53
12.07
11.86
11.73
11.49
10.98
10.12
8.81
6.98
4.53
1.41
-2.46
-7.19
-12.84
-19.34
-26.30
-32.92
-38.09
-40.64
-39.74
-35.25
-27.78
-18.46
-8.64
0.58
8.51
14.93
19.91
23.59
26.00
27.11
26.82
25.21
22.56
19.39
16.29
13.79
12.16
11.37
11.14
11.05
10.74
9.92
8.50
6.47
3.93
1.02
-2.10
-5.31
-8.57
-11.99
-15.83
-20.38
-25.81
-31.95
-38.17
-43.45
-46.57
-46.50
-42.75
-35.56
-25.80
-14.75
-3.66
6.42
14.91
21.57
26.38
29.47
30.99
31.14
30.19
28.47
26.35
24.15
22.18
20.62
19.58
19.03
18.83
18.70
18.28
17.27
15.49
12.94
9.74
6.12
2.29
-1.58
-5.42
-9.27
-13.33
-17.92
-23.36
-29.75
-36.76
-43.59
-49.06
-52.00
-51.57
-47.61
-40.58
-31.41
-21.19
-10.87
-1.21
7.31
14.34
19.70
23.37
25.55
26.66
27.21
27.61
28.10
28.63
29.00
29.00
28.51
27.62
26.50
25.39
24.43
23.66
22.97
22.09
20.70
18.49
15.30
11.21
6.53
1.73
-2.79
-6.83
-10.58
-14.50
-19.17
-24.98
-31.85
-39.13
-45.74
-50.38
-51.95
-49.85
-44.16
-35.59
-25.19
-14.12
-3.34
6.43
14.74
21.33
26.05
28.92
30.09
29.85
28.59
26.78
24.84
23.14
21.94
21.32
21.19
21.33
21.44
21.23
20.48
19.11
17.18
14.83
12.22
9.45
6.57
3.60
0.51
-2.75
-6.28
-10.25
-14.89
-20.34
-26.55
-33.09
-39.11
-43.48
-45.07
-43.12
-37.52
-28.89
-18.40
-7.38
2.98
11.92
19.12
24.52
28.15
30.06
30.31
29.12
26.89
24.17
21.54
19.41
17.90
16.88
16.07
15.19
14.07
12.69
11.13
9.49
7.77
5.85
3.57
0.81
-2.46
-6.15
-10.16
-14.49
-19.24
-24.49
-30.11
-35.59
-40.02
-42.38
-41.81
-37.94
-30.97
-21.67
-11.10
-0.37
9.52
17.83
24.11
28.17
30.12
30.25
29.02
26.91
24.39
21.86
19.59
17.68
16.13
14.83
13.66
12.54
11.48
10.49
9.51
8.37
6.83
4.69
1.90
-1.46
-5.23
-9.36
-13.91
-19.01
-24.51
-29.87
-34.05
-35.81
-34.12
-28.61
-19.75
-8.81
2.57
12.85
20.97
26.47
29.41
30.21
29.37
27.37
24.64
21.56
18.56
16.01
14.26
13.47
13.62
14.45
15.52
16.35
16.56
15.90
14.32
11.93
8.88
5.41
1.82
-1.43
-3.73
-4.61
-4.11
-3.03
-2.91
-5.46
-11.85
-22.07
-34.85
-47.96
-58.97
-65.84
-67.34
-63.06
-53.36
-39.21
-22.15
-4.22
12.39
25.74
34.54
38.48
38.13
34.67
29.53
24.10
19.48
16.35
14.94
15.02
16.04
17.27
18.02
17.79
16.38
13.94
10.81
7.41
4.06
0.91
-2.10
-5.17
-8.55
-12.44
-16.96
-22.15
-27.92
-34.03
-40.04
-45.25
-48.83
-49.92
-47.95
-42.78
-34.85
-25.04
-14.42
-4.02
5.40
13.40
19.75
24.41
27.39
28.82
28.96
28.13
26.69
24.96
23.12
21.27
19.48
17.86
16.54
15.54
14.81
14.11
13.18
11.76
9.75
7.19
4.23
1.03
-2.28
-5.61
-8.99
-12.56
-16.53
-21.17
-26.58
-32.52
-38.34
-42.98
-45.29
-44.37
-39.88
-32.18
-22.25
-11.40
-0.90
8.29
15.65
21.15
25.00
27.52
28.94
29.37
28.83
27.41
25.37
23.11
21.07
19.56
18.62
18.07
17.63
17.04
16.14
14.92
13.38
11.50
9.23
6.56
3.46
-0.01
-3.84
-8.04
-12.72
-17.98
-23.80
-29.96
-35.98
-41.17
-44.79
-46.16
-44.84
-40.75
-34.17
-25.71
-16.26
-6.77
1.82
8.82
13.82
16.78
17.97
17.97
17.43
16.94
16.78
16.83
16.78
16.19
14.90
13.10
11.20
9.61
8.64
8.67
10.38
14.68
22.13
32.15
42.66
50.59
53.19
49.26
39.55
26.02
10.53
-6.18
-24.16
-43.26
-61.83
-76.61
-83.96
-81.69
-70.48
-53.68
-35.87
-20.77
-10.04
-3.29
1.10
4.61
7.94
11.00
13.33
14.69
15.25
15.46
15.81
16.44
17.14
17.46
16.93
15.27
12.53
9.06
5.38
1.98
-0.82
-3.06
-5.07
-7.36
-10.36
-14.36
-19.39
-25.31
-31.91
-38.83
-45.51
-51.13
-54.65
-55.04
-51.64
-44.43
-34.22
-22.34
-10.35
0.49
9.43
16.26
21.18
24.49
26.46
27.26
27.05
26.03
24.48
22.68
20.86
19.15
17.60
16.17
14.81
13.43
11.94
10.24
8.24
5.97
3.51
0.96
-1.62
-4.31
-7.36
-11.11
-15.87
-21.80
-28.74
-36.11
-42.96
-48.15
-50.61
-49.61
-45.02
-37.31
-27.48
-16.72
-6.23
3.12
10.82
16.72
20.87
23.40
24.49
24.36
23.36
21.89
20.43
19.30
18.61
18.23
17.92
17.39
16.45
15.00
13.03
10.55
7.59
4.23
0.63
-2.99
-6.47
-9.77
-13.08
-16.72
-21.06
-26.33
-32.44
-38.88
-44.79
-49.03
-50.51
-48.45
-42.68
-33.68
-22.53
-10.55
1.00
11.22
19.64
26.16
30.84
33.78
35.05
34.84
33.45
31.38
29.17
27.20
25.67
24.54
23.69
23.01
22.49
22.15
21.93
21.61
20.78
19.01
15.93
11.41
5.65
-0.97
-7.97
-14.95
-21.76
-28.41
-34.93
-41.16
-46.61
-50.49
-51.93
-50.31
-45.46
-37.80
-28.23
-17.78
-7.44
2.04
10.12
16.43
20.67
22.77
22.90
21.60
19.59
17.65
16.27
15.62
15.49
15.53
15.42
14.99
14.18
13.03
11.51
9.63
7.43
5.04
2.72
0.70
-0.92
-2.29
-3.86
-6.10
-9.36
-13.45
-17.60
-20.63
-21.32
-18.88
-13.30
-5.32
3.88
13.18
21.85
29.60
36.43
42.28
46.85
49.68
50.33
48.65
44.93
39.88
34.36
29.20
24.95
21.82
19.70
18.24
17.04
15.71
13.96
11.66
8.84
5.57
1.97
-1.91
-6.06
-10.58
-15.66
-21.51
-28.21
-35.49
-42.63
-48.48
-51.73
-51.27
-46.63
-38.11
-26.78
-14.13
-1.66
9.48
18.63
25.59
30.42
33.33
34.54
34.31
32.96
30.83
28.29
25.68
23.20
20.95
18.98
17.27
15.80
14.47
13.21
11.83
10.18
8.15
5.68
2.81
-0.40
-3.91
-7.78
-12.20
-17.40
-23.54
-30.52
-37.83
-44.53
-49.48
-51.55
-50.03
-44.81
-36.48
-26.08
-14.87
-4.01
5.65
13.60
19.70
23.98
26.64
27.91
28.06
27.32
25.95
24.20
22.33
20.63
19.31
18.47
18.03
17.74
17.23
16.19
14.43
11.99
9.06
5.87
2.62
-0.69
-4.13
-7.81
-11.79
-16.12
-20.86
-26.07
-31.82
-37.90
-43.83
-48.73
-51.59
-51.54
-48.26
-42.03
-33.67
-24.23
-14.62
-5.41
3.13
10.89
17.66
23.08
26.77
28.50
28.38
26.93
24.85
22.86
21.39
20.57
20.27
20.24
20.30
20.29
20.06
19.36
17.87
15.27
11.45
6.57
1.07
-4.51
-9.69
-14.21
-18.15
-21.85
-25.76
-30.32
-35.72
-41.73
-47.68
-52.47
-54.84
-53.82
-48.95
-40.60
-29.84
-18.16
-6.96
2.72
10.44
16.23
20.37
23.13
24.69
25.18
24.73
23.58
22.07
20.55
19.30
18.42
17.90
17.67
17.57
17.46
17.12
16.30
14.82
12.58
9.65
6.27
2.68
-0.95
-4.65
-8.68
-13.36
-18.94
-25.39
-32.24
-38.61
-43.33
-45.31
-43.83
-38.85
-31.04
-21.54
-11.64
-2.35
5.66
12.07
16.72
19.44
20.14
18.90
16.22
12.93
10.04
8.36
8.14
9.06
10.36
11.24
11.15
9.97
7.93
5.45
2.89
0.41
-1.98
-4.43
-7.18
-10.47
-14.52
-19.41
-24.99
-30.73
-35.81
-39.24
-40.11
-37.89
-32.57
-24.63
-14.92
-4.43
5.98
15.61
24.00
30.84
35.91
39.07
40.32
39.86
38.14
35.81
33.57
31.95
31.15
31.03
31.15
31.04
30.27
28.63
26.13
22.89
19.15
15.11
10.92
6.60
2.07
-2.86
-8.34
-14.30
-20.34
-25.67
-29.33
-30.40
-28.35
-23.20
-15.57
-6.46
3.01
11.96
19.82
26.32
31.31
34.64
36.12
35.64
33.33
29.62
25.20
20.86
17.18
14.41
12.46
10.95
9.53
7.93
6.06
3.99
1.80
-0.43
-2.67
-4.96
-7.48
-10.54
-14.56
-19.97
-26.92
-35.00
-43.21
-50.02
-53.91
-53.78
-49.38
-41.32
-30.86
-19.44
-8.31
1.71
10.19
17.04
22.25
25.84
27.83
28.32
27.57
26.04
24.26
22.76
21.78
21.31
21.05
20.64
19.84
18.63
17.11
15.43
13.57
11.33
8.45
4.72
0.17
-5.04
-10.70
-16.75
-23.30
-30.51
-38.26
-45.95
-52.45
-56.36
-56.51
-52.40
-44.48
-33.99
-22.53
-11.50
-1.78
6.40
13.20
18.82
23.33
26.56
28.32
28.59
27.65
25.98
24.14
22.54
21.33
20.47
19.72
18.88
17.73
16.15
14.12
11.62
8.72
5.48
1.99
-1.73
-5.69
-9.93
-14.50
-19.45
-24.88
-30.88
-37.47
-44.46
-51.30
-57.12
-60.77
-61.22
-57.85
-50.73
-40.63
-28.73
-16.29
-4.36
6.38
15.56
23.01
28.61
32.35
34.36
34.94
34.56
33.78
33.03
32.52
32.24
31.99
31.61
31.05
30.42
29.87
29.39
28.73
27.46
25.17
21.74
17.40
12.67
8.17
4.26
0.97
-2.02
-5.27
-9.33
-14.60
-21.21
-28.88
-36.89
-44.15
-49.37
-51.34
-49.35
-43.37
-34.16
-23.01
-11.39
-0.59
8.52
15.54
20.44
23.40
24.67
24.59
23.53
21.93
20.18
18.59
17.26
16.14
15.11
14.05
12.90
11.63
10.24
8.74
7.16
5.56
4.00
2.49
0.93
-0.88
-3.21
-6.29
-10.28
-15.25
-21.17
-27.90
-35.18
-42.51
-49.16
-54.19
-56.61
-55.58
-50.78
-42.49
-31.64
-19.60
-7.77
2.76
11.50
18.45
23.92
28.22
31.46
33.55
34.40
34.14
33.14
31.96
31.12
30.86
31.13
31.61
31.89
31.66
30.79
29.25
27.03
24.11
20.38
15.80
10.45
4.57
-1.57
-7.76
-14.06
-20.65
-27.73
-35.26
-42.78
-49.39
-53.89
-55.16
-52.49
-45.85
-35.95
-24.11
-11.86
-0.59
8.76
15.84
20.79
24.00
25.88
26.79
26.96
26.65
26.09
25.52
25.12
24.91
24.82
24.67
24.33
23.66
22.59
21.10
19.19
16.89
14.22
11.23
7.89
4.23
0.21
-4.18
-9.01
-14.39
-20.42
-27.15
-34.37
-41.53
-47.72
-51.84
-52.94
-50.43
-44.38
-35.41
-24.56
-12.99
-1.69
8.64
17.59
24.94
30.57
34.34
36.21
36.33
35.06
32.99
30.81
29.03
27.90
27.35
27.11
26.89
26.49
25.86
25.04
24.06
22.85
21.28
19.16
16.33
12.73
8.43
3.59
-1.51
-6.60
-11.47
-16.11
-20.74
-25.83
-31.87
-39.07
-47.15
-55.19
-61.78
-65.46
-65.11
-60.39
-51.82
-40.61
-28.21
-15.98
-4.77
5.02
13.40
20.40
26.03
30.21
32.87
34.14
34.34
33.96
33.41
32.92
32.54
32.16
31.67
31.06
30.39
29.71
29.02
28.17
26.95
25.13
22.56
19.19
15.15
10.70
6.12
1.71
-2.39
-6.21
-9.97
-14.02
-18.73
-24.37
-30.92
-37.98
-44.72
-50.04
-52.80
-52.16
-47.88
-40.36
-30.60
-19.91
-9.54
-0.47
6.74
11.95
15.32
17.19
17.89
17.82
17.28
16.55
15.89
15.43
15.23
15.22
15.29
15.32
15.22
14.95
14.42
13.47
11.81
9.17
5.36
0.38
-5.57
-12.06
-18.61
-24.85
-30.59
-35.94
-41.21
-46.77
-52.79
-59.01
-64.68
-68.69
-69.86
-67.37
-61.03
-51.40
-39.64
-27.06
-14.82
-3.66
6.10
14.43
21.33
26.74
30.57
32.73
33.28
32.46
30.66
28.37
26.04
24.02
22.51
21.48
20.74
19.94
18.77
17.00
14.62
11.77
8.66
5.42
2.00
-1.82
-6.38
-11.93
-18.52
-25.84
-33.22
-39.69
-44.19
-45.78
-43.88
-38.40
-29.84
-19.17
-7.64
3.59
13.67
22.17
29.04
34.35
38.07
40.05
40.12
38.33
35.13
31.30
27.75
25.15
23.76
23.35
23.38
23.23
22.43
20.75
18.24
15.08
11.55
7.84
4.04
0.16
-3.90
-8.24
-12.96
-18.15
-23.99
-30.60
-37.92
-45.51
-52.45
-57.44
-59.15
-56.65
-49.80
-39.38
-26.82
-13.77
-1.64
8.69
16.88
22.97
27.14
29.66
30.86
31.16
31.01
30.79
30.64
30.38
29.70
28.33
26.27
23.79
21.30
19.06
17.04
14.93
12.32
8.89
4.66
-0.07
-4.88
-9.45
-13.73
-18.05
-22.93
-28.92
-36.25
-44.66
-53.32
-60.99
-66.34
-68.29
-66.28
-60.45
-51.59
-40.89
-29.66
-18.98
-9.54
-1.56
5.06
10.43
14.50
16.90
17.18
15.42
12.71
11.33
14.06
22.98
38.32
58.14
78.88
96.54
107.82
110.75
104.87
91.01
71.29
48.94
27.93
12.04
3.69
2.87
7.11
12.41
14.89
12.13
3.68
-9.27
-24.78
-40.71
-55.02
-65.79
-71.28
-70.25
-62.42
-48.80
-31.64
-13.90
1.67
13.30
20.59
24.37
26.07
27.00
27.81
28.44
28.43
27.40
25.38
22.87
20.59
19.12
18.66
18.92
19.33
19.24
18.18
16.03
13.01
9.60
6.24
3.21
0.46
-2.33
-5.58
-9.61
-14.59
-20.45
-27.01
-33.97
-40.82
-46.81
-50.87
-51.93
-49.20
-42.62
-32.99
-21.76
-10.54
-0.58
7.48
13.60
18.05
21.15
23.04
23.74
23.25
21.76
19.59
17.19
14.95
13.07
11.55
10.22
8.84
7.24
5.35
3.21
0.96
-1.35
-3.73
-6.35
-9.42
-13.12
-17.57
-22.82
-28.80
-35.30
-41.93
-47.99
-52.53
-54.55
-53.20
-48.17
-39.81
-29.11
-17.42
-6.08
3.93
12.14
18.48
23.08
26.10
27.61
27.71
26.58
24.61
22.32
20.25
18.74
17.87
17.47
17.19
16.70
15.76
14.27
12.24
9.75
6.89
3.72
0.29
-3.45
-7.58
-12.33
-17.90
-24.32
-31.22
-37.75
-42.67
-44.67
-42.85
-37.00
-27.77
-16.41
-4.42
6.87
16.61
24.45
30.44
34.75
37.60
39.05
39.17
38.05
35.89
33.05
29.93
26.95
24.41
22.44
21.00
19.91
18.88
17.66
16.03
13.88
11.18
8.04
4.61
1.07
-2.44
-5.99
-9.83
-14.37
-20.04
-27.02
-34.96
-42.98
-49.73
-53.79
-54.06
-50.12
-42.34
-31.74
-19.65
-7.33
4.27
14.53
23.10
29.79
34.49
37.17
38.04
37.50
36.13
34.50
33.01
31.84
30.91
30.03
29.00
27.69
26.11
24.34
22.51
20.74
18.99
17.01
14.34
10.39
4.71
-2.80
-11.72
-21.11
-29.77
-36.65
-41.24
-43.78
-45.19
-46.73
-49.46
-53.78
-59.20
-64.42
-67.69
-67.44
-62.72
-53.54
-40.83
-26.12
-11.08
2.93
15.09
25.13
33.20
39.54
44.33
47.61
49.43
49.97
49.62
48.86
48.16
47.73
47.46
47.02
46.10
44.57
42.58
40.53
38.79
37.46
36.32
34.86
32.55
29.06
24.43
18.96
13.03
6.99
0.99
-4.84
-10.41
-15.60
-20.36
-24.90
-29.65
-35.14
-41.64
-48.87
-55.84
-61.10
-63.23
-61.31
-55.31
-46.02
-34.76
-22.95
-11.72
-1.77
6.53
13.10
17.88
20.85
22.11
21.88
20.61
18.89
17.29
16.24
15.86
16.01
16.37
16.61
16.59
16.36
16.08
15.85
15.62
15.10
13.92
11.75
8.53
4.46
-0.06
-4.57
-8.71
-12.38
-15.70
-19.00
-22.67
-27.06
-32.34
-38.42
-44.88
-50.99
-55.77
-58.14
-57.19
-52.48
-44.11
-32.90
-20.08
-7.05
4.97
15.10
22.94
28.42
31.67
32.95
32.62
31.12
28.95
26.62
24.47
22.64
21.08
19.61
18.12
16.54
14.96
13.50
12.24
11.09
9.90
8.38
6.28
3.49
0.09
-3.63
-7.33
-10.75
-13.88
-16.99
-20.54
-24.97
-30.44
-36.65
-42.76
-47.59
-49.87
-48.69
-43.74
-35.43
-24.75
-13.04
-1.56
8.74
17.27
23.81
28.33
30.86
31.54
30.61
28.52
25.84
23.21
21.15
19.94
19.52
19.59
19.65
19.26
18.16
16.35
14.03
11.39
8.57
5.50
2.09
-1.81
-6.21
-11.08
-16.37
-22.12
-28.41
-35.19
-42.12
-48.39
-52.93
-54.58
-52.58
-46.78
-37.71
-26.47
-14.33
-2.49
8.15
17.03
23.84
28.42
30.76
30.98
29.50
26.91
23.95
21.18
18.87
16.97
15.20
13.32
11.30
9.33
7.70
6.53
5.70
4.79
3.35
0.99
-2.42
-6.75
-11.67
-16.77
-21.65
-26.04
-29.95
-33.73
-37.99
-43.33
-50.02
-57.61
-64.91
-70.22
-71.89
-68.95
-61.39
-50.25
-37.10
-23.57
-10.88
0.26
9.65
17.24
23.03
27.01
29.27
30.05
29.83
29.14
28.38
27.72
27.01
26.04
24.65
22.90
21.06
19.45
18.22
17.27
16.21
14.58
12.05
8.60
4.51
0.20
-3.96
-7.87
-11.71
-15.87
-20.79
-26.78
-33.85
-41.69
-49.57
-56.45
-61.17
-62.71
-60.38
-54.13
-44.47
-32.38
-19.06
-5.70
6.66
17.29
25.75
31.88
35.79
37.80
38.32
37.79
36.58
35.01
33.30
31.56
29.87
28.30
26.92
25.86
25.25
25.12
25.33
25.51
25.17
23.85
21.28
17.53
12.92
7.92
2.99
-1.59
-5.79
-9.84
-14.16
-19.25
-25.45
-32.80
-40.78
-48.35
-54.16
-56.90
-55.68
-50.28
-41.19
-29.39
-16.21
-2.97
9.12
19.14
26.58
31.27
33.51
33.83
32.92
31.37
29.59
27.83
26.18
24.62
23.17
21.78
20.50
19.41
18.58
17.99
17.51
16.88
15.75
13.83
10.96
7.20
2.85
-1.74
-6.24
-10.52
-14.77
-19.42
-24.90
-31.44
-38.70
-45.78
-51.31
-53.86
-52.44
-46.74
-37.26
-25.12
-11.71
1.59
13.68
23.88
31.86
37.62
41.35
43.36
44.05
43.72
42.61
40.83
38.43
35.51
32.31
29.22
26.66
24.94
24.02
23.51
22.82
21.36
18.91
15.52
11.55
7.35
3.15
-1.07
-5.42
-10.06
-15.23
-21.18
-28.15
-36.19
-44.91
-53.35
-60.06
-63.47
-62.43
-56.60
-46.52
-33.55
-19.28
-5.17
7.72
18.87
28.04
35.23
40.41
43.64
45.00
44.81
43.50
41.61
39.58
37.74
36.21
34.96
33.98
33.24
32.75
32.50
32.36
32.12
31.42
29.88
27.17
23.15
17.93
11.93
5.76
-0.03
-5.05
-9.34
-13.28
-17.51
-22.69
-29.30
-37.44
-46.68
-56.04
-64.07
-69.23
-70.21
-66.37
-57.97
-46.10
-32.35
-18.36
-5.43
5.69
14.81
21.98
27.39
31.16
33.37
34.18
33.92
33.06
32.08
31.37
31.04
30.97
30.93
30.72
30.24
29.51
28.60
27.55
26.30
24.72
22.68
20.08
16.86
13.02
8.61
3.71
-1.51
-6.82
-11.96
-16.79
-21.33
-25.89
-30.94
-36.95
-44.12
-52.10
-60.00
-66.42
-69.85
-69.08
-63.62
-53.86
-40.98
-26.62
-12.38
0.60
11.75
20.98
28.37
33.91
37.48
38.98
38.62
36.99
34.94
33.29
32.48
32.46
32.79
32.98
32.75
32.15
31.39
30.68
29.95
28.92
27.20
24.46
20.69
16.09
11.06
6.01
1.22
-3.20
-7.39
-11.59
-16.16
-21.46
-27.72
-34.94
-42.73
-50.28
-56.38
-59.73
-59.25
-54.50
-45.77
-34.07
-20.78
-7.32
5.18
16.00
24.75
31.30
35.64
37.91
38.40
37.55
35.90
33.92
31.95
30.14
28.52
27.07
25.80
24.78
24.04
23.55
23.13
22.48
21.28
19.21
16.15
12.17
7.51
2.58
-2.19
-6.53
-10.35
-13.91
-17.68
-22.28
-28.28
-35.90
-44.82
-54.08
-62.24
-67.73
-69.25
-66.18
-58.69
-47.68
-34.51
-20.55
-7.03
5.16
15.43
23.44
29.04
32.31
33.58
33.36
32.26
30.85
29.51
28.41
27.44
26.41
25.15
23.68
22.18
20.91
20.02
19.46
18.87
17.79
15.73
12.43
7.90
2.46
-3.39
-9.19
-14.60
-19.59
-24.38
-29.45
-35.26
-42.11
-49.89
-57.96
-65.22
-70.33
-72.01
-69.43
-62.44
-51.63
-38.21
-23.71
-9.55
3.17
13.88
22.39
28.75
33.13
35.64
36.50
36.02
34.74
33.28
32.18
31.73
31.80
31.99
31.80
30.93
29.37
27.43
25.50
23.83
22.43
20.95
18.95
16.00
11.89
6.68
0.71
-5.58
-11.76
-17.64
-23.36
-29.41
-36.36
-44.63
-54.09
-63.98
-72.98
-79.40
-81.59
-78.23
-68.68
-53.25
-33.31
-11.18
10.37
28.71
42.00
49.52
51.66
49.51
44.50
38.03
31.32
25.38
20.90
18.15
16.89
16.47
16.09
15.19
13.60
11.62
9.72
8.32
7.60
7.44
7.46
7.13
5.90
3.34
-0.70
-6.02
-12.10
-18.20
-23.66
-28.23
-32.16
-36.15
-41.05
-47.33
-54.79
-62.37
-68.40
-71.15
-69.33
-62.57
-51.50
-37.56
-22.49
-7.92
5.01
15.70
24.02
30.09
34.13
36.43
37.31
37.14
36.35
35.27
34.13
33.00
31.88
30.78
29.74
28.87
28.22
27.70
27.09
26.03
24.14
21.13
16.96
11.81
6.13
0.42
-4.91
-9.80
-14.57
-19.87
-26.35
-34.27
-43.18
-51.93
-58.88
-62.47
-61.68
-56.33
-47.06
-35.11
-21.95
-8.96
2.77
12.49
19.82
24.67
27.23
27.89
27.19
25.67
23.74
21.68
19.60
17.64
15.96
14.88
14.71
15.54
17.14
18.88
20.00
19.85
18.25
15.45
12.01
8.48
5.15
1.95
-1.42
-5.27
-9.84
-15.29
-21.74
-29.19
-37.34
-45.45
-52.21
-56.05
-55.59
-50.14
-40.04
-26.62
-11.81
2.40
14.45
23.52
29.53
32.98
34.63
35.22
35.30
35.14
34.77
34.03
32.72
30.75
28.24
25.66
23.70
23.04
23.99
26.13
28.35
29.02
26.67
20.53
10.95
-0.64
-12.15
-21.56
-27.53
-29.82
-29.39
-28.01
-27.75
-30.30
-36.37
-45.51
-56.07
-65.76
-72.19
-73.63
-69.32
-59.69
-46.10
-30.43
-14.58
-0.07
12.20
21.87
29.02
33.91
36.91
38.36
38.73
38.47
38.02
37.66
37.41
37.02
36.15
34.48
31.99
28.98
26.04
23.80
22.66
22.59
23.06
23.22
22.18
19.43
15.05
9.57
3.84
-1.49
-6.19
-10.50
-15.03
-20.43
-27.10
-35.02
-43.68
-52.17
-59.26
-63.67
-64.33
-60.66
-52.67
-41.08
-27.10
-12.26
1.98
14.50
24.63
32.18
37.35
40.51
42.13
42.68
42.54
42.06
41.48
40.96
40.56
40.26
39.98
39.63
39.17
38.57
37.77
36.65
35.02
32.72
29.61
25.72
21.21
16.32
11.34
6.51
1.98
-2.28
-6.45
-10.92
-16.12
-22.40
-29.83
-38.00
-45.93
-52.31
-55.69
-55.01
-49.90
-40.81
-28.93
-15.77
-2.78
9.01
19.04
27.18
33.46
37.92
40.59
41.54
41.03
39.50
37.58
35.84
34.63
34.00
33.78
33.67
33.45
33.06
32.52
31.89
31.09
29.90
27.98
25.10
21.22
16.55
11.53
6.50
1.74
-2.74
-7.14
-11.79
-17.05
-23.21
-30.42
-38.52
-47.03
-55.00
-61.20
-64.32
-63.36
-57.98
-48.67
-36.60
-23.33
-10.32
1.41
11.43
19.75
26.61
32.21
36.53
39.42
40.73
40.47
38.99
36.99
35.36
34.99
36.43
39.57
43.67
47.63
50.31
51.03
49.57
46.04
40.52
32.93
23.26
11.82
-0.44
-12.16
-22.03
-29.41
-34.63
-38.78
-43.12
-48.56
-55.34
-63.16
-71.45
-79.56
-86.79
-92.29
-95.03
-94.07
-88.86
-79.51
-66.88
-52.31
-37.22
-22.77
-9.69
1.69
11.27
19.02
24.92
28.99
31.34
32.26
32.12
31.37
30.44
29.62
29.12
29.02
29.32
29.92
30.71
31.53
32.20
32.53
32.32
31.40
29.61
26.89
23.21
18.70
13.57
8.12
2.67
-2.55
-7.44
-12.01
-16.48
-21.11
-26.29
-32.34
-39.47
-47.53
-55.88
-63.36
-68.49
-69.88
-66.67
-58.86
-47.41
-33.88
-19.96
-6.98
4.25
13.45
20.64
25.96
29.52
31.51
32.22
32.08
31.58
31.04
30.59
30.08
29.28
28.03
26.42
24.74
23.41
22.74
22.76
23.19
23.50
23.11
21.55
18.62
14.43
9.34
3.84
-1.57
-6.57
-11.06
-15.29
-19.69
-24.76
-30.88
-38.11
-46.07
-53.98
-60.75
-65.20
-66.32
-63.50
-56.72
-46.59
-34.21
-20.83
-7.66
4.41
14.83
23.28
29.63
33.81
35.91
36.24
35.36
33.90
32.47
31.38
30.63
30.00
29.28
28.36
27.36
26.48
25.85
25.42
24.87
23.78
21.73
18.53
14.28
9.40
4.39
-0.30
-4.53
-8.49
-12.67
-17.66
-23.88
-31.40
-39.81
-48.23
-55.46
-60.23
-61.45
-58.53
-51.52
-41.12
-28.51
-15.08
-2.08
9.53
19.17
26.55
31.61
34.41
35.17
34.33
32.45
30.16
27.97
26.17
24.78
23.68
22.66
21.62
20.56
19.58
18.76
18.10
17.42
16.38
14.64
11.93
8.15
3.45
-1.82
-7.25
-12.47
-17.36
-22.11
-27.16
-33.10
-40.33
-48.81
-57.82
-66.00
-71.67
-73.30
-70.03
-61.96
-50.18
-36.26
-21.88
-8.32
3.71
13.93
22.36
29.01
33.90
37.01
38.47
38.60
37.84
36.64
35.26
33.81
32.22
30.50
28.79
27.46
26.86
27.12
27.91
28.48
27.91
25.52
21.19
15.36
8.87
2.47
-3.44
-8.90
-14.28
-20.06
-26.63
-34.13
-42.48
-51.23
-59.58
-66.42
-70.51
-70.75
-66.54
-57.99
-45.95
-31.86
-17.33
-3.84
7.58
16.41
22.67
26.68
28.94
29.96
30.12
29.70
28.86
27.70
26.29
24.74
23.11
21.53
20.06
18.75
17.58
16.51
15.45
14.23
12.64
10.45
7.50
3.76
-0.58
-5.18
-9.72
-14.05
-18.37
-23.21
-29.18
-36.66
-45.40
-54.41
-62.15
-66.88
-67.27
-62.78
-53.91
-41.88
-28.37
-14.94
-2.71
7.74
16.25
22.96
27.98
31.40
33.24
33.58
32.68
30.99
29.02
27.19
25.75
24.72
23.93
23.20
22.35
21.29
19.94
18.25
16.15
13.62
10.67
7.35
3.78
-0.02
-4.19
-9.02
-14.84
-21.88
-30.02
-38.66
-46.73
-52.91
-55.95
-55.11
-50.26
-41.90
-30.95
-18.45
-5.36
7.44
19.20
29.26
37.03
42.15
44.65
44.92
43.69
41.90
40.53
40.51
42.41
46.27
51.48
56.83
60.79
61.88
59.10
52.25
42.01
29.82
17.53
6.89
-0.90
-5.52
-7.57
-8.34
-9.32
-11.80
-16.55
-23.84
-33.48
-44.96
-57.37
-69.32
-78.95
-84.32
-83.93
-77.34
-65.43
-50.17
-34.00
-18.97
-6.20
4.18
12.70
20.00
26.32
31.48
35.02
36.67
36.58
35.35
33.72
32.34
31.50
31.17
31.17
31.29
31.38
31.36
31.13
30.51
29.27
27.23
24.23
20.28
15.47
10.01
4.16
-1.77
-7.64
-13.53
-19.81
-27.06
-35.68
-45.65
-56.25
-66.13
-73.60
-77.08
-75.53
-68.78
-57.54
-43.18
-27.39
-11.85
2.19
14.01
23.51
30.94
36.70
41.07
44.12
45.82
46.15
45.28
43.63
41.76
40.24
39.43
39.37
39.79
40.23
40.23
39.45
37.87
35.66
33.04
30.17
27.06
23.54
19.44
14.71
9.45
3.88
-1.72
-7.15
-12.27
-17.16
-22.02
-27.24
-33.29
-40.61
-49.35
-59.15
-68.98
-77.26
-82.16
-82.19
-76.61
-65.79
-51.00
-34.11
-16.97
-1.00
13.05
24.94
34.73
42.55
48.41
52.31
54.33
54.78
54.13
52.98
51.86
51.12
50.80
50.69
50.40
49.58
48.05
45.83
43.21
40.48
37.83
35.18
32.23
28.55
23.81
17.95
11.17
3.88
-3.47
-10.56
-17.19
-23.36
-29.14
-34.74
-40.46
-46.72
-53.86
-61.96
-70.56
-78.54
-84.29
-86.11
-82.87
-74.32
-61.33
-45.52
-28.84
-12.97
1.03
12.70
22.01
29.05
33.93
36.74
37.70
37.27
36.14
35.00
34.34
34.28
34.49
34.53
34.02
32.92
31.53
30.28
29.42
28.81
28.00
26.40
23.63
19.65
14.82
9.57
4.32
-0.78
-5.79
-10.89
-16.36
-22.48
-29.52
-37.60
-46.45
-55.27
-62.70
-67.13
-67.13
-62.03
-52.14
-38.74
-23.64
-8.71
4.65
15.63
24.06
30.11
34.08
36.17
36.55
35.34
32.80
29.40
25.74
22.45
19.99
18.48
17.79
17.51
17.20
16.51
15.25
13.39
10.98
8.16
5.06
1.77
-1.70
-5.47
-9.84
-15.23
-22.02
-30.22
-39.36
-48.29
-55.38
-58.95
-57.75
-51.48
-40.86
-27.44
-13.13
0.35
11.91
21.10
27.97
32.79
35.83
37.22
37.07
35.59
33.08
29.98
26.73
23.68
21.08
19.04
17.54
16.52
15.78
15.04
13.95
12.13
9.29
5.30
0.25
-5.56
-11.72
-17.82
-23.63
-29.19
-34.80
-40.97
-48.10
-56.26
-64.91
-72.92
-78.75
-80.89
-78.34
-70.90
-59.27
-44.86
-29.43
-14.62
-1.70
8.62
16.19
21.29
24.41
26.10
26.83
26.85
26.31
25.32
24.07
22.81
21.75
20.87
19.95
18.85
17.87
18.01
20.67
26.87
36.35
47.31
56.89
62.34
62.16
56.42
46.31
33.13
17.71
0.56
-17.34
-33.98
-46.48
-52.17
-49.93
-40.92
-28.16
-15.20
-4.70
2.41
6.69
9.42
11.61
13.63
15.21
15.94
15.67
14.66
13.37
12.24
11.48
11.00
10.56
9.98
9.20
8.27
7.19
5.88
4.12
1.68
-1.50
-5.31
-9.49
-13.85
-18.23
-22.60
-27.03
-31.63
-36.57
-42.20
-48.89
-56.89
-66.02
-75.46
-83.78
-89.31
-90.74
-87.60
-80.58
-71.23
-61.45
-52.79
-46.09
-41.44
-38.52
-37.11
-37.24
-39.20
-43.13
-48.75
-55.11
-60.85
-64.64
-65.54
-63.30
-58.34
-51.54
-43.97
-36.66
-30.45
-25.77
-22.57
-20.31
-18.27
-15.81
-12.88
-10.04
-8.39
-9.10
-12.86
-19.44
-27.67
-35.63
-41.13
-42.36
-38.24
-28.75
-14.82
1.85
19.23
35.45
49.15
59.67
66.99
71.56
73.94
74.68
74.21
72.85
70.98
69.00
67.42
66.73
67.21
68.80
71.02
73.08
74.05
73.23
70.34
65.53
59.25
52.08
44.49
36.80
29.22
21.84
14.66
7.52
0.15
-7.67
-15.80
-23.48
-29.27
-31.38
-28.25
-19.14
-4.57
13.77
33.45
52.02
67.59
79.20
86.77
90.76
91.93
90.96
88.50
85.04
81.06
76.98
73.17
69.91
67.41
65.77
65.01
65.00
65.43
65.85
65.70
64.40
61.43
56.46
49.39
40.45
30.10
18.95
7.59
-3.61
-14.42
-24.57
-33.53
-40.38
-44.01
-43.53
-38.66
-29.97
-18.74
-6.55
5.11
15.15
22.97
28.36
31.44
32.47
31.87
30.05
27.35
23.94
19.91
15.32
10.39
5.49
1.04
-2.64
-5.52
-7.85
-10.09
-12.67
-15.86
-19.68
-24.00
-28.68
-33.58
-38.72
-44.10
-49.73
-55.59
-61.74
-68.29
-75.32
-82.64
-89.64
-95.18
-97.80
-96.19
-89.63
-78.27
-63.17
-45.97
-28.44
-12.03
2.28
14.05
23.14
29.64
33.71
35.61
35.75
34.68
33.04
31.40
30.14
29.30
28.69
27.93
26.65
24.57
21.63
17.91
13.60
8.88
3.90
-1.32
-6.83
-12.65
-18.78
-25.19
-31.93
-39.16
-47.14
-55.95
-65.23
-74.04
-80.89
-84.20
-82.85
-76.64
-66.39
-53.61
-39.92
-26.58
-14.22
-2.93
7.42
16.95
25.62
33.28
39.76
44.87
48.40
50.08
49.76
47.52
43.86
39.64
35.83
33.07
31.49
30.65
29.77
28.18
25.56
21.94
17.57
12.67
7.27
1.32
-5.26
-12.46
-20.23
-28.46
-36.97
-45.41
-53.06
-58.80
-61.34
-59.61
-53.20
-42.63
-29.25
-14.76
-0.75
11.71
22.16
30.57
37.05
41.65
44.37
45.20
44.38
42.40
39.93
37.61
35.78
34.42
33.19
31.65
29.55
26.91
24.05
21.35
19.05
17.11
15.22
12.91
9.75
5.50
0.05
-6.51
-13.95
-21.82
-29.37
-35.59
-39.31
-39.56
-35.85
-28.33
-17.87
-5.67
6.95
18.90
29.43
38.08
44.58
48.79
50.68
50.38
48.27
44.95
41.12
37.47
34.48
32.31
30.77
29.42
27.75
25.44
22.40
18.88
15.26
11.80
8.47
4.92
0.66
-4.77
-11.55
-19.64
-28.74
-38.35
-47.79
-56.16
-62.35
-65.24
-64.01
-58.43
-49.06
-37.11
-24.19
-11.78
-1.03
7.51
13.74
17.87
20.22
21.08
20.72
19.37
17.31
14.86
12.43
10.33
8.80
7.85
7.35
7.07
6.76
6.16
5.09
3.38
0.92
-2.33
-6.30
-10.85
-15.80
-21.01
-26.47
-32.35
-38.95
-46.46
-54.75
-63.21
-70.72
-75.83
-77.26
-74.21
-66.69
-55.49
-41.95
-27.61
-13.79
-1.40
9.07
17.47
23.82
28.27
31.01
32.24
32.17
31.03
29.03
26.41
23.47
20.58
18.06
16.14
14.85
13.98
13.18
12.03
10.23
7.60
4.15
-0.02
-4.69
-9.63
-14.69
-19.88
-25.43
-31.73
-39.06
-47.31
-55.74
-63.07
-67.75
-68.49
-64.64
-56.46
-45.02
-31.80
-18.34
-5.85
4.93
13.73
20.60
25.77
29.50
31.97
33.27
33.49
32.70
31.11
28.99
26.70
24.53
22.71
21.30
20.27
19.51
18.89
18.30
17.55
16.40
14.57
11.84
8.17
3.79
-0.89
-5.44
-9.68
-13.77
-18.19
-23.47
-29.86
-37.00
-43.91
-49.17
-51.30
-49.25
-42.73
-32.26
-19.11
-4.90
8.82
20.82
30.43
37.46
42.09
44.65
45.46
44.86
43.16
40.79
38.19
35.75
33.70
32.08
30.71
29.35
27.73
25.66
23.06
19.96
16.41
12.47
8.18
3.52
-1.51
-6.79
-12.15
-17.37
-22.42
-27.49
-33.01
-39.39
-46.65
-54.15
-60.61
-64.44
-64.25
-59.42
-50.31
-38.17
-24.67
-11.43
0.34
10.05
17.58
23.03
26.55
28.27
28.26
26.74
24.09
20.86
17.64
14.96
13.10
12.06
11.57
11.23
10.61
9.37
7.35
4.58
1.20
-2.60
-6.65
-10.92
-15.48
-20.51
-26.25
-32.86
-40.34
-48.32
-56.02
-62.32
-65.96
-65.90
-61.71
-53.69
-42.82
-30.48
-18.07
-6.67
3.08
10.87
16.65
20.38
22.12
22.06
20.58
18.26
15.79
13.72
12.37
11.78
11.83
12.28
12.96
13.62
14.00
13.79
12.70
10.60
7.59
3.90
-0.18
-4.44
-8.76
-13.06
-17.36
-21.72
-26.42
-31.82
-38.17
-45.31
-52.32
-57.63
-59.51
-56.65
-48.78
-36.80
-22.47
-7.74
5.87
17.52
27.05
34.58
40.21
43.94
45.73
45.71
44.29
42.05
39.63
37.44
35.62
34.05
32.56
31.06
29.62
28.30
27.14
25.99
24.54
22.44
19.43
15.43
10.59
5.21
-0.41
-6.09
-11.94
-18.29
-25.46
-33.53
-41.99
-49.63
-54.85
-56.11
-52.53
-44.30
-32.57
-19.11
-5.73
6.26
16.18
23.93
29.70
33.70
36.03
36.74
35.95
33.96
31.23
28.26
25.52
23.25
21.57
20.44
19.79
19.45
19.20
18.69
17.52
15.39
12.21
8.24
3.98
-0.00
-3.32
-6.01
-8.48
-11.45
-15.66
-21.53
-28.95
-37.15
-44.86
-50.54
-52.92
-51.26
-45.65
-36.96
-26.50
-15.67
-5.59
3.07
10.12
15.59
19.67
22.45
23.99
24.41
23.91
22.90
21.82
21.05
20.79
21.03
21.59
22.20
22.65
22.79
22.54
21.79
20.41
18.26
15.25
11.35
6.68
1.40
-4.30
-10.26
-16.45
-22.94
-29.83
-37.08
-44.32
-50.69
-55.04
-56.14
-53.20
-46.11
-35.59
-22.95
-9.67
2.89
13.87
22.79
29.53
34.15
36.83
37.84
37.51
36.22
34.32
32.08
29.65
27.18
24.83
22.80
21.35
20.58
20.43
20.55
20.41
19.43
17.15
13.40
8.31
2.30
-4.07
-10.23
-15.80
-20.68
-25.12
-29.71
-35.13
-41.96
-50.16
-58.99
-66.95
-72.24
-73.23
-69.13
-60.15
-47.48
-32.77
-17.72
-3.59
8.85
19.27
27.52
33.54
37.27
38.82
38.50
36.88
34.67
32.59
31.11
30.41
30.28
30.30
30.04
29.25
27.96
26.42
24.89
23.43
21.89
19.89
17.09
13.34
8.74
3.61
-1.65
-6.74
-11.54
-16.12
-20.77
-25.94
-32.11
-39.59
-48.26
-57.34
-65.48
-70.95
-72.24
-68.52
-59.91
-47.46
-32.75
-17.47
-2.97
9.87
20.63
29.17
35.46
39.51
41.44
41.49
40.16
38.13
36.07
34.52
33.70
33.47
33.46
33.24
32.56
31.35
29.78
28.03
26.23
24.30
21.99
19.01
15.06
10.05
4.01
-2.87
-10.33
-18.04
-25.64
-32.82
-39.39
-45.47
-51.36
-57.43
-63.65
-69.34
-73.09
-73.07
-67.70
-56.37
-39.87
-20.18
0.17
19.09
35.60
49.97
63.26
76.37
89.36
101.16
109.86
113.47
110.48
100.24
82.99
59.89
33.09
5.78
-18.08
-34.64
-41.38
-38.18
-27.65
-14.34
-3.09
2.65
1.86
-4.17
-12.86
-21.63
-28.75
-33.58
-36.25
-37.20
-36.93
-36.00
-35.16
-35.38
-37.61
-42.27
-48.85
-55.83
-60.98
-62.09
-57.78
-48.00
-34.13
-18.49
-3.51
8.95
18.10
24.13
27.82
30.00
31.16
31.37
30.50
28.53
25.70
22.56
19.74
17.69
16.53
16.09
16.01
15.89
15.46
14.54
13.06
11.01
8.38
5.21
1.54
-2.64
-7.43
-13.00
-19.55
-27.11
-35.35
-43.48
-50.35
-54.61
-55.17
-51.41
-43.45
-32.09
-18.66
-4.67
8.38
19.40
27.75
33.32
36.38
37.48
37.17
35.99
34.29
32.28
30.10
27.85
25.67
23.77
22.33
21.43
21.02
20.88
20.61
19.76
18.00
15.07
10.96
5.88
0.16
-5.72
-11.36
-16.60
-21.63
-27.03
-33.44
-41.28
-50.33
-59.58
-67.41
-71.98
-71.80
-66.24
-55.69
-41.49
-25.53
-9.81
4.11
15.30
23.51
29.05
32.41
34.11
34.50
33.79
32.19
29.96
27.48
25.12
23.22
21.91
21.12
20.60
20.01
19.06
17.58
15.50
12.85
9.66
5.99
1.86
-2.62
-7.28
-11.96
-16.70
-21.77
-27.71
-34.97
-43.64
-53.09
-61.95
-68.45
-70.91
-68.32
-60.66
-48.89
-34.53
-19.31
-4.65
8.45
19.47
28.13
34.39
38.29
40.09
40.24
39.38
38.19
37.14
36.42
35.87
35.18
34.11
32.67
31.17
30.06
29.64
29.82
30.07
29.53
27.45
23.49
17.92
11.58
5.43
0.27
-3.67
-6.77
-9.77
-13.60
-19.10
-26.77
-36.60
-47.84
-58.76
-66.86
-69.33
-64.00
-50.33
-29.92
-6.19
16.66
35.10
47.21
52.85
53.09
49.35
42.79
34.34
25.03
16.19
9.32
5.58
5.21
7.37
10.55
13.21
14.54
14.59
14.09
13.94
14.72
16.43
18.57
20.38
21.21
20.62
18.60
15.36
11.28
6.72
1.96
-2.84
-7.57
-12.15
-16.58
-20.96
-25.55
-30.76
-36.97
-44.33
-52.55
-60.76
-67.65
-71.70
-71.64
-66.81
-57.41
-44.40
-29.32
-13.85
0.51
12.76
22.41
29.42
34.05
36.70
37.82
37.82
37.10
36.00
34.82
33.72
32.74
31.84
30.94
30.07
29.31
28.80
28.52
28.26
27.58
25.99
23.12
18.89
13.54
7.50
1.28
-4.72
-10.28
-15.46
-20.58
-26.13
-32.60
-40.16
-48.43
-56.38
-62.54
-65.38
-63.78
-57.43
-46.86
-33.34
-18.49
-3.83
9.45
20.65
29.49
35.96
40.17
42.23
42.32
40.78
38.14
35.06
32.19
29.95
28.46
27.58
27.03
26.59
26.10
25.49
24.70
23.59
21.95
19.58
16.32
12.12
7.04
1.33
-4.62
-10.42
-15.84
-20.95
-26.25
-32.44
-40.08
-49.19
-59.00
-68.05
-74.50
-76.71
-73.73
-65.56
-53.10
-37.89
-21.61
-5.76
8.59
20.79
30.54
37.73
42.34
44.49
44.49
42.90
40.43
37.88
35.83
34.59
34.10
34.05
34.05
33.81
33.26
32.48
31.60
30.62
29.30
27.27
24.15
19.81
14.43
8.44
2.36
-3.42
-8.77
-13.81
-18.81
-24.13
-30.16
-37.25
-45.60
-55.03
-64.79
-73.52
-79.50
-81.14
-77.52
-68.73
-55.81
-40.48
-24.55
-9.55
3.56
14.36
22.81
29.06
33.31
35.78
36.81
36.77
36.15
35.37
34.73
34.28
33.89
33.38
32.62
31.69
30.82
30.26
30.09
30.08
29.73
28.38
25.53
21.03
15.16
8.53
1.88
-4.23
-9.58
-14.38
-19.18
-24.65
-31.36
-39.55
-48.95
-58.72
-67.57
-73.99
-76.58
-74.40
-67.29
-55.84
-41.37
-25.56
-10.06
3.83
15.32
24.10
30.27
34.15
36.16
36.78
36.49
35.74
34.88
34.07
33.29
32.42
31.33
30.05
28.82
27.94
27.62
27.77
27.98
27.56
25.88
22.58
17.74
11.85
5.55
-0.54
-6.10
-11.13
-15.90
-20.91
-26.72
-33.78
-42.27
-51.87
-61.64
-70.09
-75.49
-76.39
-72.09
-62.86
-49.92
-34.96
-19.67
-5.32
7.33
17.98
26.49
32.76
36.66
38.18
37.62
35.58
32.96
30.61
29.09
28.55
28.67
28.92
28.82
28.15
27.02
25.74
24.61
23.65
22.60
20.95
18.25
14.25
9.01
2.85
-3.79
-10.54
-17.13
-23.48
-29.72
-36.16
-43.21
-51.24
-60.28
-69.78
-78.57
-85.02
-87.45
-84.72
-76.59
-63.84
-48.00
-30.91
-14.21
0.94
13.96
24.72
33.23
39.55
43.72
45.83
46.22
45.47
44.31
43.44
43.22
43.64
44.38
44.97
45.06
44.56
43.58
42.30
40.74
38.73
35.95
32.10
27.12
21.18
14.72
8.21
2.03
-3.65
-8.87
-13.91
-19.22
-25.36
-32.81
-41.69
-51.50
-61.05
-68.61
-72.40
-71.17
-64.64
-53.57
-39.50
-24.24
-9.40
3.95
15.30
24.56
31.82
37.25
41.03
43.40
44.63
45.10
45.14
45.03
44.86
44.56
43.94
42.85
41.26
39.40
37.64
36.35
35.70
35.53
35.36
34.50
32.30
28.41
22.92
16.37
9.51
3.10
-2.44
-7.13
-11.48
-16.25
-22.21
-29.82
-39.05
-49.26
-59.29
-67.62
-72.70
-73.21
-68.48
-58.63
-44.68
-28.35
-11.62
3.65
16.21
25.54
31.79
35.50
37.29
37.68
37.07
35.70
33.82
31.67
29.49
27.49
25.84
24.62
23.82
23.33
22.95
22.38
21.36
19.67
17.26
14.22
10.71
6.93
2.88
-1.57
-6.75
-13.02
-20.61
-29.43
-38.87
-47.78
-54.68
-57.99
-56.62
-50.24
-39.56
-26.05
-11.60
2.08
13.91
23.48
30.93
36.51
40.33
42.31
42.33
40.52
37.37
33.60
29.97
26.93
24.64
22.96
21.69
20.62
19.65
18.64
17.39
15.68
13.26
10.05
6.09
1.55
-3.34
-8.46
-13.84
-19.69
-26.38
-34.25
-43.38
-53.35
-63.10
-71.08
-75.57
-75.24
-69.61
-59.22
-45.45
-30.03
-14.62
-0.41
11.91
22.09
30.04
35.76
39.31
40.92
41.04
40.24
39.12
38.02
37.05
36.04
34.79
33.23
31.58
30.17
29.36
29.18
29.29
29.07
27.81
25.00
20.52
14.63
7.87
0.88
-5.79
-11.82
-17.17
-22.22
-27.56
-33.97
-42.02
-51.76
-62.52
-72.86
-80.88
-84.73
-83.21
-76.12
-64.32
-49.43
-33.37
-17.83
-4.00
7.50
16.57
23.36
28.17
31.34
33.21
34.11
34.33
34.04
33.32
32.12
30.42
28.28
25.95
23.77
22.08
20.99
20.28
19.41
17.75
14.82
10.55
5.23
-0.50
-6.00
-10.88
-15.18
-19.36
-24.15
-30.28
-38.05
-47.20
-56.75
-65.19
-70.80
-72.08
-68.23
-59.33
-46.38
-30.97
-14.94
0.08
12.97
23.20
30.74
35.89
39.11
40.85
41.50
41.39
40.73
39.64
38.17
36.36
34.31
32.22
30.36
28.96
28.09
27.58
27.00
25.82
23.64
20.31
16.03
11.18
6.15
1.13
-3.88
-9.08
-14.73
-21.07
-28.26
-36.31
-44.93
-53.43
-60.68
-65.27
-65.86
-61.68
-52.83
-40.30
-25.72
-10.82
2.99
14.84
24.38
31.60
36.57
39.43
40.39
39.78
38.11
35.92
33.69
31.72
30.09
28.77
27.69
26.83
26.18
25.64
25.01
23.98
22.23
19.56
15.93
11.51
6.62
1.66
-3.04
-7.35
-11.46
-15.81
-21.03
-27.69
-35.97
-45.41
-54.83
-62.54
-66.66
-65.81
-59.50
-48.43
-34.26
-19.13
-5.02
6.81
15.90
22.48
27.03
29.98
31.50
31.68
30.68
28.89
26.83
24.97
23.56
22.53
21.71
20.94
20.23
19.69
19.37
19.06
18.36
16.76
13.92
9.84
4.85
-0.54
-5.90
-11.01
-16.03
-21.36
-27.59
-35.15
-44.12
-53.96
-63.51
-71.16
-75.30
-74.76
-69.20
-59.21
-46.09
-31.47
-16.87
-3.40
8.28
17.90
25.36
30.64
33.73
34.72
33.86
31.62
28.58
25.39
22.61
20.61
19.49
19.19
19.37
19.60
19.37
18.28
16.11
12.93
8.96
4.56
0.03
-4.54
-9.20
-14.20
-19.83
-26.35
-33.83
-42.04
-50.31
-57.52
-62.27
-63.22
-59.50
-51.07
-38.76
-24.10
-8.87
5.33
17.45
26.98
33.86
38.33
40.73
41.43
40.91
39.61
37.91
36.07
34.13
32.07
29.84
27.56
25.46
23.86
22.86
22.31
21.71
20.42
17.86
13.84
8.57
2.60
-3.42
-9.05
-14.22
-19.23
-24.68
-31.22
-39.21
-48.49
-58.17
-66.76
-72.47
-73.77
-69.87
-61.11
-48.80
-34.84
-21.11
-8.93
1.07
8.88
14.70
18.72
20.90
21.08
19.19
15.45
10.46
5.11
0.37
-3.02
-4.77
-5.19
-5.07
-5.47
-7.35
-11.23
-17.08
-24.28
-31.79
-38.38
-42.93
-44.85
-44.30
-42.26
-40.27
-39.92
-42.14
-46.74
-52.40
-57.09
-58.76
-56.12
-48.94
-38.03
-24.85
-10.95
2.39
14.39
24.76
33.53
40.87
46.95
51.84
55.58
58.21
59.71
60.09
59.37
57.63
55.11
52.24
49.60
47.71
46.80
46.66
46.76
46.40
45.06
42.54
38.96
34.59
29.56
23.86
17.25
9.48
0.35
-10.28
-22.50
-36.32
-51.40
-66.88
-81.29
-92.77
-99.75
-101.50
-98.49
-92.23
-84.68
-77.49
-71.47
-66.50
-61.90
-56.86
-50.81
-43.60
-35.46
-26.93
-18.69
-11.36
-5.36
-0.78
2.59
5.04
6.69
7.35
6.61
4.17
0.13
-4.93
-10.11
-14.64
-18.18
-20.93
-23.43
-26.20
-29.52
-33.43
-37.85
-42.76
-48.07
-53.43
-58.01
-60.59
-59.85
-54.90
-45.61
-32.70
-17.59
-1.91
12.86
25.66
35.93
43.56
48.75
51.89
53.38
53.55
52.64
50.86
48.48
45.78
43.08
40.56
38.33
36.50
35.33
35.31
36.82
39.87
43.88
47.78
50.60
51.99
52.53
53.55
56.39
61.71
69.13
77.45
85.36
92.07
97.57
102.44
107.42
113.06
119.67
127.54
137.02
148.43
161.72
176.20
190.63
203.58
213.93
221.26
225.83
228.26
229.13
228.85
227.67
225.86
223.67
221.02
217.33
211.36
201.60
186.89
166.96
142.66
115.66
87.78
60.45
34.38
9.65
-13.93
-36.43
-57.74
-77.65
-96.06
-113.13
-129.16
-144.29
-158.25
-170.24
-179.11
-183.74
-183.44
-178.15
-168.41
-155.07
-139.06
-121.25
-102.53
-83.91
-66.54
-51.52
-39.57
-30.78
-24.64
-20.19
-16.49
-12.90
-9.27
-5.78
-2.80
-0.66
0.46
0.41
-0.89
-3.52
-7.49
-12.64
-18.67
-25.17
-31.80
-38.42
-45.15
-52.25
-59.88
-67.92
-75.78
-82.57
-87.28
-89.12
-87.72
-83.19
-76.05
-67.04
-56.98
-46.67
-36.81
-28.01
-20.71
-15.16
-11.31
-8.82
-7.15
-5.75
-4.19
-2.30
-0.13
2.22
4.66
7.18
9.79
12.47
15.07
17.39
19.22
20.42
20.80
20.16
18.18
14.58
9.29
2.56
-4.89
-12.05
-17.82
-21.36
-22.27
-20.66
-17.10
-12.40
-7.44
-2.96
0.52
2.74
3.65
3.33
1.96
-0.33
-3.49
-7.67
-13.13
-20.15
-28.72
-38.41
-48.37
-57.46
-64.68
-69.52
-72.16
-73.46
-74.66
-76.93
-81.01
-87.03
-94.62
-103.21
-112.34
-121.94
-132.34
-144.06
-157.57
-173.04
-190.28
-208.67
-227.29
-244.97
-260.37
-272.17
-279.48
-282.07
-280.44
-275.42
-267.54
-256.52
-241.35
-221.02
-195.61
-166.92
-138.26
-113.16
-93.71
-79.56
-68.00
-55.08
-37.01
-11.22
23.04
64.62
110.39
155.42
193.84
220.41
232.43
231.00
220.66
207.52
196.65
190.34
188.02
187.77
188.14
189.09
191.51
195.96
201.53
205.99
206.78
202.39
193.09
180.69
167.73
156.41
148.00
142.71
140.01
139.07
139.22
140.22
142.19
145.30
149.32
153.29
155.65
154.60
148.83
137.99
122.83
104.89
85.97
67.63
50.99
36.78
25.47
17.33
12.41
10.41
10.63
11.97
13.27
13.43
11.85
8.47
3.72
-1.74
-7.45
-13.36
-19.82
-27.38
-36.36
-46.53
-57.07
-66.64
-73.70
-76.90
-75.34
-68.86
-58.11
-44.45
-29.66
-15.58
-3.64
5.29
11.01
13.77
14.15
12.83
10.61
8.27
6.49
5.70
5.90
6.69
7.45
7.63
6.99
5.63
3.83
1.74
-0.83
-4.38
-9.44
-16.23
-24.48
-33.43
-42.19
-50.13
-57.10
-63.39
-69.37
-75.11
-80.16
-83.61
-84.46
-82.08
-76.51
-68.41
-58.78
-48.50
-38.12
-27.77
-17.47
-7.38
2.01
9.97
15.80
19.19
20.34
19.95
18.92
17.96
17.40
17.12
16.65
15.44
13.10
9.52
4.99
-0.01
-4.93
-9.40
-13.32
-16.88
-20.52
-24.74
-29.89
-36.01
-42.74
-49.34
-54.87
-58.46
-59.51
-57.85
-53.74
-47.69
-40.30
-32.14
-23.77
-15.75
-8.73
-3.36
-0.11
0.97
0.34
-1.06
-2.09
-1.72
0.66
5.12
11.26
18.30
25.29
31.14
34.80
35.37
32.38
26.02
17.17
7.19
-2.51
-10.95
-17.80
-23.22
-27.53
-30.80
-32.72
-32.77
-30.57
-26.14
-19.96
-12.82
-5.54
1.34
7.54
13.02
17.77
21.70
24.59
26.24
26.58
25.80
24.34
22.81
21.74
21.43
21.89
22.89
24.01
24.73
24.51
22.88
19.56
14.54
8.19
1.24
-5.47
-11.36
-16.37
-20.95
-25.84
-31.51
-37.85
-44.02
-48.73
-50.65
-48.80
-42.78
-32.66
-18.93
-2.43
15.57
33.34
48.67
59.37
63.79
61.34
52.82
40.16
25.90
12.50
1.65
-6.03
-10.92
-13.99
-16.41
-19.13
-22.82
-27.86
-34.52
-42.90
-52.84
-63.87
-75.20
-86.03
-95.79
-104.31
-111.78
-118.36
-123.90
-127.80
-129.14
-126.99
-120.79
-110.39
-96.17
-78.82
-59.32
-38.77
-18.40
0.58
17.11
30.49
40.52
47.49
52.24
55.86
59.46
63.82
69.23
75.39
81.60
87.08
91.19
93.67
94.54
93.98
92.22
89.38
85.53
80.80
75.43
69.85
64.52
59.76
55.62
51.77
47.56
42.24
35.11
25.80
14.40
1.56
-11.57
-23.47
-32.57
-37.57
-37.71
-33.00
-24.17
-12.48
0.59
13.65
25.62
35.75
43.60
48.99
51.97
52.84
52.26
51.15
50.57
51.41
54.12
58.44
63.45
67.90
70.63
71.05
69.23
65.86
61.91
58.15
54.98
52.25
49.43
45.82
40.75
33.77
24.74
13.90
1.81
-10.59
-22.26
-32.27
-40.09
-45.76
-49.86
-53.23
-56.64
-60.45
-64.38
-67.59
-68.77
-66.52
-59.81
-48.32
-32.79
-14.95
2.81
18.13
29.30
35.68
37.75
36.69
33.85
30.34
26.82
23.54
20.51
17.65
14.94
12.36
9.85
7.25
4.25
0.56
-4.09
-9.67
-16.02
-22.91
-30.31
-38.49
-47.88
-58.73
-70.63
-82.40
-92.20
-98.20
-99.18
-95.05
-86.81
-76.19
-64.90
-54.20
-44.52
-35.68
-27.23
-18.87
-10.71
-3.24
2.84
7.04
9.32
10.18
10.50
11.13
12.64
15.03
17.83
20.32
21.79
21.85
20.42
17.73
14.14
10.08
5.87
1.80
-2.01
-5.54
-8.90
-12.38
-16.37
-21.33
-27.54
-34.94
-42.85
-50.03
-54.83
-55.74
-51.83
-43.15
-30.73
-16.26
-1.51
12.11
23.88
33.62
41.46
47.53
51.82
54.25
54.82
53.75
51.51
48.68
45.75
42.98
40.34
37.62
34.60
31.16
27.27
23.06
18.69
14.34
10.16
6.26
2.67
-0.65
-3.88
-7.26
-11.19
-16.14
-22.51
-30.42
-39.45
-48.55
-56.12
-60.44
-60.20
-54.88
-45.01
-31.95
-17.46
-3.25
9.47
20.05
28.37
34.55
38.75
41.05
41.46
40.07
37.12
33.09
28.54
24.00
19.78
15.95
12.36
8.86
5.35
1.86
-1.55
-4.79
-7.84
-10.71
-13.46
-16.25
-19.29
-22.88
-27.36
-32.88
-39.28
-46.00
-52.08
-56.46
-58.26
-57.00
-52.73
-45.95
-37.50
-28.32
-19.31
-11.16
-4.38
0.72
4.01
5.48
5.30
3.74
1.23
-1.75
-4.80
-7.62
-10.08
-12.24
-14.20
-16.05
-17.70
-18.86
-19.08
-17.89
-15.13
-11.19
-7.15
-4.59
-5.08
-9.55
-17.67
-27.79
-37.28
-43.35
-43.90
-38.05
-26.39
-10.60
6.97
23.95
38.35
48.91
55.07
57.06
55.66
52.12
47.80
43.92
41.27
40.00
39.64
39.30
38.01
35.01
29.91
22.80
13.96
3.84
-7.10
-18.37
-29.44
-39.71
-48.69
-56.16
-62.18
-67.07
-71.09
-74.25
-76.21
-76.37
-74.15
-69.35
-62.29
-53.70
-44.62
-35.97
-28.48
-22.50
-18.14
-15.36
-14.06
-14.13
-15.35
-17.34
-19.59
-21.52
-22.64
-22.66
-21.53
-19.39
-16.43
-12.79
-8.57
-3.91
0.94
5.56
9.45
12.13
13.18
12.28
9.22
3.92
-3.41
-12.16
-21.21
-29.10
-34.38
-35.96
-33.50
-27.46
-18.91
-9.18
0.51
9.24
16.47
21.98
25.80
28.24
29.75
30.97
32.51
34.80
38.02
42.00
46.38
50.62
54.19
56.63
57.70
57.36
55.86
53.53
50.65
47.33
43.39
38.53
32.40
24.86
16.03
6.43
-3.08
-11.37
-17.25
-19.80
-18.56
-13.70
-6.01
3.28
12.86
21.55
28.56
33.49
36.31
37.19
36.43
34.33
31.24
27.46
23.37
19.34
15.70
12.67
10.27
8.35
6.66
4.98
3.20
1.35
-0.49
-2.28
-4.08
-6.15
-8.78
-12.31
-16.94
-22.65
-29.11
-35.65
-41.32
-45.03
-45.80
-43.04
-36.73
-27.46
-16.25
-4.23
7.56
18.39
27.79
35.47
41.23
44.95
46.66
46.56
45.12
42.89
40.49
38.37
36.75
35.58
34.63
33.61
32.27
30.48
28.26
25.73
23.06
20.35
17.61
14.81
11.85
8.63
5.01
0.78
-4.27
-10.30
-17.19
-24.44
-31.12
-36.07
-38.19
-36.83
-31.89
-23.91
-13.81
-2.66
8.55
18.95
27.89
34.87
39.63
42.18
42.85
42.19
40.84
39.34
37.94
36.67
35.35
33.78
31.92
29.86
27.83
26.10
24.78
23.80
22.90
21.72
19.91
17.22
13.62
9.29
4.53
-0.29
-4.84
-8.98
-12.78
-16.53
-20.61
-25.34
-30.76
-36.49
-41.69
-45.26
-46.12
-43.63
-37.81
-29.34
-19.32
-8.89
1.12
10.25
18.36
25.33
30.94
34.87
36.90
37.09
35.87
33.92
31.91
30.30
29.21
28.52
27.99
27.44
26.76
25.95
25.02
23.95
22.65
21.01
18.90
16.23
12.96
9.16
5.00
0.72
-3.41
-7.20
-10.66
-13.97
-17.49
-21.61
-26.56
-32.24
-38.11
-43.22
-46.49
-47.04
-44.42
-38.80
-30.93
-21.81
-12.47
-3.73
3.91
10.24
15.25
19.02
21.68
23.37
24.21
24.35
23.92
23.07
21.96
20.75
19.57
18.52
17.59
16.73
15.85
14.84
13.65
12.25
10.65
8.87
6.88
4.63
2.06
-0.89
-4.23
-7.91
-11.92
-16.28
-21.06
-26.23
-31.60
-36.66
-40.64
-42.64
-41.96
-38.34
-32.11
-24.05
-15.25
-6.69
0.87
7.08
11.86
15.36
17.77
19.25
19.97
20.06
19.66
18.89
17.87
16.66
15.30
13.85
12.36
10.92
9.63
8.58
7.73
6.91
5.85
4.27
1.97
-1.05
-4.59
-8.33
-11.98
-15.46
-18.91
-22.68
-27.14
-32.46
-38.44
-44.45
-49.46
-52.39
-52.33
-48.88
-42.26
-33.25
-23.02
-12.84
-3.81
3.36
8.39
11.37
12.67
12.74
12.02
10.86
9.51
8.20
7.14
6.53
6.45
6.87
7.56
8.21
8.50
8.26
7.39
5.88
3.73
0.95
-2.44
-6.33
-10.53
-14.80
-19.02
-23.26
-27.84
-33.10
-39.23
-45.92
-52.37
-57.35
-59.63
-58.23
-52.78
-43.53
-31.28
-17.19
-2.52
11.52
23.94
34.08
41.66
46.77
49.73
51.00
50.97
49.94
48.17
45.94
43.57
41.30
39.27
37.36
35.29
32.65
29.17
24.75
19.54
13.86
8.03
2.28
-3.31
-8.86
-14.53
-20.55
-27.07
-34.18
-41.90
-50.07
-58.30
-65.87
-71.79
-74.96
-74.51
-70.14
-62.26
-51.97
-40.66
-29.64
-19.78
-11.41
-4.46
1.24
5.84
9.35
11.72
13.02
13.50
13.59
13.79
14.48
15.79
17.58
19.47
21.09
22.21
22.88
23.39
24.09
25.24
26.83
28.54
29.90
30.39
29.69
27.73
24.66
20.91
17.07
13.89
12.22
12.89
16.44
22.97
32.02
42.63
53.55
63.57
71.78
77.69
81.24
82.66
82.33
80.59
77.70
73.82
69.09
63.66
57.73
51.56
45.41
39.44
33.71
28.18
22.79
17.49
12.29
7.19
2.14
-2.96
-8.29
-13.99
-20.15
-26.82
-33.93
-41.28
-48.46
-54.75
-59.25
-60.97
-59.22
-53.83
-45.33
-34.84
-23.86
-13.87
-6.06
-1.18
0.52
-0.78
-4.60
-10.17
-16.61
-23.03
-28.71
-33.16
-36.20
-37.89
-38.52
-38.45
-38.11
-37.87
-38.06
-38.94
-40.70
-43.36
-46.82
-50.79
-54.92
-58.88
-62.49
-65.78
-69.03
-72.59
-76.77
-81.56
-86.48
-90.46
-92.05
-89.80
-82.71
-70.72
-54.87
-37.00
-19.25
-3.39
9.59
19.58
27.03
32.53
36.53
39.24
40.85
41.65
42.16
42.97
44.56
47.07
50.22
53.47
56.22
58.01
58.65
58.23
56.94
55.01
52.56
49.60
46.07
41.86
36.82
30.80
23.65
15.30
5.88
-4.19
-14.12
-22.85
-29.22
-32.30
-31.63
-27.36
-20.28
-11.54
-2.40
6.10
13.35
19.12
23.47
26.64
28.80
30.08
30.53
30.18
29.09
27.41
25.33
23.18
21.28
19.91
19.23
19.18
19.54
19.94
19.92
19.12
17.30
14.37
10.44
5.79
0.74
-4.36
-9.28
-13.97
-18.62
-23.57
-29.26
-35.91
-43.31
-50.75
-57.00
-60.74
-60.94
-57.26
-50.18
-40.84
-30.66
-20.92
-12.43
-5.51
-0.11
4.00
7.03
9.07
10.21
10.52
10.14
9.30
8.30
7.45
6.97
6.97
7.37
8.04
8.74
9.31
9.68
9.84
9.89
9.94
10.07
10.40
11.01
12.00
13.25
14.45
15.06
14.44
12.17
8.20
2.96
-2.70
-7.71
-11.05
-12.02
-10.33
-6.15
-0.07
7.10
14.43
21.11
26.55
30.43
32.74
33.62
33.37
32.28
30.67
28.75
26.60
24.17
21.40
18.29
14.98
11.71
8.78
6.38
4.56
3.17
1.95
0.59
-1.20
-3.60
-6.65
-10.20
-13.96
-17.67
-21.13
-24.36
-27.60
-31.21
-35.45
-40.41
-45.78
-50.99
-55.22
-57.68
-57.74
-55.06
-49.70
-42.02
-32.68
-22.51
-12.37
-3.05
4.83
10.94
15.19
17.74
18.88
19.01
18.53
17.82
17.23
16.97
17.10
17.50
17.94
18.23
18.30
18.24
18.25
18.43
18.65
18.58
17.78
15.87
12.72
8.50
3.61
-1.46
-6.32
-10.70
-14.62
-18.28
-22.04
-26.26
-31.17
-36.77
-42.70
-48.27
-52.56
-54.64
-53.81
-49.87
-43.13
-34.45
-24.84
-15.30
-6.50
1.22
7.77
13.13
17.25
20.06
21.54
21.82
21.28
20.37
19.61
19.30
19.53
20.13
20.77
21.17
21.22
21.00
20.69
20.41
20.02
19.16
17.44
14.64
10.90
6.68
2.50
-1.32
-4.73
-8.00
-11.43
-15.27
-19.66
-24.60
-30.00
-35.55
-40.64
-44.36
-45.67
-43.80
-38.59
-30.61
-20.98
-10.94
-1.49
6.87
14.00
19.97
24.83
28.53
31.04
32.46
33.02
33.07
32.93
32.78
32.62
32.44
32.26
32.23
32.57
33.39
34.64
35.96
36.82
36.78
35.65
33.58
30.97
28.24
25.64
23.16
20.63
17.77
14.43
10.47
5.80
0.35
-5.83
-12.41
-18.69
-23.66
-26.25
-25.77
-22.13
-15.97
-8.37
-0.57
6.48
12.21
16.45
19.22
20.60
20.62
19.30
16.83
13.53
9.93
6.55
3.75
1.65
0.12
-1.11
-2.28
-3.55
-4.99
-6.59
-8.38
-10.42
-12.81
-15.61
-18.84
-22.45
-26.38
-30.60
-35.03
-39.64
-44.27
-48.64
-52.20
-54.27
-54.17
-51.46
-46.13
-38.70
-30.05
-21.11
-12.67
-5.17
1.17
6.27
10.03
12.33
13.18
12.75
11.48
9.93
8.57
7.64
7.05
6.50
5.62
4.18
2.19
-0.08
-2.28
-4.12
-5.53
-6.73
-8.12
-10.10
-12.97
-16.90
-21.85
-27.65
-33.89
-39.99
-45.15
-48.51
-49.32
-47.13
-41.98
-34.38
-25.21
-15.50
-6.22
1.88
8.43
13.36
16.86
19.22
20.75
21.65
22.04
21.96
21.44
20.56
19.47
18.41
17.58
17.10
16.83
16.51
15.75
14.27
12.03
9.16
5.98
2.72
-0.49
-3.73
-7.18
-11.07
-15.62
-20.91
-26.83
-32.99
-38.65
-42.80
-44.39
-42.64
-37.40
-29.20
-19.18
-8.68
1.04
9.19
15.47
19.99
23.11
25.17
26.45
27.12
27.30
27.12
26.73
26.28
25.91
25.68
25.55
25.42
25.06
24.26
22.77
20.41
17.14
13.07
8.52
3.90
-0.40
-4.15
-7.37
-10.29
-13.29
-16.71
-20.65
-24.83
-28.55
-30.81
-30.58
-27.19
-20.62
-11.55
-1.17
9.17
18.41
25.98
31.75
35.82
38.34
39.44
39.23
37.98
36.02
33.77
31.55
29.52
27.66
25.94
24.29
22.64
20.87
18.85
16.40
13.49
10.20
6.77
3.43
0.34
-2.55
-5.38
-8.33
-11.52
-14.98
-18.72
-22.80
-27.26
-32.09
-36.97
-41.22
-43.87
-43.93
-40.71
-34.19
-25.03
-14.44
-3.80
5.76
13.55
19.40
23.47
26.03
27.32
27.52
26.80
25.39
23.61
21.76
20.08
18.63
17.37
16.18
14.98
13.79
12.65
11.62
10.66
9.65
8.34
6.55
4.12
1.13
-2.24
-5.72
-9.08
-12.27
-15.47
-19.04
-23.35
-28.56
-34.40
-40.12
-44.69
-47.06
-46.51
-42.90
-36.68
-28.79
-20.32
-12.27
-5.39
-0.04
3.70
5.99
7.13
7.42
7.14
6.49
5.63
4.68
3.79
3.14
2.84
2.94
3.37
3.97
4.53
4.83
4.69
3.86
2.14
-0.59
-4.26
-8.58
-13.09
-17.32
-21.02
-24.26
-27.36
-30.75
-34.66
-38.98
-43.19
-46.41
-47.64
-46.04
-41.14
-33.05
-22.45
-10.35
2.15
14.13
25.05
34.65
42.83
49.52
54.62
58.06
59.94
60.52
60.15
59.17
57.76
56.00
53.93
51.63
49.24
46.86
44.44
41.85
38.84
35.28
31.14
26.56
21.74
16.86
12.03
7.30
2.66
-1.92
-6.60
-11.52
-16.89
-22.71
-28.74
-34.38
-38.79
-41.05
-40.47
-36.88
-30.64
-22.64
-13.97
-5.68
1.51
7.26
11.54
14.50
16.29
17.10
17.10
16.54
15.68
14.74
13.79
12.78
11.58
10.19
8.76
7.57
6.83
6.53
6.38
5.89
4.60
2.32
-0.84
-4.48
-8.15
-11.47
-14.34
-16.81
-19.16
-21.77
-25.01
-29.17
-34.22
-39.76
-44.89
-48.45
-49.38
-47.05
-41.56
-33.70
-24.65
-15.57
-7.29
-0.17
5.77
10.62
14.44
17.23
18.95
19.69
19.61
18.97
17.98
16.81
15.55
14.26
13.01
11.91
11.05
10.47
10.12
9.85
9.42
8.59
7.12
4.90
2.01
-1.33
-4.78
-8.04
-10.94
-13.53
-16.07
-18.90
-22.35
-26.56
-31.43
-36.51
-41.09
-44.28
-45.30
-43.63
-39.20
-32.42
-24.02
-14.89
-5.90
2.24
8.98
13.96
17.10
18.56
18.76
18.22
17.41
16.61
15.86
15.13
14.37
13.67
13.14
12.92
12.97
13.13
13.13
12.72
11.73
10.11
7.91
5.24
2.24
-0.94
-4.19
-7.45
-10.69
-13.98
-17.47
-21.41
-25.98
-31.16
-36.62
-41.60
-45.11
-46.22
-44.44
-39.89
-33.35
-25.95
-18.75
-12.47
-7.30
-3.13
0.27
3.03
5.08
6.29
6.68
6.45
6.00
5.79
6.11
7.03
8.36
9.85
11.28
12.55
13.65
14.60
15.39
15.94
16.15
15.96
15.34
14.31
12.88
11.01
8.62
5.58
1.79
-2.78
-7.95
-13.34
-18.28
-21.93
-23.53
-22.53
-18.88
-12.97
-5.63
2.13
9.39
15.48
20.09
23.21
25.04
25.82
25.71
24.85
23.35
21.41
19.37
17.55
16.22
15.42
14.92
14.34
13.34
11.75
9.62
7.18
4.65
2.18
-0.23
-2.71
-5.37
-8.29
-11.47
-14.87
-18.44
-22.09
-25.69
-28.92
-31.32
-32.27
-31.19
-27.75
-22.04
-14.64
-6.44
1.54
8.46
13.83
17.54
19.73
20.70
20.70
19.90
18.45
16.50
14.33
12.25
10.60
9.55
9.06
8.88
8.66
8.08
7.02
5.55
3.87
2.11
0.28
-1.80
-4.40
-7.72
-11.79
-16.52
-21.67
-26.98
-32.10
-36.58
-39.79
-41.01
-39.65
-35.43
-28.59
-19.92
-10.52
-1.52
6.24
12.38
16.88
19.98
21.95
22.99
23.22
22.74
21.71
20.38
19.02
17.85
17.02
16.55
16.33
16.22
16.03
15.61
14.83
13.59
11.84
9.54
6.71
3.48
0.05
-3.34
-6.51
-9.40
-12.23
-15.35
-19.17
-23.90
-29.37
-34.94
-39.62
-42.24
-41.86
-38.03
-31.01
-21.66
-11.25
-1.04
8.05
15.53
21.37
25.76
28.95
31.11
32.37
32.85
32.74
32.29
31.70
31.05
30.31
29.36
28.14
26.72
25.20
23.74
22.34
20.87
19.14
16.95
14.20
10.94
7.29
3.42
-0.57
-4.63
-8.78
-13.12
-17.77
-22.85
-28.28
-33.72
-38.46
-41.58
-42.15
-39.64
-34.10
-26.20
-16.99
-7.62
1.05
8.51
14.62
19.40
22.87
25.02
25.83
25.45
24.19
22.49
20.76
19.26
18.04
16.97
15.94
14.88
13.82
12.81
11.78
10.53
8.74
6.15
2.74
-1.24
-5.36
-9.20
-12.59
-15.68
-18.90
-22.70
-27.43
-33.14
-39.49
-45.88
-51.45
-55.28
-56.56
-54.80
-50.03
-42.76
-33.93
-24.66
-15.94
-8.47
-2.57
1.74
4.66
6.47
7.45
7.91
8.04
7.99
7.77
7.31
6.53
5.43
4.13
2.82
1.73
0.92
0.34
-0.22
-0.94
-1.87
-2.97
-4.12
-5.24
-6.28
-7.10
-7.45
-6.98
-5.48
-3.05
-0.12
2.89
5.90
9.38
14.13
20.73
29.04
38.05
46.26
52.22
55.08
54.81
52.02
47.65
42.74
38.18
34.60
32.15
30.51
29.04
27.16
24.73
22.23
20.46
20.03
20.98
22.65
24.09
24.53
23.71
21.98
19.96
18.18
16.80
15.56
13.97
11.61
8.25
4.01
-0.80
-5.91
-11.21
-16.88
-23.22
-30.51
-38.58
-46.75
-53.88
-58.69
-60.20
-58.13
-52.96
-45.78
-37.93
-30.49
-24.06
-18.73
-14.26
-10.41
-7.19
-4.81
-3.58
-3.63
-4.79
-6.52
-8.14
-9.07
-8.97
-7.90
-6.21
-4.41
-3.01
-2.34
-2.52
-3.43
-4.76
-6.14
-7.25
-8.02
-8.64
-9.55
-11.28
-14.30
-18.68
-24.03
-29.53
-34.03
-36.41
-35.87
-32.19
-25.72
-17.35
-8.19
0.70
8.53
14.90
19.72
23.09
25.20
26.22
26.33
25.71
24.56
23.13
21.59
20.02
18.42
16.78
15.14
13.65
12.53
11.90
11.67
11.53
10.98
9.57
7.09
3.65
-0.36
-4.47
-8.32
-11.83
-15.17
-18.66
-22.60
-27.08
-31.91
-36.57
-40.30
-42.30
-41.90
-38.78
-33.02
-25.14
-15.99
-6.46
2.60
10.54
16.96
21.67
24.64
26.05
26.24
25.70
24.94
24.35
24.13
24.21
24.38
24.35
23.97
23.21
22.19
21.05
19.93
18.82
17.69
16.43
14.91
13.06
10.79
8.14
5.16
1.94
-1.51
-5.23
-9.40
-14.18
-19.54
-25.11
-30.15
-33.71
-34.88
-33.15
-28.53
-21.57
-13.11
-4.08
4.72
12.70
19.48
24.85
28.70
31.07
32.07
31.89
30.82
29.13
27.13
25.07
23.10
21.28
19.55
17.86
16.14
14.39
12.67
11.06
9.54
8.02
6.31
4.21
1.64
-1.36
-4.56
-7.71
-10.55
-13.06
-15.42
-17.99
-21.15
-25.11
-29.73
-34.45
-38.36
-40.47
-39.97
-36.49
-30.20
-21.81
-12.31
-2.72
6.11
13.61
19.49
23.67
26.23
27.31
27.13
25.98
24.16
22.07
20.04
18.37
17.20
16.53
16.22
16.08
15.93
15.63
15.08
14.18
12.80
10.84
8.29
5.23
1.88
-1.55
-4.94
-8.31
-11.85
-15.81
-20.36
-25.47
-30.80
-35.63
-39.06
-40.20
-38.47
-33.90
-27.14
-19.21
-11.20
-3.91
2.28
7.36
11.48
14.77
17.23
18.82
19.53
19.42
18.65
17.41
15.91
14.35
12.91
11.78
11.09
10.87
10.96
11.05
10.78
9.79
7.93
5.29
2.21
-0.90
-3.69
-6.04
-8.07
-10.06
-12.41
-15.45
-19.37
-24.13
-29.37
-34.38
-38.15
-39.62
-37.99
-33.08
-25.44
-16.23
-6.79
1.76
8.78
14.16
18.11
20.87
22.66
23.57
23.72
23.34
22.74
22.23
21.99
21.95
21.94
21.76
21.33
20.70
20.01
19.32
18.57
17.54
15.98
13.76
10.93
7.67
4.25
0.85
-2.47
-5.80
-9.34
-13.33
-17.94
-23.21
-28.91
-34.49
-39.14
-41.89
-41.97
-39.02
-33.26
-25.49
-16.77
-8.19
-0.52
5.88
10.98
14.94
17.96
20.14
21.54
22.23
22.35
22.16
21.91
21.75
21.69
21.60
21.32
20.79
20.13
19.50
19.01
18.57
17.90
16.61
14.43
11.36
7.68
3.85
0.26
-2.88
-5.66
-8.41
-11.53
-15.40
-20.17
-25.68
-31.38
-36.40
-39.76
-40.62
-38.57
-33.77
-26.87
-18.82
-10.56
-2.82
3.94
9.53
13.89
17.00
18.94
19.83
19.93
19.55
19.01
18.56
18.26
18.06
17.76
17.26
16.55
15.78
15.15
14.77
14.52
14.09
13.06
11.15
8.36
5.01
1.57
-1.56
-4.21
-6.55
-8.95
-11.91
-15.83
-20.85
-26.73
-32.83
-38.16
-41.60
-42.16
-39.33
-33.26
-24.77
-15.07
-5.43
3.16
10.11
15.24
18.58
20.29
20.52
19.50
17.55
15.11
12.66
10.54
8.96
7.87
7.09
6.39
5.59
4.56
3.23
1.58
-0.39
-2.59
-4.86
-7.06
-9.07
-10.92
-12.78
-14.97
-17.71
-21.09
-24.86
-28.43
-30.98
-31.72
-30.08
-26.02
-20.00
-12.86
-5.56
1.08
6.55
10.69
13.56
15.28
16.01
15.89
15.15
14.06
12.90
11.89
11.08
10.39
9.62
8.62
7.30
5.71
3.96
2.19
0.42
-1.37
-3.31
-5.50
-8.05
-11.01
-14.45
-18.46
-23.08
-28.17
-33.35
-37.91
-41.00
-41.85
-40.05
-35.72
-29.44
-22.09
-14.54
-7.44
-1.10
4.39
9.03
12.82
15.71
17.67
18.76
19.21
19.43
19.95
21.28
23.86
27.91
33.33
39.76
46.55
52.77
57.34
59.21
57.53
51.89
42.47
30.01
15.72
1.12
-12.24
-23.07
-30.54
-34.52
-35.54
-34.53
-32.53
-30.19
-27.60
-24.30
-19.61
-13.07
-4.74
4.74
14.41
23.33
30.88
36.83
41.19
44.01
45.26
44.77
42.43
38.37
33.05
27.18
21.49
16.53
12.47
9.15
6.25
3.46
0.56
-2.52
-5.77
-9.09
-12.38
-15.54
-18.45
-21.02
-23.21
-25.00
-26.57
-28.20
-30.26
-33.11
-36.86
-41.23
-45.50
-48.60
-49.46
-47.42
-42.42
-35.03
-26.32
-17.35
-9.04
-1.86
3.99
8.51
11.75
13.78
14.67
14.61
13.89
12.85
11.78
10.83
9.98
9.09
8.03
6.78
5.42
4.06
2.73
1.29
-0.47
-2.81
-5.83
-9.51
-13.63
-17.94
-22.19
-26.25
-30.06
-33.66
-37.21
-40.93
-44.97
-49.31
-53.53
-56.81
-58.14
-56.60
-51.77
-43.90
-33.80
-22.56
-11.19
-0.38
9.51
18.29
25.82
31.92
36.46
39.47
41.12
41.71
41.56
40.97
40.17
39.38
38.81
38.60
38.80
39.26
39.70
39.78
39.20
37.89
35.89
33.38
30.57
27.61
24.56
21.40
18.03
14.28
9.97
4.91
-0.97
-7.53
-14.38
-20.80
-25.92
-28.83
-29.00
-26.40
-21.51
-15.25
-8.61
-2.42
2.82
6.92
9.89
11.77
12.65
12.64
11.87
10.56
8.93
7.17
5.38
3.58
1.70
-0.35
-2.70
-5.38
-8.40
-11.67
-15.07
-18.55
-22.17
-26.06
-30.27
-34.68
-38.88
-42.32
-44.57
-45.48
-45.21
-44.07
-42.25
-39.71
-36.21
-31.54
-25.63
-18.71
-11.11
-3.21
4.76
12.61
20.11
26.99
32.85
37.44
40.64
42.55
43.38
43.33
42.54
41.08
39.07
36.72
34.33
32.19
30.58
29.61
29.18
29.04
28.80
28.01
26.35
23.70
20.23
16.34
12.46
8.88
5.57
2.19
-1.69
-6.40
-11.84
-17.47
-22.42
-25.68
-26.47
-24.50
-20.05
-13.89
-7.07
-0.63
4.70
8.54
10.97
12.29
12.84
12.85
12.43
11.63
10.50
9.24
8.05
7.13
6.48
5.91
5.14
3.89
2.04
-0.29
-2.84
-5.34
-7.62
-9.69
-11.68
-13.76
-16.03
-18.53
-21.31
-24.41
-27.91
-31.76
-35.75
-39.35
-41.77
-42.12
-39.76
-34.51
-26.80
-17.62
-8.18
0.46
7.59
13.00
16.88
19.55
21.29
22.26
22.54
22.17
21.30
20.15
18.97
17.94
17.13
16.44
15.69
14.66
13.26
11.49
9.51
7.47
5.43
3.34
1.08
-1.46
-4.29
-7.38
-10.73
-14.47
-18.78
-23.76
-29.20
-34.46
-38.57
-40.50
-39.55
-35.54
-28.95
-20.65
-11.67
-2.91
4.96
11.59
16.81
20.57
22.97
24.15
24.39
23.98
23.27
22.50
21.86
21.37
21.00
20.63
20.15
19.45
18.41
16.96
15.01
12.59
9.71
6.46
2.99
-0.57
-4.11
-7.62
-11.20
-15.06
-19.44
-24.52
-30.25
-36.22
-41.63
-45.45
-46.68
-44.71
-39.48
-31.53
-21.82
-11.50
-1.60
7.11
14.22
19.58
23.22
25.31
26.03
25.65
24.47
22.94
21.51
20.56
20.26
20.38
20.47
19.96
18.48
15.99
12.78
9.23
5.63
2.05
-1.56
-5.29
-9.16
-13.14
-17.24
-21.54
-26.17
-31.12
-36.11
-40.58
-43.76
-44.96
-43.72
-40.00
-34.17
-26.95
-19.21
-11.81
-5.43
-0.42
3.12
5.28
6.19
5.94
4.67
2.63
0.25
-1.98
-3.65
-4.73
-5.53
-6.54
-8.13
-10.31
-12.65
-14.55
-15.57
-15.64
-15.13
-14.55
-14.38
-14.87
-16.10
-18.11
-20.95
-24.54
-28.50
-32.00
-33.92
-33.22
-29.37
-22.60
-13.81
-4.15
5.32
13.92
21.29
27.25
31.64
34.37
35.47
35.21
34.03
32.46
30.90
29.53
28.36
27.29
26.27
25.26
24.26
23.25
22.21
21.09
19.89
18.58
17.13
15.45
13.39
10.77
7.41
3.20
-1.85
-7.54
-13.40
-18.76
-22.77
-24.69
-24.02
-20.68
-15.07
-7.93
-0.19
7.28
13.84
19.13
23.02
25.55
26.82
26.91
25.92
24.03
21.50
18.67
15.93
13.54
11.60
10.01
8.55
7.03
5.33
3.50
1.61
-0.33
-2.43
-4.84
-7.71
-11.12
-15.04
-19.49
-24.45
-29.85
-35.41
-40.49
-44.21
-45.65
-44.19
-39.77
-32.96
-24.79
-16.41
-8.75
-2.33
2.77
6.73
9.85
12.31
14.17
15.43
16.10
16.36
16.58
17.20
18.60
20.86
23.78
26.90
29.68
31.68
32.68
32.58
31.40
29.22
26.13
22.33
18.11
13.85
9.82
6.08
2.47
-1.37
-5.68
-10.38
-14.94
-18.47
-20.02
-18.99
-15.31
-9.45
-2.21
5.58
13.23
20.27
26.32
31.08
34.26
35.70
35.37
33.50
30.45
26.66
22.60
18.71
15.33
12.73
10.94
9.81
9.03
8.25
7.25
5.95
4.36
2.42
-0.04
-3.20
-7.16
-11.72
-16.41
-20.70
-24.26
-27.22
-30.07
-33.38
-37.33
-41.52
-44.95
-46.46
-45.17
-40.85
-33.94
-25.45
-16.44
-7.83
-0.18
6.29
11.55
15.62
18.51
20.21
20.80
20.44
19.39
18.04
16.70
15.59
14.82
14.34
14.08
13.94
13.86
13.75
13.51
12.99
12.02
10.48
8.37
5.75
2.81
-0.23
-3.25
-6.24
-9.29
-12.66
-16.56
-21.12
-26.26
-31.50
-36.01
-38.75
-38.79
-35.60
-29.31
-20.65
-10.80
-0.97
7.84
15.03
20.34
23.79
25.52
25.74
24.79
23.05
20.97
18.92
17.13
15.65
14.42
13.30
12.21
11.09
9.90
8.56
6.97
4.99
2.57
-0.26
-3.34
-6.46
-9.38
-11.95
-14.15
-16.06
-17.98
-20.32
-23.52
-27.82
-33.10
-38.72
-43.65
-46.67
-46.85
-43.76
-37.70
-29.53
-20.40
-11.39
-3.25
3.67
9.35
13.97
17.71
20.69
22.93
24.39
25.05
24.94
24.19
23.06
21.82
20.75
20.01
19.64
19.54
19.52
19.40
19.07
18.47
17.56
16.20
14.21
11.43
7.82
3.55
-1.11
-5.89
-10.67
-15.52
-20.58
-25.84
-30.98
-35.33
-38.08
-38.60
-36.59
-32.30
-26.31
-19.43
-12.52
-6.37
-1.58
1.61
3.52
5.10
7.62
12.24
19.29
27.92
36.25
41.99
43.23
39.01
29.51
15.93
0.42
-14.12
-24.40
-27.50
-22.02
-8.84
8.76
26.18
39.15
45.44
45.36
41.19
35.74
30.97
27.44
24.71
22.13
19.60
17.64
16.95
17.93
20.23
22.91
24.76
24.89
23.11
19.87
16.02
12.31
9.04
6.05
2.92
-0.71
-4.91
-9.37
-13.65
-17.35
-20.35
-22.70
-24.57
-26.10
-27.32
-28.24
-28.85
-29.17
-29.28
-29.24
-29.16
-29.17
-29.49
-30.33
-31.97
-34.59
-38.26
-42.79
-47.69
-52.12
-55.12
-55.69
-53.22
-47.64
-39.46
-29.70
-19.49
-9.85
-1.43
5.42
10.61
14.17
16.21
16.93
16.60
15.67
14.57
13.65
13.07
12.78
12.54
12.08
11.20
9.87
8.21
6.41
4.63
2.92
1.20
-0.73
-3.03
-5.74
-8.78
-11.99
-15.30
-18.79
-22.67
-27.11
-31.97
-36.70
-40.30
-41.67
-40.01
-35.10
-27.46
-18.19
-8.56
0.36
7.95
14.12
19.12
23.26
26.73
29.49
31.40
32.41
32.72
32.82
33.40
35.09
38.23
42.80
48.38
54.26
59.52
63.08
63.88
61.00
54.01
43.07
29.12
13.73
-1.23
-14.08
-23.74
-29.93
-33.11
-34.13
-33.85
-32.76
-30.87
-27.85
-23.26
-16.93
-9.01
-0.04
9.22
18.01
25.77
32.13
36.93
40.17
41.85
42.03
40.75
38.12
34.41
30.03
25.48
21.20
17.50
14.41
11.81
9.45
7.13
4.73
2.22
-0.40
-3.19
-6.18
-9.44
-12.90
-16.40
-19.73
-22.73
-25.39
-27.92
-30.61
-33.73
-37.34
-41.10
-44.33
-46.14
-45.68
-42.45
-36.51
-28.46
-19.30
-10.14
-1.89
4.92
10.15
13.92
16.42
17.74
17.94
17.11
15.50
13.58
11.83
10.59
9.88
9.41
8.77
7.63
5.90
3.75
1.47
-0.75
-2.87
-5.00
-7.33
-10.03
-13.18
-16.83
-20.94
-25.45
-30.20
-34.90
-39.08
-42.12
-43.37
-42.31
-38.75
-32.95
-25.56
-17.46
-9.50
-2.29
3.86
8.89
12.87
15.85
17.82
18.76
18.74
17.93
16.65
15.32
14.31
13.87
14.04
14.64
15.35
15.83
15.82
15.23
14.09
12.46
10.42
7.98
5.19
2.11
-1.20
-4.69
-8.44
-12.58
-17.22
-22.28
-27.35
-31.75
-34.58
-35.07
-32.74
-27.61
-20.16
-11.25
-1.90
6.93
14.51
20.41
24.55
27.04
28.16
28.21
27.48
26.20
24.60
22.90
21.29
19.97
19.02
18.40
17.95
17.45
16.65
15.44
13.78
11.79
9.59
7.29
4.91
2.44
-0.16
-2.94
-5.94
-9.31
-13.16
-17.56
-22.29
-26.76
-30.11
-31.43
-30.12
-26.10
-19.88
-12.36
-4.50
2.87
9.26
14.47
18.46
21.27
22.96
23.56
23.14
21.80
19.71
17.12
14.35
11.69
9.38
7.54
6.22
5.44
5.15
5.28
5.60
5.77
5.40
4.20
2.15
-0.48
-3.19
-5.61
-7.60
-9.42
-11.55
-14.47
-18.36
-23.02
-27.80
-31.81
-34.12
-34.01
-31.15
-25.63
-17.98
-9.03
0.23
8.80
15.90
21.02
23.93
24.76
23.83
21.65
18.83
15.94
13.48
11.76
10.88
10.72
11.05
11.54
11.89
11.84
11.28
10.20
8.74
7.10
5.45
3.86
2.27
0.45
-1.83
-4.80
-8.54
-12.95
-17.75
-22.49
-26.57
-29.31
-30.08
-28.49
-24.47
-18.45
-11.16
-3.54
3.54
9.43
13.78
16.49
17.66
17.53
16.45
14.81
13.04
11.47
10.31
9.53
8.99
8.42
7.57
6.24
4.40
2.21
-0.06
-2.06
-3.65
-4.87
-6.13
-7.93
-10.77
-14.88
-20.11
-25.94
-31.57
-36.11
-38.77
-39.05
-36.88
-32.59
-26.80
-20.24
-13.50
-6.96
-0.80
4.89
9.98
14.22
17.32
19.11
19.59
19.00
17.80
16.46
15.41
14.84
14.73
14.83
14.81
14.39
13.46
12.10
10.47
8.70
6.82
4.69
2.04
-1.39
-5.79
-11.14
-17.06
-22.85
-27.59
-30.33
-30.39
-27.58
-22.25
-15.18
-7.26
0.73
8.27
15.13
21.13
26.07
29.68
31.67
31.92
30.53
27.94
24.81
21.93
19.89
18.95
18.89
19.13
18.91
17.70
15.34
12.11
8.52
5.04
1.88
-1.05
-4.01
-7.31
-11.14
-15.64
-20.84
-26.67
-32.86
-38.74
-43.41
-45.87
-45.41
-41.85
-35.64
-27.70
-19.03
-10.52
-2.68
4.18
9.97
14.60
18.03
20.29
21.55
22.06
22.14
22.03
21.89
21.79
21.76
21.87
22.11
22.42
22.60
22.38
21.53
19.89
17.51
14.58
11.31
7.89
4.41
0.86
-2.82
-6.74
-11.04
-15.79
-20.96
-26.25
-31.11
-34.81
-36.56
-35.78
-32.27
-26.30
-18.54
-9.92
-1.36
6.45
13.15
18.67
23.09
26.44
28.65
29.59
29.25
27.83
25.78
23.61
21.74
20.34
19.34
18.53
17.66
16.56
15.17
13.46
11.46
9.20
6.67
3.81
0.57
-3.18
-7.50
-12.39
-17.73
-23.31
-28.77
