1705323112.00
64.000000
-0.00
-0.00
-0.00
-0.00
-0.00
-0.00
-0.00
-0.00
-0.00
-0.00
0.00
0.01
0.01
-0.00
-0.03
-0.05
-0.05
0.00
0.13
0.36
0.66
1.01
1.37
1.72
2.06
2.40
2.79
3.24
3.80
4.42
5.06
5.66
6.20
6.68
7.15
7.68
8.31
9.14
10.09
11.04
11.88
12.56
13.14
13.76
14.65
15.96
17.91
20.32
22.90
25.38
27.58
29.57
31.68
34.32
37.81
42.54
48.15
54.10
59.83
64.97
69.58
74.14
79.34
85.71
93.76
103.00
112.62
121.73
129.77
136.75
143.30
150.75
157.77
166.64
177.95
191.79
206.97
220.57
228.25
225.36
208.53
176.87
132.76
80.05
23.07
-34.94
-92.44
-149.16
-205.23
-260.37
-313.74
-363.87
-409.82
-450.88
-486.46
-515.67
-537.13
-549.09
-549.79
-538.15
-513.94
-478.35
-433.49
-382.00
-326.51
-269.26
-211.98
-155.94
-102.16
-51.50
-4.95
36.62
72.56
102.59
126.85
145.86
160.31
170.92
178.31
182.88
184.92
184.65
182.36
178.38
173.13
167.01
160.38
153.48
146.46
139.38
132.29
125.23
118.26
111.46
104.90
98.63
92.68
87.07
81.81
76.91
72.37
68.22
64.44
61.05
58.06
55.47
53.26
51.44
49.97
48.82
47.92
47.17
46.44
45.59
44.42
42.77
40.48
37.45
33.62
29.00
23.64
17.70
11.37
4.91
-1.41
-7.34
-12.63
-17.12
-20.66
-23.21
-24.76
-25.39
-25.20
-24.32
-22.92
-21.11
-19.05
-16.82
-14.49
-12.10
-9.69
-7.29
-4.89
-2.49
-0.06
2.39
4.91
7.51
10.23
13.04
15.93
18.90
21.95
25.10
28.39
31.84
35.49
39.40
43.49
47.68
51.97
56.33
60.77
65.32
70.03
74.96
80.22
85.70
91.32
97.05
102.87
108.78
114.75
120.80
126.93
133.17
139.24
144.90
149.93
154.08
157.10
158.59
158.09
154.88
150.29
144.76
138.62
132.06
125.24
118.29
111.33
104.44
97.76
91.44
85.29
79.26
73.30
67.42
61.62
55.93
50.37
44.99
39.81
34.63
29.27
23.62
17.58
11.06
4.04
-3.43
-11.23
-19.04
-26.60
-33.51
-39.25
-43.26
-45.01
-44.07
-40.22
-33.45
-24.07
-12.74
-0.30
12.25
23.96
33.99
41.72
46.82
49.27
49.32
47.36
43.90
39.48
34.61
29.71
25.08
20.91
17.28
14.24
11.76
9.79
8.24
6.94
5.72
4.35
2.67
0.60
-1.86
-4.62
-7.58
-10.65
-13.88
-17.39
-21.36
-25.92
-31.05
-36.54
-42.05
-47.25
-51.96
-56.33
-60.74
-65.68
-71.56
-78.48
-86.18
-94.13
-101.77
-108.89
-115.68
-122.81
-131.10
-141.20
-153.23
-166.76
-180.98
-195.05
-208.50
-221.36
-234.18
-247.81
-263.32
-281.85
-304.28
-330.65
-359.45
-387.36
-409.74
-421.92
-420.86
-406.35
-380.93
-348.88
-314.50
-280.74
-248.89
-219.00
-190.90
-164.71
-140.96
-120.09
-102.09
-86.43
-72.29
-59.08
-46.61
-35.10
-24.99
-16.65
-10.14
-5.19
-1.33
1.93
4.97
7.86
10.46
12.45
13.57
13.75
13.15
12.04
10.69
9.07
6.85
3.51
-1.29
-7.38
-13.81
-18.99
-21.20
-19.16
-12.51
-1.97
11.00
24.62
37.35
48.26
56.94
63.41
67.80
70.26
70.88
69.84
67.44
64.22
60.82
57.87
55.83
54.79
54.58
54.74
54.85
54.60
53.94
52.96
51.82
50.59
49.16
47.27
44.64
41.10
36.68
31.64
26.36
21.22
16.55
12.44
8.79
5.28
1.48
-3.07
-8.66
-15.29
-22.54
-29.54
-35.07
-37.86
-36.91
-31.82
-23.01
-11.58
1.01
13.34
24.34
33.40
40.31
45.08
47.89
48.97
48.67
47.39
45.51
43.31
40.94
38.49
36.06
33.87
32.25
31.48
31.68
32.72
34.16
35.42
35.88
35.03
32.69
29.00
24.39
19.42
14.62
10.25
6.27
2.36
-1.94
-7.07
-13.25
-20.28
-27.52
-33.84
-37.92
-38.61
-35.27
-28.04
-17.85
-6.11
5.68
16.33
25.19
32.10
37.21
40.79
43.01
43.98
43.81
42.68
40.92
38.99
37.33
36.27
35.88
35.95
36.12
36.05
35.53
34.59
33.38
32.08
30.73
29.17
27.11
24.26
20.44
15.71
10.44
5.10
0.15
-4.17
-7.89
-11.28
-14.65
-18.23
-22.17
-26.57
-31.56
-37.21
-43.29
-49.15
-53.56
-55.13
-52.70
-45.94
-35.52
-22.95
-10.06
1.64
11.25
18.59
23.98
27.84
30.52
32.17
32.90
32.83
32.24
31.44
30.74
30.29
30.12
30.18
30.43
30.93
31.77
33.07
34.81
36.81
38.75
40.23
40.87
40.37
38.58
35.48
31.24
26.17
20.69
15.24
10.19
5.74
1.86
-1.57
-4.79
-8.03
-11.47
-15.20
-19.13
-22.94
-26.06
-27.76
-27.36
-24.45
-19.11
-11.91
-3.79
4.27
11.51
17.50
22.17
25.61
27.96
29.27
29.50
28.64
26.78
24.21
21.39
18.84
16.88
15.64
14.93
14.42
13.80
12.94
11.91
10.90
10.08
9.50
9.03
8.47
7.60
6.32
4.66
2.77
0.79
-1.17
-3.09
-5.05
-7.15
-9.43
-11.93
-14.65
-17.61
-20.76
-23.96
-26.81
-28.81
-29.33
-27.94
-24.57
-19.59
-13.74
-7.79
-2.40
2.10
5.65
8.40
10.52
12.16
13.35
14.05
14.19
13.67
12.54
10.97
9.34
8.06
7.47
7.72
8.67
10.01
11.36
12.40
12.95
12.96
12.46
11.50
10.20
8.68
7.15
5.78
4.65
3.73
2.82
1.69
0.15
-1.86
-4.23
-6.69
-8.94
-10.77
-12.15
-13.27
-14.40
-15.79
-17.46
-19.18
-20.51
-20.99
-20.31
-18.48
-15.76
-12.59
-9.28
-6.04
-2.91
0.10
2.96
5.48
7.45
8.71
9.24
9.23
9.00
8.85
8.97
9.37
9.90
10.34
10.51
10.38
10.03
9.64
9.39
9.39
9.65
10.07
10.54
10.96
11.26
11.39
11.29
10.89
10.12
8.93
7.35
5.56
3.79
2.27
1.16
0.46
0.03
-0.30
-0.72
-1.30
-2.04
-2.87
-3.76
-4.68
-5.70
-6.85
-8.22
-9.90
-11.98
-14.50
-17.37
-20.38
-23.20
-25.44
-26.75
-26.95
-25.96
-23.86
-20.81
-17.10
-13.07
-9.04
-5.35
-2.17
0.42
2.46
4.00
5.06
5.65
5.83
5.75
5.64
5.64
5.79
5.95
5.97
5.77
5.41
5.13
5.19
5.68
6.52
7.43
8.18
8.60
8.75
8.77
8.82
8.92
8.93
8.64
7.87
6.59
4.92
3.11
1.41
0.01
-1.01
-1.70
-2.18
-2.65
-3.27
-4.25
-5.71
-7.73
-10.28
-13.20
-16.23
-19.02
-21.20
-22.48
-22.76
-22.09
-20.68
-18.77
-16.55
-14.14
-11.62
-9.11
-6.72
-4.64
-2.91
-1.57
-0.52
0.33
1.03
1.57
1.89
2.01
2.02
2.13
2.46
2.98
3.53
3.91
4.05
4.01
3.98
4.09
4.26
4.25
3.73
2.50
0.61
-1.67
-3.96
-6.01
-7.82
-9.59
-11.63
-14.16
-17.22
-20.65
-24.17
-27.55
-30.70
-33.71
-36.79
-40.19
-44.11
-48.62
-53.66
-59.03
-64.41
-69.30
-73.13
-75.45
-76.10
-75.44
-74.25
-73.42
-73.45
-74.02
-73.92
-71.35
-64.67
-53.11
-37.16
-18.35
1.32
20.17
37.35
52.95
67.63
82.11
96.70
110.95
123.59
132.71
136.04
131.63
118.47
97.24
70.73
43.67
21.66
9.46
9.46
20.63
38.99
59.01
75.55
85.38
87.51
82.75
72.54
58.18
40.68
21.14
1.23
-16.86
-31.13
-40.53
-45.62
-48.18
-50.30
-53.31
-57.19
-60.85
-62.86
-62.31
-59.14
-53.94
-47.46
-40.20
-32.42
-24.34
-16.35
-9.00
-2.70
2.46
6.68
10.22
13.15
15.41
17.02
18.30
19.79
21.96
24.91
28.21
31.18
33.18
33.89
33.37
31.91
29.84
27.49
25.24
23.47
22.55
22.56
23.25
24.05
24.40
23.99
22.88
21.39
19.91
18.68
17.77
17.11
16.58
16.21
16.04
16.11
16.38
16.66
16.71
16.27
15.22
13.65
11.82
10.04
8.54
7.38
6.41
5.43
4.28
3.03
1.97
1.47
1.84
3.10
4.93
6.80
8.12
8.50
7.87
6.46
4.67
2.85
1.30
0.13
-0.55
-0.57
0.24
2.00
4.60
7.64
10.45
12.44
13.20
12.77
11.47
9.82
8.19
6.72
5.36
3.95
2.47
1.01
-0.24
-1.12
-1.66
-2.01
-2.33
-2.69
-2.97
-2.93
-2.39
-1.34
-0.04
1.07
1.54
1.11
-0.19
-2.02
-3.97
-5.67
-7.06
-8.28
-9.49
-10.78
-11.93
-12.59
-12.45
-11.51
-10.07
-8.65
-7.65
-7.16
-6.91
-6.48
-5.63
-4.50
-3.55
-3.29
-3.96
-5.36
-6.85
-7.77
-7.78
-6.98
-5.82
-4.85
-4.32
-4.14
-3.95
-3.41
-2.38
-1.00
0.39
1.48
2.11
2.30
2.16
1.82
1.34
0.70
-0.09
-0.96
-1.73
-2.16
-2.05
-1.26
0.15
1.95
3.86
5.62
7.06
8.11
8.81
9.22
9.42
9.44
9.21
8.62
7.54
5.90
3.76
1.35
-1.05
-3.18
-4.81
-5.84
-6.22
-5.88
-4.83
-3.15
-1.09
0.90
2.33
2.88
2.44
1.28
-0.14
-1.39
-2.10
-2.21
-1.83
-1.15
-0.32
0.55
1.41
2.18
2.75
3.03
3.01
2.80
2.60
2.63
3.04
3.81
4.85
5.87
6.55
6.55
5.53
3.34
0.12
-3.65
-7.24
-9.89
-11.18
-11.14
-10.24
-9.11
-8.22
-7.70
-7.36
-6.92
-6.24
-5.40
-4.60
-4.05
-3.84
-3.84
-3.91
-3.88
-3.68
-3.32
-2.87
-2.45
-2.17
-2.17
-2.49
-3.07
-3.71
-4.06
-3.80
-2.74
-0.89
1.41
3.72
5.48
6.24
5.73
3.90
0.98
-2.59
-6.28
-9.55
-11.97
-13.34
-13.68
-13.22
-12.22
-10.92
-9.47
-7.95
-6.46
-5.09
-3.95
-3.17
-2.86
-3.06
-3.67
-4.52
-5.31
-5.76
-5.70
-5.18
-4.46
-3.85
-3.59
-3.66
-3.89
-3.97
-3.78
-3.27
-2.51
-1.48
-0.10
1.68
3.80
5.79
7.05
6.90
5.10
1.92
-1.91
-5.54
-8.29
-9.90
-10.48
-10.28
-9.57
-8.51
-7.20
-5.79
-4.47
-3.45
-2.79
-2.43
-2.20
-1.94
-1.60
-1.29
-1.17
-1.40
-2.04
-2.95
-3.94
-4.71
-5.06
-4.89
-4.21
-3.19
-2.03
-0.88
0.18
1.18
2.22
3.33
4.40
5.17
5.30
4.51
2.72
0.16
-2.72
-5.37
-7.38
-8.54
-8.91
-8.71
-8.23
-7.71
-7.26
-6.82
-6.29
-5.55
-4.63
-3.64
-2.80
-2.29
-2.10
-2.14
-2.18
-2.05
-1.73
-1.30
-0.90
-0.63
-0.47
-0.25
0.17
0.88
1.82
2.87
3.91
4.86
5.74
6.52
7.07
7.15
6.49
4.96
2.69
0.07
-2.40
-4.31
-5.52
-6.14
-6.41
-6.50
-6.40
-5.97
-5.03
-3.52
-1.60
0.40
2.10
3.23
3.74
3.79
3.63
3.50
3.51
3.60
3.64
3.50
3.11
2.58
2.11
1.85
1.89
2.17
2.54
2.81
2.88
2.80
2.64
2.46
2.25
1.87
1.16
0.08
-1.30
-2.86
-4.43
-5.89
-7.13
-7.97
-8.22
-7.75
-6.57
-4.94
-3.29
-1.97
-1.15
-0.74
-0.42
0.08
0.96
2.24
3.82
5.47
6.92
7.83
7.96
7.28
6.04
4.71
3.78
3.52
3.80
4.27
4.47
4.12
3.13
1.52
-0.68
-3.47
-6.75
-10.22
-13.42
-15.88
-17.46
-18.34
-18.95
-19.70
-20.60
-21.36
-21.60
-21.05
-19.80
-18.15
-16.41
-14.60
-12.50
-9.75
-6.14
-1.81
2.74
6.74
9.45
10.32
9.23
6.49
2.85
-0.79
-3.56
-5.03
-5.34
-5.24
-5.91
-8.57
-14.11
-22.77
-34.11
-47.06
-60.25
-72.44
-82.91
-91.68
-99.49
-107.51
-116.85
-128.12
-141.19
-155.34
-169.60
-183.25
-196.12
-208.52
-221.16
-234.96
-251.02
-270.47
-293.99
-320.93
-348.81
-373.28
-389.34
-393.03
-383.09
-361.46
-332.47
-301.04
-270.90
-243.76
-219.63
-197.78
-177.73
-159.47
-143.22
-128.92
-115.92
-103.27
-90.24
-76.73
-63.19
-50.50
-39.45
-30.35
-22.94
-16.50
-10.26
-3.72
3.15
10.02
16.33
21.76
26.30
30.30
34.29
38.68
43.63
48.95
54.35
59.57
64.64
69.82
75.51
82.01
89.29
97.03
104.77
112.18
119.26
126.46
134.48
143.95
155.18
167.92
181.62
195.59
209.39
222.95
236.63
251.06
267.08
285.70
307.77
333.41
361.37
388.69
411.06
423.99
424.40
411.74
388.22
357.84
324.91
292.75
263.04
236.25
212.28
191.10
172.81
157.38
144.28
132.54
120.99
108.91
96.31
83.95
72.96
64.24
58.00
53.58
49.78
45.47
40.04
33.68
27.17
21.44
17.07
14.10
12.18
10.72
9.23
7.49
5.49
3.45
1.69
0.51
0.07
0.34
1.03
1.71
1.97
1.61
0.73
-0.34
-1.18
-1.49
-1.15
-0.25
0.97
2.19
3.17
3.75
4.01
4.18
4.56
5.38
6.54
7.77
8.62
8.70
7.88
6.33
4.48
2.86
2.02
2.23
3.53
5.50
7.45
8.63
8.49
6.92
4.32
1.48
-0.68
-1.46
-0.58
1.71
4.72
7.65
9.92
11.49
13.08
15.78
20.39
26.65
32.88
36.41
34.68
26.61
13.54
-1.08
-12.91
-18.43
-16.31
-7.85
3.70
14.31
20.46
20.00
12.45
-1.05
-17.98
-34.82
-47.58
-52.72
-48.25
-34.72
-15.65
3.40
16.66
20.42
14.45
1.87
-12.53
-24.50
-31.97
-35.20
-35.70
-34.87
-33.44
-31.89
-31.37
-33.98
-41.83
-55.44
-72.40
-87.74
-95.83
-93.19
-80.44
-62.34
-45.86
-37.12
-38.70
-48.61
-60.94
-67.89
-62.24
-39.55
0.27
52.28
106.95
152.23
176.96
174.68
146.29
100.09
48.71
4.32
-25.73
-40.85
-45.78
-47.01
-49.04
-52.43
-54.18
-49.73
-35.21
-9.00
27.69
70.88
114.39
150.89
173.50
177.63
162.56
131.82
92.18
51.38
15.76
-11.23
-29.26
-40.14
-46.41
-50.30
-53.23
-56.02
-59.18
-63.12
-68.06
-73.78
-79.48
-83.88
-85.71
-84.31
-80.12
-74.52
-69.15
-64.96
-61.70
-57.89
-51.74
-42.13
-29.52
-15.93
-4.18
3.31
5.56
3.35
-1.20
-5.57
-7.83
-7.32
-4.58
-1.01
1.95
3.37
3.11
1.69
-0.10
-1.63
-2.62
-3.04
-2.93
-2.30
-1.10
0.58
2.41
3.87
4.41
3.76
2.14
0.15
-1.44
-2.07
-1.62
-0.38
1.11
2.40
3.26
3.74
4.06
4.35
4.67
4.88
4.88
4.58
4.05
3.48
3.04
2.84
2.80
2.74
2.43
1.77
0.81
-0.18
-0.82
-0.78
0.03
1.43
3.03
4.39
5.14
5.14
4.46
3.29
1.95
0.76
0.01
-0.06
0.61
1.88
3.47
5.04
6.33
7.27
7.90
8.31
8.50
8.38
7.86
6.96
5.87
4.82
4.01
3.50
3.20
2.99
2.83
2.74
2.83
3.10
3.47
3.77
3.86
3.75
3.64
3.81
4.52
5.80
7.45
9.04
10.13
10.46
9.99
8.99
7.89
7.15
7.15
8.06
9.74
11.80
13.56
14.29
13.48
10.96
6.95
1.90
-3.78
-9.79
-16.02
-22.24
-28.06
-32.88
-36.05
-37.07
-35.71
-31.84
-25.33
-16.07
-4.23
9.37
23.15
35.12
43.55
47.61
47.62
44.75
40.32
35.26
30.03
24.81
19.87
15.67
12.53
10.18
7.65
3.49
-3.51
-13.58
-25.79
-38.29
-49.04
-56.56
-60.40
-61.21
-60.42
-59.65
-60.02
-61.70
-63.83
-65.02
-64.13
-61.09
-57.16
-54.55
-55.29
-60.23
-68.67
-78.64
-87.91
-94.72
-98.00
-97.12
-91.39
-80.04
-62.60
-39.25
-10.86
21.76
58.59
100.50
148.17
200.18
251.44
293.40
316.53
314.22
286.20
239.35
185.35
136.06
98.93
74.90
59.45
46.13
30.38
11.48
-8.02
-24.69
-36.54
-44.14
-49.75
-55.61
-62.28
-68.45
-71.84
-70.84
-65.61
-58.22
-51.74
-48.68
-49.94
-54.36
-59.41
-62.43
-61.80
-57.64
-51.54
-45.68
-41.75
-40.24
-40.44
-40.99
-40.75
-39.31
-37.11
-34.99
-33.63
-33.18
-33.30
-33.50
-33.57
-33.67
-34.20
-35.44
-37.36
-39.64
-41.94
-44.20
-46.60
-49.38
-52.59
-55.89
-58.67
-60.34
-60.64
-59.85
-58.72
-58.18
-59.02
-61.45
-64.99
-68.50
-70.56
-70.03
-66.53
-60.56
-53.08
-44.76
-35.30
-23.29
-6.82
15.57
43.97
77.07
112.58
147.98
180.89
208.94
229.46
239.70
237.65
223.30
199.27
170.19
141.08
115.20
92.96
72.16
49.75
23.85
-4.86
-33.36
-57.66
-74.54
-82.76
-83.22
-78.29
-70.63
-62.36
-54.77
-48.42
-43.68
-40.90
-40.41
-42.28
-45.98
-50.36
-53.89
-55.22
-53.68
-49.51
-43.75
-37.84
-33.06
-30.09
-28.83
-28.49
-28.03
-26.55
-23.72
-19.77
-15.38
-11.32
-8.09
-5.78
-4.11
-2.64
-1.02
0.82
2.78
4.61
6.14
7.43
8.67
10.01
11.42
12.65
13.33
13.24
12.48
11.40
10.47
9.98
9.89
9.90
9.66
8.95
7.81
6.47
5.22
4.27
3.67
3.43
3.47
3.71
4.06
4.46
4.92
5.45
6.10
6.82
7.45
7.79
7.70
7.24
6.65
6.27
6.32
6.78
7.38
7.72
7.53
6.73
5.50
4.19
3.04
2.19
1.58
1.07
0.57
0.09
-0.24
-0.31
-0.08
0.32
0.68
0.81
0.63
0.22
-0.25
-0.60
-0.80
-0.94
-1.21
-1.81
-2.81
-4.08
-5.36
-6.35
-6.81
-6.71
-6.20
-5.51
-4.84
-4.26
-3.71
-3.10
-2.35
-1.50
-0.66
-0.00
0.36
0.38
0.07
-0.45
-1.04
-1.58
-1.96
-2.11
-1.98
-1.61
-1.02
-0.30
0.49
1.30
2.14
3.03
3.98
4.94
5.79
6.35
6.46
6.05
5.16
3.89
2.43
0.95
-0.36
-1.36
-1.95
-2.12
-1.90
-1.35
-0.50
0.67
2.15
3.83
5.41
6.51
6.83
6.26
5.02
3.56
2.46
2.16
2.89
4.58
6.81
8.83
9.77
8.95
6.16
1.92
-2.62
-6.10
-7.60
-7.15
-5.78
-5.16
-6.80
-11.37
-18.40
-26.37
-33.43
-37.98
-39.30
-37.73
-34.59
-31.89
-31.95
-36.81
-47.40
-62.79
-79.74
-93.28
-98.24
-91.36
-72.96
-47.02
-19.63
3.68
20.20
30.80
38.91
48.48
62.00
79.66
99.65
118.98
134.45
143.21
143.20
133.45
114.63
89.18
60.93
34.12
12.20
-3.04
-11.56
-14.64
-14.18
-12.05
-9.87
-8.94
-10.16
-13.93
-19.94
-27.12
-33.85
-38.50
-40.07
-38.56
-35.04
-31.10
-28.29
-27.36
-28.08
-29.35
-29.85
-28.68
-25.83
-22.23
-19.15
-17.63
-17.85
-19.10
-20.11
-19.82
-17.89
-14.91
-11.96
-10.04
-9.49
-9.92
-10.47
-10.39
-9.41
-7.86
-6.34
-5.40
-5.15
-5.33
-5.44
-5.16
-4.48
-3.74
-3.31
-3.44
-4.10
-5.09
-6.26
-7.59
-9.23
-11.25
-13.47
-15.47
-16.70
-16.86
-15.99
-14.59
-13.22
-12.26
-11.71
-11.23
-10.42
-9.09
-7.37
-5.63
-4.21
-3.21
-2.46
-1.65
-0.52
1.03
2.84
4.76
6.64
8.45
10.15
11.67
12.92
13.81
14.38
14.77
15.20
15.74
16.32
16.70
16.64
15.97
14.72
13.04
11.17
9.31
7.63
6.28
5.35
4.86
4.71
4.75
4.80
4.79
4.82
5.09
5.77
6.93
8.42
9.96
11.29
12.21
12.66
12.64
12.15
11.25
10.02
8.65
7.39
6.47
5.94
5.75
5.73
5.66
5.44
5.05
4.54
3.99
3.44
2.92
2.50
2.25
2.15
2.08
1.85
1.23
0.15
-1.28
-2.82
-4.15
-5.07
-5.54
-5.70
-5.74
-5.78
-5.77
-5.55
-4.94
-3.86
-2.39
-0.78
0.66
1.72
2.28
2.41
2.26
2.02
1.80
1.64
1.60
1.68
1.93
2.33
2.86
3.41
3.89
4.28
4.60
4.90
5.17
5.35
5.28
4.87
4.15
3.20
2.20
1.11
-0.24
-2.07
-4.50
-7.34
-10.05
-11.91
-12.43
-11.50
-9.48
-7.03
-4.73
-2.90
-1.56
-0.52
0.36
1.14
1.81
2.29
2.61
2.82
2.99
3.09
3.07
2.87
2.51
2.12
1.83
1.78
2.02
2.52
3.26
4.16
5.02
5.55
5.44
4.53
2.93
1.04
-0.64
-1.81
-2.52
-3.16
-4.17
-5.70
-7.46
-8.83
-9.25
-8.53
-6.92
-4.97
-3.15
-1.62
-0.26
1.19
2.79
4.41
5.72
6.47
6.60
6.24
5.59
4.76
3.78
2.64
1.41
0.27
-0.55
-0.92
-0.92
-0.78
-0.83
-1.28
-2.18
-3.35
-4.57
-5.62
-6.36
-6.81
-7.09
-7.44
-8.16
-9.55
-11.79
-14.86
-18.52
-22.35
-25.90
-28.74
-30.62
-31.46
-31.37
-30.62
-29.59
-28.67
-28.19
-28.25
-28.73
-29.38
-29.89
-30.13
-30.12
-30.02
-29.99
-30.13
-30.34
-30.44
-30.23
-29.51
-28.23
-26.35
-23.96
-21.25
-18.48
-16.03
-14.23
-13.26
-13.08
-13.30
-13.32
-12.54
-10.54
-7.36
-3.58
-0.24
1.49
0.84
-2.18
-6.59
-10.73
-12.85
-11.90
-7.82
-1.55
5.55
12.41
18.56
24.14
29.48
34.58
39.02
42.09
43.24
42.34
39.62
35.29
29.11
20.21
7.29
-10.87
-34.69
-63.51
-95.46
-128.03
-158.63
-185.12
-206.03
-220.35
-227.31
-226.28
-216.89
-199.23
-174.12
-142.98
-107.67
-70.20
-32.56
3.33
35.72
63.23
85.06
101.16
112.03
118.47
121.30
121.31
119.40
116.55
113.65
111.14
108.83
106.00
102.02
96.84
91.26
86.60
83.88
83.31
84.00
84.51
83.47
80.21
74.80
67.85
60.05
52.07
44.63
38.59
35.09
35.15
39.25
46.79
56.04
64.46
69.50
69.35
63.44
52.42
37.75
21.06
3.78
-13.02
-28.50
-41.95
-52.86
-61.13
-67.16
-71.92
-76.69
-82.71
-90.79
-101.15
-113.41
-126.65
-139.66
-151.14
-160.01
-165.91
-169.41
-172.10
-176.07
-183.10
-193.87
-207.60
-222.28
-235.35
-244.54
-248.32
-246.04
-237.78
-224.18
-206.30
-185.74
-164.42
-144.30
-126.95
-113.30
-103.60
-97.59
-94.67
-93.85
-93.78
-92.76
-89.15
-81.83
-70.51
-55.84
-38.99
-21.17
-3.26
14.31
31.35
47.64
62.87
76.64
88.65
98.76
106.94
113.17
117.36
119.39
119.27
117.18
113.63
109.20
104.50
99.86
95.35
90.80
86.05
81.03
75.93
71.06
66.67
62.88
59.63
56.77
54.03
50.88
46.42
39.48
28.99
14.60
-2.98
-21.97
-40.15
-55.75
-67.89
-76.74
-82.88
-86.55
-87.13
-83.33
-73.97
-58.74
-38.66
-15.80
7.56
29.82
50.47
69.99
89.18
108.32
126.69
142.72
154.51
160.69
160.98
156.25
148.09
138.14
127.51
116.55
105.05
92.60
78.98
64.30
49.06
33.85
19.44
6.68
-3.46
-9.97
-12.08
-9.46
-2.43
8.13
21.01
34.91
48.64
61.14
71.46
78.81
82.74
83.33
81.29
77.79
74.16
71.39
69.94
69.68
70.12
70.67
70.93
70.75
70.17
69.31
68.20
66.63
64.19
60.31
54.46
46.35
36.08
24.19
11.70
-0.04
-9.29
-14.44
-14.35
-8.68
2.00
16.29
32.35
48.40
62.88
75.13
84.90
92.10
96.66
98.49
97.74
94.89
90.85
86.50
83.30
82.21
83.47
86.63
90.85
95.22
99.12
102.28
104.29
106.78
111.19
118.32
127.97
138.96
149.60
158.38
164.67
167.97
172.97
184.69
206.84
240.50
283.71
332.22
381.07
426.26
463.54
497.69
534.59
578.68
631.22
689.71
749.17
804.40
852.28
889.31
924.67
968.96
1030.53
1112.82
1213.21
1324.29
1436.75
1542.69
1589.28
1541.10
1377.65
1101.00
738.13
332.47
-71.22
-439.63
-731.81
-954.15
-1114.83
-1221.07
-1278.16
-1291.67
-1269.49
-1221.85
-1162.71
-1101.83
-1049.25
-1001.83
-953.59
-899.48
-837.93
-771.50
-705.55
-645.71
-595.14
-557.48
-527.68
-499.66
-469.03
-434.24
-396.36
-358.02
-322.03
-290.24
-265.74
-247.22
-232.56
-219.68
-207.15
-194.43
-182.03
-171.06
-162.32
-156.92
-153.31
-148.91
-141.11
-128.05
-109.20
-85.43
-58.62
-31.00
-5.09
17.37
35.48
49.05
58.69
65.70
71.63
77.94
85.58
94.75
104.92
114.91
122.90
126.72
124.20
114.01
96.48
74.03
50.70
30.66
16.43
7.56
0.70
-8.86
-24.80
-47.85
-75.42
-102.91
-126.07
-142.97
-154.57
-163.72
-173.15
-183.82
-194.35
-201.92
-203.92
-199.28
-188.95
-175.16
-160.19
-145.36
-130.90
-116.40
-101.79
-87.73
-75.54
-66.44
-60.86
-58.01
-56.12
-53.26
-48.06
-40.29
-30.86
-21.36
-13.42
-8.16
-5.85
-5.94
-7.29
-8.52
-8.51
-6.78
-3.64
-0.16
2.32
2.71
0.72
-2.91
-6.56
-8.18
-6.00
0.96
12.60
27.81
44.75
61.32
75.53
85.92
91.81
93.35
91.47
87.52
82.75
78.01
73.51
69.06
64.40
59.52
54.82
50.93
48.27
46.82
46.06
45.12
43.23
39.89
35.05
28.91
21.82
14.12
6.06
-2.22
-10.73
-19.56
-28.87
-38.82
-49.50
-60.87
-72.79
-84.89
-96.63
-107.14
-115.33
-120.09
-120.69
-117.15
-110.35
-101.85
-93.40
-86.46
-81.80
-79.43
-78.75
-78.68
-77.92
-75.08
-69.01
-59.15
-45.96
-30.96
-16.38
-4.30
4.07
8.97
11.95
15.20
20.72
29.59
41.69
55.88
70.36
83.19
92.70
97.89
98.59
95.50
89.93
83.35
76.91
71.22
66.30
61.87
57.59
53.16
48.29
42.65
35.85
27.71
18.46
8.83
-0.07
-7.19
-11.82
-13.99
-14.34
-13.89
-13.70
-14.48
-16.55
-19.76
-23.71
-27.88
-31.75
-34.80
-36.60
-36.80
-35.20
-31.87
-27.23
-22.03
-17.23
-13.70
-11.94
-11.91
-13.04
-14.49
-15.48
-15.47
-14.22
-11.59
-7.41
-1.40
6.63
16.65
28.27
40.81
53.55
65.80
76.83
85.80
91.58
92.99
89.14
79.99
66.51
50.53
34.20
19.23
6.51
-4.01
-12.88
-20.59
-27.26
-32.54
-36.02
-37.51
-37.35
-36.22
-34.84
-33.56
-32.32
-30.80
-28.76
-26.24
-23.62
-21.38
-19.89
-19.33
-19.70
-20.94
-23.02
-25.86
-29.27
-32.87
-36.19
-38.72
-40.13
-40.23
-38.96
-36.39
-32.60
-27.89
-22.73
-17.71
-13.44
-10.31
-8.39
-7.38
-6.82
-6.23
-5.39
-4.28
-3.15
-2.31
-2.01
-2.35
-3.21
-4.37
-5.54
-6.55
-7.34
-7.98
-8.65
-9.50
-10.63
-11.99
-13.36
-14.37
-14.60
-13.75
-11.72
-8.70
-5.08
-1.30
2.26
5.44
8.28
10.93
13.48
15.85
17.82
19.07
19.31
18.49
16.78
14.60
12.53
11.08
10.60
11.16
12.49
14.17
15.66
16.53
16.61
15.98
14.93
13.88
13.11
12.73
12.61
12.46
11.97
10.97
9.43
7.47
5.28
3.06
0.96
-0.86
-2.28
-3.22
-3.72
-3.89
-3.92
-3.95
-3.98
-3.91
-3.55
-2.86
-1.93
-1.04
-0.46
-0.33
-0.51
-0.73
-0.71
-0.39
0.02
0.16
-0.27
-1.31
-2.67
-3.93
-4.77
-5.21
-5.67
-6.77
-9.06
-12.63
-17.04
-21.46
-24.96
-26.92
-27.27
-26.67
-26.34
-27.91
-33.03
-42.89
-57.60
-75.77
-94.35
-109.16
-115.85
-111.22
-94.27
-66.59
-31.98
4.57
38.10
64.69
82.11
89.84
88.93
81.60
70.55
58.58
47.90
39.85
34.82
32.36
31.57
31.39
30.92
29.62
27.40
24.50
21.46
18.80
16.93
15.94
15.60
15.44
15.03
14.09
12.60
10.73
8.71
6.71
4.74
2.73
0.54
-1.94
-4.77
-7.92
-11.30
-14.69
-17.75
-20.04
-21.15
-20.82
-19.17
-16.71
-14.20
-12.38
-11.69
-12.08
-13.10
-14.02
-14.19
-13.28
-11.32
-8.63
-5.67
-2.74
0.07
2.86
5.80
8.92
11.94
14.34
15.39
14.52
11.37
5.96
-1.40
-10.23
-19.89
-29.76
-39.09
-47.29
-54.01
-59.37
-63.95
-68.57
-73.95
-80.26
-86.98
-92.92
-96.71
-97.23
-94.02
-87.44
-78.46
-68.26
-57.85
-47.73
-37.98
-28.49
-19.28
-10.70
-3.34
2.28
5.98
8.13
9.49
10.93
13.04
15.89
19.05
21.79
23.35
23.29
21.58
18.62
15.04
11.52
8.50
6.23
4.76
4.01
3.77
3.73
3.44
2.51
0.80
-1.49
-3.79
-5.44
-5.95
-5.32
-3.95
-2.39
-1.04
0.06
1.14
2.49
4.17
6.01
7.70
8.95
9.72
10.14
10.46
10.86
11.38
11.98
12.59
13.19
13.81
14.43
14.87
14.83
13.94
11.77
7.98
2.41
-4.81
-13.06
-21.29
-28.09
-32.13
-32.56
-29.31
-23.12
-15.21
-6.89
0.80
7.22
12.02
15.02
16.14
15.42
13.21
10.08
6.75
3.79
1.43
-0.51
-2.42
-4.59
-7.09
-9.66
-11.94
-13.69
-14.89
-15.80
-16.76
-18.07
-19.95
-22.61
-26.25
-31.01
-36.65
-42.42
-47.07
-49.14
-47.51
-41.87
-32.81
-21.62
-9.77
1.49
11.38
19.46
25.47
29.14
30.34
29.22
26.39
22.79
19.41
16.90
15.37
14.40
13.45
12.08
10.27
8.30
6.44
4.78
3.09
0.98
-1.84
-5.43
-9.62
-14.21
-19.08
-24.11
-28.95
-32.81
-34.49
-32.81
-27.12
-17.79
-6.17
5.98
17.05
26.15
33.09
38.15
41.63
43.67
44.24
43.38
41.31
38.46
35.25
31.98
28.79
25.69
22.69
19.83
17.21
14.95
13.06
11.49
10.06
8.47
6.39
3.56
-0.08
-4.34
-8.84
-13.21
-17.34
-21.50
-26.22
-31.90
-38.34
-44.53
-48.82
-49.48
-45.35
-36.48
-24.03
-9.95
3.75
15.68
25.19
32.38
37.67
41.59
44.64
47.31
50.09
53.44
57.64
62.70
68.35
74.20
79.79
84.68
88.37
90.26
89.72
86.27
79.78
70.60
59.62
48.03
37.07
27.68
20.21
14.35
9.15
3.31
-4.38
-14.56
-26.89
-40.01
-51.86
-60.32
-63.90
-62.25
-56.06
-46.77
-35.96
-24.93
-14.54
-5.33
2.22
7.65
10.62
11.12
9.68
7.20
4.80
3.28
2.95
3.54
4.40
4.83
4.39
3.06
1.19
-0.72
-2.28
-3.41
-4.37
-5.56
-7.36
-9.91
-13.20
-16.99
-20.91
-24.50
-27.10
-27.98
-26.45
-22.15
-15.27
-6.58
2.74
11.51
18.86
24.42
28.19
30.33
31.04
30.40
28.52
25.60
22.03
18.33
14.99
12.41
10.79
10.11
10.23
10.90
11.86
12.86
13.69
14.19
14.14
13.36
11.73
9.22
5.93
2.00
-2.41
-7.21
-12.27
-17.25
-21.52
-24.19
-24.42
-21.71
-16.25
-8.87
-0.73
7.03
13.66
18.85
22.62
25.01
26.05
25.72
24.13
21.62
18.73
16.01
13.90
12.53
11.84
11.60
11.57
11.49
11.16
10.38
9.02
7.09
4.77
2.30
-0.03
-2.07
-3.90
-5.76
-8.02
-11.02
-14.90
-19.45
-24.04
-27.75
-29.64
-29.09
-26.00
-20.82
-14.41
-7.64
-1.22
4.45
9.18
12.86
15.38
16.66
16.72
15.71
13.92
11.70
9.41
7.26
5.40
3.85
2.60
1.60
0.88
0.48
0.38
0.45
0.44
0.03
-1.06
-2.87
-5.17
-7.54
-9.55
-10.97
-11.87
-12.63
-13.81
-15.93
-19.27
-23.66
-28.47
-32.66
-35.05
-34.70
-31.28
-25.09
-17.08
-8.45
-0.29
6.71
12.28
16.41
19.21
20.76
21.15
20.57
19.38
18.07
17.10
16.73
16.86
17.17
17.29
17.04
16.48
15.87
15.41
15.08
14.61
13.65
12.00
9.73
7.11
4.51
2.17
0.10
-1.83
-3.86
-6.19
-9.04
-12.47
-16.34
-20.18
-23.20
-24.52
-23.44
-19.81
-14.07
-7.14
-0.10
6.26
11.46
15.39
18.04
19.34
19.20
17.57
14.65
10.91
7.07
3.87
1.80
1.03
1.27
2.01
2.65
2.77
2.24
1.15
-0.27
-1.76
-3.23
-4.74
-6.47
-8.59
-11.18
-14.19
-17.48
-20.84
-24.03
-26.80
-28.82
-29.73
-29.20
-27.03
-23.25
-18.15
-12.25
-6.17
-0.53
4.14
7.45
9.18
9.27
7.86
5.30
2.09
-1.21
-4.05
-6.05
-7.07
-7.31
-7.12
-6.97
-7.20
-7.97
-9.20
-10.65
-12.09
-13.30
-14.25
-15.02
-15.84
-16.99
-18.79
-21.36
-24.56
-27.83
-30.32
-31.11
-29.54
-25.46
-19.32
-12.00
-4.46
2.49
8.36
12.88
15.91
17.32
17.10
15.46
13.01
10.65
9.25
9.39
11.04
13.53
15.91
17.22
16.93
14.99
11.81
8.00
4.13
0.57
-2.56
-5.35
-7.98
-10.65
-13.59
-16.99
-20.86
-24.91
-28.53
-30.80
-30.83
-28.11
-22.71
-15.35
-7.11
0.88
7.85
13.44
17.64
20.55
22.17
22.39
21.08
18.35
14.65
10.70
7.32
5.09
4.14
4.06
4.11
3.53
1.89
-0.80
-4.10
-7.47
-10.45
-12.90
-14.96
-16.91
-19.06
-21.65
-24.91
-28.89
-33.50
-38.26
-42.30
-44.50
-43.85
-39.86
-32.86
-23.94
-14.55
-6.03
0.82
5.86
9.40
11.84
13.37
13.91
13.24
11.27
8.27
4.77
1.44
-1.21
-3.03
-4.23
-5.20
-6.26
-7.46
-8.55
-9.17
-9.06
-8.32
-7.36
-6.73
-6.91
-8.11
-10.31
-13.42
-17.37
-22.01
-26.92
-31.31
-34.00
-33.88
-30.30
-23.41
-14.18
-4.04
5.61
13.78
20.05
24.40
26.95
27.86
27.28
25.39
22.52
19.14
15.73
12.65
10.07
7.94
6.03
4.09
1.98
-0.21
-2.29
-4.02
-5.29
-6.19
-7.04
-8.25
-10.16
-13.04
-16.92
-21.57
-26.45
-30.59
-32.83
-32.08
-27.72
-19.93
-9.63
1.80
13.01
23.07
31.57
38.43
43.58
46.86
48.04
47.10
44.35
40.50
36.37
32.64
29.62
27.28
25.33
23.43
21.29
18.75
15.80
12.53
9.08
5.64
2.32
-0.90
-4.10
-7.42
-11.06
-15.16
-19.89
-25.23
-30.83
-35.85
-38.97
-38.72
-34.10
-25.11
-12.90
0.53
12.98
22.92
29.73
33.69
35.51
35.79
34.85
32.79
29.80
26.27
22.78
19.79
17.54
15.98
14.85
13.91
13.03
12.07
10.89
9.29
7.05
4.17
0.83
-2.61
-5.84
-8.75
-11.47
-14.31
-17.62
-21.65
-26.45
-31.83
-37.25
-41.71
-43.92
-42.61
-37.01
-27.32
-14.75
-1.17
11.48
21.75
29.06
33.50
35.51
35.58
34.06
31.21
27.38
23.07
18.89
15.40
12.87
11.21
10.04
8.89
7.41
5.49
3.31
1.17
-0.68
-2.16
-3.38
-4.61
-6.14
-8.25
-11.20
-15.18
-20.23
-26.01
-31.77
-36.30
-38.30
-36.81
-31.58
-23.17
-12.83
-2.00
8.04
16.52
23.09
27.75
30.55
31.54
30.80
28.49
24.94
20.64
16.13
11.91
8.33
5.54
3.45
1.77
0.15
-1.72
-3.97
-6.51
-9.14
-11.67
-14.04
-16.31
-18.58
-20.89
-23.24
-25.75
-28.70
-32.48
-37.19
-42.30
-46.54
-48.15
-45.61
-38.30
-26.93
-13.29
0.41
12.30
21.43
27.72
31.67
33.82
34.48
33.75
31.73
28.70
25.24
22.01
19.48
17.77
16.64
15.62
14.25
12.24
9.58
6.45
3.15
-0.04
-2.88
-5.27
-7.22
-8.91
-10.63
-12.70
-15.48
-19.26
-24.11
-29.78
-35.51
-40.02
-41.81
-39.64
-33.04
-22.63
-9.95
3.05
14.70
24.03
30.88
35.53
38.35
39.52
39.10
37.15
34.03
30.28
26.55
23.33
20.75
18.64
16.59
14.23
11.38
8.15
4.90
2.01
-0.25
-1.90
-3.21
-4.60
-6.47
-9.10
-12.58
-16.93
-22.05
-27.62
-32.98
-37.11
-38.71
-36.71
-30.67
-21.05
-9.12
3.41
15.03
24.69
32.00
36.99
39.84
40.77
39.99
37.84
34.82
31.58
28.69
26.52
25.09
24.06
22.89
21.09
18.42
15.00
11.31
7.87
5.02
2.75
0.69
-1.72
-4.97
-9.34
-14.82
-21.13
-27.64
-33.39
-37.16
-37.76
-34.39
-26.99
-16.34
-3.86
8.82
20.35
29.83
36.88
41.43
43.53
43.31
41.06
37.26
32.63
27.97
23.90
20.73
18.35
16.29
14.03
11.17
7.65
3.81
0.19
-2.72
-4.72
-6.10
-7.51
-9.70
-13.27
-18.39
-24.69
-31.30
-37.01
-40.48
-40.63
-36.89
-29.41
-19.05
-7.18
4.73
15.41
23.99
29.96
33.15
33.62
31.67
27.95
23.35
18.84
15.14
12.46
10.57
8.91
7.04
4.82
2.43
0.19
-1.68
-3.25
-4.84
-6.85
-9.65
-13.48
-18.40
-24.29
-30.72
-36.82
-41.34
-42.91
-40.48
-33.83
-23.68
-11.49
1.00
12.28
21.42
28.06
32.23
34.08
33.88
31.96
28.78
24.92
20.94
17.25
14.00
11.11
8.43
5.81
3.23
0.79
-1.37
-3.18
-4.79
-6.53
-8.89
-12.34
-17.12
-23.05
-29.40
-34.94
-38.22
-38.00
-33.59
-25.17
-13.71
-0.70
12.25
23.78
32.99
39.38
42.81
43.45
41.66
38.03
33.29
28.28
23.75
20.15
17.59
15.80
14.26
12.48
10.19
7.47
4.70
2.33
0.58
-0.73
-2.17
-4.55
-8.52
-14.35
-21.68
-29.46
-36.12
-39.97
-39.68
-34.72
-25.62
-13.76
-0.93
11.20
21.61
29.92
36.27
40.88
43.87
45.18
44.73
42.60
39.22
35.23
31.33
28.10
25.79
24.30
23.23
22.05
20.28
17.67
14.25
10.28
6.21
2.38
-1.06
-4.19
-7.31
-10.78
-15.01
-20.22
-26.45
-33.27
-39.83
-44.84
-46.86
-44.68
-37.88
-27.04
-13.63
0.41
13.33
23.96
31.91
37.33
40.51
41.76
41.23
39.15
35.99
32.44
29.24
26.85
25.30
24.16
22.88
21.04
18.66
16.13
13.97
12.48
11.51
10.59
9.06
6.51
2.93
-1.27
-5.49
-9.10
-11.78
-13.51
-14.61
-15.61
-17.05
-19.45
-23.06
-27.78
-32.99
-37.52
-39.91
-38.84
-33.58
-24.41
-12.60
-0.01
11.52
20.80
27.46
31.84
34.55
36.01
36.35
35.55
33.72
31.26
28.79
26.83
25.58
24.88
24.33
23.58
22.50
21.22
20.02
19.11
18.52
18.11
17.61
16.78
15.44
13.54
11.24
8.76
6.38
4.29
2.48
0.77
-1.16
-3.51
-6.30
-9.28
-12.08
-14.38
-16.08
-17.34
-18.47
-19.83
-21.78
-24.54
-28.28
-32.80
-37.49
-41.17
-42.42
-40.07
-33.75
-24.22
-13.17
-2.59
5.97
11.86
15.28
16.94
17.48
17.23
16.25
14.56
12.40
10.17
8.34
7.16
6.57
6.32
6.10
5.74
5.22
4.60
3.97
3.36
2.72
1.99
1.12
0.10
-1.08
-2.43
-3.93
-5.54
-7.20
-8.85
-10.37
-11.65
-12.60
-13.20
-13.54
-13.82
-14.31
-15.31
-17.04
-19.58
-22.69
-25.84
-28.25
-29.00
-27.31
-22.86
-15.90
-7.30
1.73
9.97
16.57
21.13
23.73
24.68
24.36
23.17
21.44
19.51
17.62
15.95
14.53
13.25
11.97
10.58
9.06
7.49
5.93
4.40
2.82
1.08
-0.91
-3.10
-5.32
-7.34
-9.01
-10.35
-11.55
-12.85
-14.40
-16.23
-18.27
-20.44
-22.73
-25.15
-27.55
-29.49
-30.30
-29.33
-26.22
-21.17
-14.92
-8.51
-2.88
1.39
4.15
5.62
6.10
5.87
5.09
3.85
2.25
0.43
-1.42
-3.07
-4.37
-5.21
-5.62
-5.70
-5.60
-5.54
-5.70
-6.20
-7.06
-8.16
-9.32
-10.40
-11.40
-12.47
-13.80
-15.54
-17.66
-19.91
-21.87
-23.04
-22.96
-21.27
-17.93
-13.17
-7.58
-1.92
3.02
6.74
9.04
10.12
10.31
9.91
9.02
7.66
5.83
3.70
1.54
-0.37
-1.86
-2.98
-3.93
-4.90
-6.01
-7.26
-8.59
-9.92
-11.23
-12.48
-13.62
-14.57
-15.27
-15.83
-16.50
-17.61
-19.43
-21.96
-24.87
-27.44
-28.82
-28.19
-25.11
-19.66
-12.50
-4.63
2.84
9.04
13.45
15.98
16.88
16.52
15.37
13.87
12.38
11.18
10.35
9.84
9.39
8.70
7.52
5.77
3.63
1.39
-0.59
-2.11
-3.18
-3.98
-4.86
-6.09
-7.78
-9.82
-11.94
-13.86
-15.40
-16.61
-17.77
-19.28
-21.50
-24.62
-28.49
-32.63
-36.19
-38.18
-37.67
-34.14
-27.67
-19.03
-9.47
-0.36
7.23
12.82
16.47
18.55
19.46
19.51
18.88
17.79
16.56
15.59
15.11
15.12
15.29
15.19
14.51
13.21
11.54
9.80
8.26
6.99
5.93
4.96
4.04
3.19
2.44
1.81
1.29
0.84
0.44
0.08
-0.30
-0.74
-1.37
-2.21
-3.28
-4.46
-5.71
-6.95
-8.18
-9.45
-10.79
-12.19
-13.59
-14.90
-16.03
-16.93
-17.67
-18.38
-19.29
-20.69
-22.84
-25.85
-29.58
-33.52
-36.76
-38.29
-37.25
-33.24
-26.57
-18.15
-9.19
-0.82
6.22
11.62
15.44
17.92
19.32
19.91
19.92
19.62
19.25
18.98
18.86
18.82
18.73
18.48
18.02
17.39
16.70
16.09
15.65
15.41
15.30
15.21
14.94
14.33
13.30
11.86
10.16
8.40
6.75
5.30
4.05
2.93
1.80
0.57
-0.88
-2.55
-4.35
-6.10
-7.63
-8.80
-9.73
-10.73
-12.17
-14.38
-17.40
-20.92
-24.38
-27.14
-28.70
-28.72
-27.17
-24.19
-20.03
-15.07
-9.72
-4.41
0.51
4.78
8.25
10.90
12.84
14.19
15.15
15.88
16.54
17.19
17.80
18.26
18.50
18.50
18.33
18.09
17.83
17.48
16.95
16.16
15.20
14.26
13.55
13.18
13.07
12.97
12.57
11.68
10.23
8.31
6.04
3.53
0.85
-1.95
-4.77
-7.48
-9.87
-11.87
-13.53
-15.08
-16.83
-19.00
-21.54
-24.12
-26.16
-27.06
-26.40
-24.08
-20.36
-15.70
-10.64
-5.58
-0.78
3.61
7.51
10.85
13.59
15.69
17.17
18.11
18.62
18.88
19.10
19.38
19.77
20.15
20.29
19.95
18.99
17.42
15.44
13.35
11.37
9.61
8.02
6.52
5.08
3.72
2.46
1.25
-0.02
-1.52
-3.39
-5.59
-8.01
-10.45
-12.73
-14.84
-16.84
-18.84
-20.91
-22.98
-24.94
-26.59
-27.74
-28.13
-27.56
-25.83
-22.88
-18.77
-13.81
-8.44
-3.18
1.53
5.43
8.46
10.79
12.66
14.25
15.64
16.78
17.55
17.90
17.92
17.76
17.60
17.52
17.40
17.10
16.46
15.50
14.39
13.40
12.67
12.17
11.64
10.75
9.29
7.21
4.71
2.13
-0.24
-2.24
-3.94
-5.59
-7.46
-9.75
-12.55
-15.78
-19.30
-23.00
-26.73
-30.26
-33.23
-35.08
-35.17
-33.07
-28.72
-22.60
-15.55
-8.54
-2.32
2.71
6.60
9.63
12.05
14.04
15.55
16.48
16.79
16.54
15.90
15.06
14.16
13.22
12.19
11.02
9.71
8.36
7.12
6.09
5.27
4.54
3.62
2.28
0.40
-1.93
-4.38
-6.60
-8.31
-9.51
-10.47
-11.67
-13.57
-16.44
-20.24
-24.59
-28.95
-32.63
-34.92
-35.20
-33.05
-28.38
-21.55
-13.39
-4.92
2.85
9.18
13.83
16.92
18.80
19.76
20.00
19.59
18.63
17.37
16.19
15.46
15.35
15.79
16.44
16.87
16.77
16.08
14.95
13.63
12.28
10.95
9.56
7.97
6.07
3.82
1.27
-1.44
-4.13
-6.63
-8.86
-10.87
-12.85
-15.03
-17.69
-20.99
-25.03
-29.81
-35.09
-40.33
-44.59
-46.71
-45.65
-40.89
-32.74
-22.28
-10.99
-0.28
8.90
16.15
21.51
25.19
27.43
28.41
28.40
27.76
26.93
26.29
25.98
25.91
25.77
25.29
24.34
23.13
22.02
21.45
21.61
22.40
23.42
24.11
24.00
22.83
20.59
17.49
13.84
9.92
5.96
2.12
-1.51
-4.91
-8.05
-10.93
-13.64
-16.28
-19.08
-22.32
-26.28
-31.11
-36.68
-42.47
-47.53
-50.69
-50.79
-47.12
-39.73
-29.42
-17.61
-5.80
4.77
13.43
20.03
24.78
27.96
29.81
30.56
30.50
29.98
29.42
29.08
29.04
29.16
29.21
29.02
28.53
27.79
26.93
26.00
24.96
23.69
21.99
19.77
17.06
14.11
11.30
8.95
7.24
6.05
5.00
3.62
1.49
-1.52
-5.23
-9.17
-12.84
-15.89
-18.31
-20.41
-22.76
-25.88
-30.12
-35.41
-41.20
-46.50
-50.01
-50.45
-46.98
-39.48
-28.74
-16.20
-3.59
7.69
16.80
23.62
28.50
31.90
34.23
35.68
36.39
36.47
36.13
35.54
34.82
34.06
33.26
32.43
31.53
30.54
29.38
27.99
26.32
24.42
22.38
20.31
18.28
16.29
14.31
12.27
10.14
7.95
5.73
3.47
1.15
-1.34
-4.13
-7.30
-10.83
-14.65
-18.64
-22.71
-26.86
-31.17
-35.67
-40.21
-44.31
-47.16
-47.81
-45.46
-39.87
-31.50
-21.46
-11.14
-1.77
5.98
11.96
16.47
19.87
22.29
23.67
23.88
22.95
21.24
19.31
17.68
16.68
16.21
15.98
15.57
14.75
13.50
12.00
10.50
9.20
8.16
7.29
6.45
5.49
4.28
2.81
1.15
-0.54
-2.02
-3.11
-3.76
-4.14
-4.62
-5.64
-7.53
-10.39
-13.99
-17.73
-20.89
-22.76
-22.84
-21.02
-17.48
-12.62
-6.90
-0.72
5.55
11.55
16.84
21.00
23.64
24.65
24.24
22.89
21.19
19.63
18.49
17.84
17.59
17.58
17.61
17.51
17.12
16.34
15.14
13.60
11.87
10.10
8.36
6.62
4.81
2.86
0.75
-1.41
-3.49
-5.43
-7.25
-9.17
-11.50
-14.54
-18.48
-23.25
-28.51
-33.66
-37.97
-40.66
-41.19
-39.28
-35.04
-28.89
-21.50
-13.58
-5.79
1.40
7.68
12.92
17.08
20.16
22.17
23.14
23.10
22.15
20.49
18.38
16.13
14.01
12.18
10.59
9.08
7.42
5.49
3.34
1.20
-0.61
-1.82
-2.39
-2.55
-2.76
-3.52
-5.18
-7.83
-11.24
-15.05
-18.98
-22.91
-26.95
-31.31
-36.18
-41.63
-47.67
-54.13
-60.56
-66.16
-69.76
-70.07
-66.17
-57.89
-46.03
-32.12
-17.94
-4.92
6.10
14.91
21.60
26.35
29.26
30.48
30.36
29.42
28.33
27.59
27.45
27.83
28.38
28.67
28.34
27.21
25.30
22.86
20.22
17.71
15.59
13.87
12.32
10.56
8.16
4.84
0.57
-4.45
-9.84
-15.16
-20.07
-24.43
-28.38
-32.27
-36.57
-41.73
-47.96
-55.10
-62.47
-68.80
-72.48
-71.97
-66.32
-55.62
-41.06
-24.56
-8.20
6.51
18.83
28.74
36.58
42.62
46.98
49.68
50.90
51.01
50.54
49.97
49.51
49.07
48.40
47.19
45.29
42.65
39.38
35.71
31.91
28.20
24.77
21.68
18.81
15.93
12.72
8.86
4.19
-1.24
-7.16
-13.20
-18.98
-24.30
-29.19
-33.95
-39.03
-44.92
-51.93
-60.01
-68.54
-76.26
-81.42
-82.17
-77.18
-66.10
-49.88
-30.56
-10.73
7.30
21.96
32.70
39.84
44.09
46.25
46.92
46.55
45.53
44.28
43.25
42.74
42.85
43.28
43.48
42.81
40.86
37.69
33.75
29.76
26.30
23.60
21.37
19.04
15.99
11.86
6.64
0.66
-5.56
-11.56
-17.02
-21.93
-26.45
-30.89
-35.62
-40.94
-46.91
-53.19
-58.90
-62.68
-63.03
-58.71
-49.36
-35.68
-19.36
-2.53
12.92
25.84
36.00
43.72
49.50
53.67
56.25
57.18
56.48
54.50
51.79
48.96
46.44
44.36
42.50
40.48
37.90
34.63
30.84
26.95
23.39
20.38
17.75
15.02
11.66
7.34
2.13
-3.52
-8.99
-13.85
-17.99
-21.73
-25.63
-30.26
-36.02
-43.06
-51.18
-59.77
-67.73
-73.55
-75.54
-72.33
-63.40
-49.42
-32.12
-13.81
3.36
18.01
29.60
38.30
44.51
48.54
50.55
50.75
49.50
47.40
45.10
43.12
41.65
40.49
39.27
37.65
35.48
32.91
30.23
27.74
25.53
23.49
21.29
18.64
15.47
12.00
8.60
5.55
2.84
0.10
-3.17
-7.35
-12.39
-17.80
-22.91
-27.18
-30.52
-33.31
-36.29
-40.24
-45.73
-52.87
-61.25
-69.78
-76.82
-80.41
-78.90
-71.42
-58.40
-41.48
-23.03
-5.38
9.88
22.10
31.51
38.64
44.01
47.88
50.40
51.73
52.22
52.32
52.39
52.56
52.70
52.47
51.57
49.88
47.47
44.61
41.62
38.72
35.98
33.29
30.46
27.32
23.84
20.16
16.50
13.13
10.10
7.34
4.56
1.51
-1.95
-5.75
-9.65
-13.32
-16.52
-19.22
-21.56
-23.88
-26.61
-30.18
-34.83
-40.45
-46.37
-51.35
-53.79
-52.25
-45.98
-35.32
-21.62
-6.88
7.02
18.75
27.81
34.32
38.71
41.38
42.61
42.64
41.83
40.63
39.43
38.45
37.59
36.59
35.20
33.34
31.12
28.76
26.46
24.29
22.22
20.15
18.03
15.85
13.61
11.30
8.93
6.51
4.11
1.77
-0.47
-2.72
-5.16
-7.90
-10.93
-14.07
-17.12
-19.94
-22.61
-25.40
-28.70
-32.77
-37.64
-42.91
-47.72
-50.91
-51.19
-47.65
-40.09
-29.28
-16.76
-4.44
6.08
13.96
19.16
22.26
23.95
24.67
24.57
23.65
21.99
19.89
17.84
16.23
15.21
14.63
14.13
13.36
12.18
10.71
9.21
7.98
7.12
6.51
5.80
4.64
2.79
0.29
-2.62
-5.56
-8.18
-10.33
-12.09
-13.76
-15.75
-18.43
-22.00
-26.40
-31.31
-36.15
-40.12
-42.36
-42.05
-38.69
-32.31
-23.56
-13.64
-3.99
4.17
10.18
14.07
16.37
17.76
18.71
19.33
19.46
18.97
17.87
16.42
15.01
13.88
13.08
12.38
11.49
10.17
8.38
6.25
4.06
2.08
0.41
-1.00
-2.38
-4.01
-6.13
-8.77
-11.73
-14.67
-17.24
-19.25
-20.79
-22.23
-23.97
-26.40
-29.70
-33.85
-38.53
-43.09
-46.59
-47.83
-45.79
-39.93
-30.61
-19.03
-6.91
4.08
12.88
19.20
23.40
26.04
27.57
28.18
27.92
26.84
25.14
23.14
21.20
19.57
18.35
17.49
16.78
15.96
14.83
13.28
11.39
9.30
7.21
5.19
3.23
1.25
-0.78
-2.87
-4.98
-7.22
-9.68
-12.49
-15.60
-18.75
-21.55
-23.67
-25.04
-25.99
-27.07
-28.95
-32.05
-36.42
-41.60
-46.64
-50.17
-50.78
-47.43
-39.84
-28.76
-15.76
-2.75
8.62
17.45
23.64
27.64
30.07
31.33
31.58
30.83
29.22
27.06
24.84
22.99
21.75
21.08
20.74
20.44
19.97
19.30
18.52
17.67
16.73
15.52
13.81
11.52
8.76
5.88
3.25
1.11
-0.59
-2.10
-3.79
-5.91
-8.49
-11.28
-13.93
-16.18
-17.99
-19.56
-21.28
-23.61
-26.87
-31.07
-35.78
-40.11
-42.77
-42.49
-38.37
-30.29
-19.06
-6.23
6.37
17.22
25.45
30.99
34.27
35.98
36.65
36.62
36.07
35.07
33.72
32.17
30.60
29.13
27.83
26.70
25.62
24.46
23.09
21.51
19.79
18.01
16.19
14.19
11.81
8.93
5.59
2.14
-0.93
-3.17
-4.44
-4.99
-5.42
-6.43
-8.50
-11.67
-15.49
-19.24
-22.24
-24.23
-25.41
-26.39
-27.90
-30.48
-34.31
-39.18
-44.44
-49.08
-51.83
-51.45
-47.06
-38.63
-27.06
-14.09
-1.66
8.66
16.12
20.86
23.49
24.65
24.75
23.93
22.27
19.97
17.42
15.03
13.09
11.67
10.64
9.74
8.78
7.63
6.28
4.82
3.38
2.10
1.02
0.15
-0.66
-1.58
-2.78
-4.40
-6.48
-8.89
-11.42
-13.78
-15.67
-16.99
-17.76
-18.25
-18.81
-19.85
-21.70
-24.56
-28.43
-33.03
-37.71
-41.47
-43.13
-41.70
-36.75
-28.65
-18.55
-7.96
1.77
9.75
15.70
19.80
22.35
23.63
23.80
23.00
21.48
19.58
17.65
15.93
14.52
13.36
12.40
11.61
11.04
10.68
10.44
10.05
9.19
7.62
5.28
2.40
-0.59
-3.28
-5.37
-6.85
-7.96
-9.02
-10.33
-11.98
-13.93
-16.01
-18.02
-19.82
-21.39
-22.85
-24.42
-26.49
-29.37
-33.22
-37.77
-42.22
-45.31
-45.59
-41.96
-34.08
-22.64
-9.14
4.50
16.56
25.95
32.35
36.13
38.07
38.95
39.36
39.50
39.17
38.02
35.72
32.23
27.90
23.35
19.18
15.74
13.10
11.07
9.50
8.31
7.48
6.93
6.46
5.72
4.52
2.91
1.14
-0.43
-1.62
-2.55
-3.52
-4.86
-6.76
-9.20
-11.98
-14.89
-17.74
-20.42
-22.89
-25.22
-27.60
-30.36
-33.72
-37.58
-41.32
-43.81
-43.68
-39.88
-32.16
-21.26
-8.73
3.55
13.96
21.66
26.62
29.44
30.94
31.82
32.41
32.67
32.44
31.63
30.31
28.75
27.22
25.86
24.58
23.20
21.52
19.49
17.23
14.94
12.79
10.82
8.95
7.14
5.34
3.60
1.90
0.13
-1.89
-4.38
-7.39
-10.77
-14.18
-17.21
-19.61
-21.37
-22.80
-24.42
-26.73
-30.14
-34.72
-40.18
-45.81
-50.49
-52.90
-51.88
-46.84
-38.09
-26.80
-14.71
-3.49
5.73
12.57
17.25
20.19
21.71
22.01
21.21
19.65
17.80
16.18
15.04
14.28
13.47
12.20
10.28
7.90
5.50
3.52
2.15
1.28
0.63
-0.15
-1.28
-2.81
-4.71
-6.90
-9.29
-11.71
-14.06
-16.22
-18.24
-20.33
-22.82
-26.06
-30.17
-34.90
-39.58
-43.17
-44.51
-42.63
-37.19
-28.59
-17.96
-6.86
3.23
11.25
16.82
20.11
21.65
22.02
21.68
20.91
19.86
18.64
17.36
16.07
14.82
13.59
12.32
10.96
9.51
8.04
6.68
5.53
4.58
3.59
2.21
0.12
-2.80
-6.37
-10.23
-13.94
-17.28
-20.30
-23.30
-26.64
-30.60
-35.26
-40.48
-45.92
-50.96
-54.76
-56.24
-54.43
-48.78
-39.51
-27.61
-14.63
-2.17
8.58
17.01
23.07
27.01
29.18
29.96
29.76
29.09
28.42
28.03
27.90
27.66
26.83
25.03
22.27
18.92
15.62
12.99
11.39
10.69
10.36
9.65
7.84
4.60
0.02
-5.28
-10.52
-14.96
-18.27
-20.60
-22.55
-24.94
-28.52
-33.74
-40.56
-48.32
-55.71
-61.04
-62.56
-59.10
-50.46
-37.63
-22.45
-7.08
6.68
17.80
26.05
31.70
35.22
37.04
37.49
36.92
35.77
34.54
33.65
33.29
33.32
33.37
32.96
31.77
29.75
27.20
24.62
22.51
21.03
19.91
18.43
15.82
11.58
5.80
-0.86
-7.53
-13.44
-18.36
-22.59
-26.77
-31.67
-37.91
-45.80
-55.16
-65.23
-74.46
-80.76
-81.96
-76.56
-64.43
-47.02
-26.91
-6.98
10.51
24.46
34.85
42.29
47.43
50.67
52.09
51.79
50.02
47.31
44.35
41.79
40.00
38.98
38.38
37.68
36.48
34.66
32.48
30.38
28.69
27.44
26.31
24.72
22.11
18.20
13.04
7.02
0.68
-5.44
-10.96
-15.76
-20.02
-24.21
-28.93
-34.81
-42.30
-51.45
-61.68
-71.63
-79.29
-82.40
-79.14
-68.87
-52.58
-32.59
-11.88
6.89
22.09
33.33
41.11
46.16
49.03
49.91
48.93
46.41
43.01
39.66
37.13
35.83
35.67
36.15
36.66
36.76
36.33
35.53
34.63
33.78
32.91
31.70
29.71
26.52
22.01
16.41
10.31
4.45
-0.50
-4.32
-7.31
-10.19
-13.84
-18.95
-25.84
-34.34
-43.78
-52.96
-60.29
-63.94
-62.35
-54.71
-41.48
-24.38
-5.91
11.46
26.00
37.01
44.71
49.65
52.43
53.38
52.74
50.89
48.38
45.83
43.77
42.47
41.90
41.83
41.98
42.11
42.09
41.82
41.22
40.16
38.48
36.09
33.02
29.47
25.74
22.11
18.69
15.29
11.54
7.11
1.91
-3.81
-9.51
-14.66
-19.01
-22.69
-26.19
-30.14
-35.17
-41.70
-49.82
-59.05
-68.22
-75.45
-78.49
-75.50
-65.75
-50.20
-31.23
-11.88
5.25
18.79
28.75
35.92
41.16
44.81
46.75
46.77
45.06
42.39
39.80
38.21
38.03
39.04
40.56
41.87
42.48
42.28
41.45
40.31
39.11
37.93
36.71
35.32
33.62
31.51
29.00
26.14
23.06
19.94
17.03
14.52
12.44
10.63
8.71
6.23
2.89
-1.30
-5.98
-10.64
-14.86
-18.48
-21.74
-25.10
-29.11
-34.17
-40.41
-47.53
-54.67
-60.44
-63.15
-61.32
-54.21
-42.28
-27.09
-10.88
4.17
16.67
26.13
32.84
37.38
40.17
41.44
41.34
40.17
38.50
36.93
35.91
35.55
35.61
35.72
35.53
34.92
33.91
32.66
31.32
29.98
28.68
27.38
26.01
24.47
22.64
20.50
18.06
15.44
12.77
10.18
7.83
5.78
4.12
2.81
1.65
0.37
-1.37
-3.73
-6.68
-9.92
-13.08
-15.80
-17.94
-19.60
-21.01
-22.50
-24.43
-27.13
-30.87
-35.63
-40.89
-45.50
-47.95
-46.79
-41.28
-31.79
-19.79
-7.23
4.05
12.96
19.31
23.47
25.99
27.19
27.21
26.09
24.07
21.61
19.24
17.40
16.23
15.58
15.16
14.64
13.84
12.72
11.43
10.19
9.18
8.42
7.80
7.05
5.91
4.29
2.30
0.25
-1.50
-2.68
-3.36
-3.77
-4.36
-5.52
-7.43
-10.06
-13.07
-16.08
-18.68
-20.68
-22.10
-23.16
-24.24
-25.64
-27.60
-30.13
-33.08
-36.01
-38.25
-38.90
-37.14
-32.47
-25.08
-15.90
-6.39
1.99
8.25
12.13
14.02
14.58
14.42
13.85
12.92
11.65
10.12
8.49
6.99
5.73
4.71
3.85
2.99
2.08
1.07
-0.01
-1.15
-2.35
-3.65
-5.11
-6.75
-8.58
-10.48
-12.30
-13.89
-15.15
-16.04
-16.57
-16.77
-16.67
-16.36
-16.01
-15.86
-16.19
-17.23
-19.09
-21.74
-25.02
-28.63
-32.04
-34.41
-34.79
-32.37
-26.96
-19.12
-10.19
-1.74
4.98
9.44
11.88
12.97
13.38
13.49
13.29
12.66
11.51
10.00
8.36
6.82
5.44
4.10
2.70
1.20
-0.29
-1.52
-2.27
-2.44
-2.15
-1.67
-1.34
-1.33
-1.63
-2.06
-2.41
-2.63
-2.85
-3.30
-4.21
-5.64
-7.47
-9.46
-11.38
-13.11
-14.67
-16.18
-17.83
-19.82
-22.29
-25.35
-29.03
-33.13
-37.15
-40.21
-41.23
-39.25
-33.81
-25.24
-14.64
-3.56
6.53
14.64
20.48
24.32
26.61
27.80
28.09
27.66
26.65
25.33
23.98
22.84
22.02
21.50
21.14
20.75
20.16
19.27
18.08
16.68
15.26
13.97
12.82
11.62
10.20
8.46
6.51
4.65
3.15
2.10
1.26
0.23
-1.42
-3.82
-6.81
-10.01
-13.03
-15.66
-17.89
-19.84
-21.70
-23.70
-26.07
-29.05
-32.73
-36.91
-40.96
-43.80
-44.21
-41.29
-34.82
-25.50
-14.71
-4.06
5.15
12.24
17.18
20.29
22.03
22.68
22.42
21.36
19.71
17.76
15.84
14.21
12.98
12.17
11.68
11.37
11.04
10.49
9.56
8.22
6.55
4.74
2.98
1.37
-0.10
-1.57
-3.18
-5.06
-7.20
-9.48
-11.66
-13.58
-15.16
-16.58
-18.14
-20.22
-23.12
-26.94
-31.64
-36.87
-42.01
-46.14
-48.13
-46.99
-42.17
-33.95
-23.44
-12.32
-2.24
5.68
11.10
14.32
15.90
16.34
15.89
14.70
12.91
10.83
8.84
7.25
6.16
5.46
4.94
4.41
3.79
3.06
2.25
1.35
0.29
-0.98
-2.51
-4.31
-6.40
-8.73
-11.23
-13.76
-16.19
-18.51
-20.84
-23.45
-26.66
-30.70
-35.41
-40.25
-44.20
-45.98
-44.54
-39.35
-30.78
-20.01
-8.63
1.82
10.32
16.43
20.24
22.10
22.41
21.51
19.71
17.38
14.91
12.59
10.58
8.84
7.28
5.84
4.52
3.33
2.30
1.34
0.23
-1.33
-3.63
-6.76
-10.56
-14.61
-18.44
-21.70
-24.39
-26.86
-29.72
-33.58
-38.86
-45.54
-52.96
-59.91
-64.78
-65.94
-62.31
-53.76
-41.22
-26.46
-11.57
1.74
12.50
20.59
26.33
30.17
32.41
33.19
32.67
31.23
29.46
28.03
27.36
27.56
28.40
29.46
30.40
31.06
31.51
31.93
32.40
32.91
33.25
33.13
32.33
30.77
28.57
26.06
23.68
21.74
20.30
19.15
17.81
15.82
12.89
9.10
4.88
0.84
-2.56
-5.24
-7.55
-10.14
-13.62
-18.21
-23.71
-29.50
-34.88
-39.41
-43.00
-46.02
-49.08
-52.88
-58.07
-64.98
-73.43
-82.56
-90.70
-95.65
-95.36
-88.65
-75.78
-58.46
-39.28
-20.85
-4.96
7.73
17.46
24.91
30.63
34.86
37.68
39.21
39.81
40.08
40.60
41.73
43.51
45.69
47.95
50.03
51.83
53.36
54.65
55.62
56.04
55.61
54.13
51.58
48.12
44.11
39.92
35.81
31.94
28.34
24.95
21.73
18.64
15.70
12.90
10.14
7.24
4.02
0.33
-3.84
-8.28
-12.70
-16.82
-20.49
-23.80
-27.07
-30.73
-35.22
-40.84
-47.58
-54.93
-61.77
-66.45
-67.17
-62.58
-52.37
-37.57
-20.35
-3.27
11.54
23.03
31.24
36.90
40.86
43.67
45.50
46.36
46.39
45.93
45.47
45.37
45.76
46.52
47.38
48.09
48.47
48.52
48.30
47.91
47.42
46.80
45.94
44.61
42.62
39.98
36.84
33.56
30.46
27.76
25.39
23.15
20.80
18.19
15.33
12.28
9.05
5.57
1.73
-2.46
-6.82
-11.03
-14.79
-17.97
-20.75
-23.52
-26.76
-30.92
-36.26
-42.65
-49.41
-55.31
-58.69
-57.94
-52.12
-41.42
-27.33
-12.11
1.99
13.44
21.79
27.50
31.39
34.06
35.71
36.19
35.40
33.58
31.27
29.16
27.76
27.22
27.35
27.76
28.11
28.22
28.05
27.62
26.91
25.79
24.14
21.88
19.14
16.23
13.52
11.27
9.48
7.92
6.18
3.91
1.02
-2.29
-5.62
-8.53
-10.83
-12.68
-14.52
-16.93
-20.37
-25.00
-30.55
-36.37
-41.49
-44.77
-45.19
-42.14
-35.65
-26.44
-15.76
-5.08
4.36
11.84
17.23
20.80
22.95
24.03
24.18
23.52
22.23
20.61
19.05
17.81
17.03
16.66
16.55
16.58
16.67
16.76
16.76
16.46
15.62
14.09
11.88
9.21
6.43
3.87
1.67
-0.24
-2.06
-4.04
-6.28
-8.70
-11.11
-13.30
-15.20
-16.94
-18.82
-21.17
-24.24
-28.10
-32.53
-37.06
-40.89
-43.03
-42.50
-38.67
-31.54
-21.90
-11.12
-0.76
7.95
14.45
18.86
21.69
23.46
24.48
24.82
24.49
23.63
22.46
21.31
20.36
19.63
19.05
18.45
17.76
16.96
16.08
15.12
14.03
12.75
11.26
9.64
8.00
6.49
5.17
4.02
2.89
1.54
-0.23
-2.52
-5.22
-8.06
-10.68
-12.81
-14.38
-15.57
-16.73
-18.29
-20.58
-23.79
-27.85
-32.34
-36.42
-38.92
-38.66
-34.87
-27.61
-17.93
-7.49
2.00
9.35
14.27
17.19
18.85
19.84
20.39
20.35
19.56
18.01
15.95
13.77
11.85
10.45
9.56
9.05
8.74
8.47
8.12
7.60
6.80
5.58
3.86
1.81
-0.07
-1.05
-0.38
2.23
6.45
11.25
15.37
17.80
18.18
16.87
14.66
12.25
9.92
7.50
4.61
0.92
-3.50
-8.25
-12.63
-15.76
-16.76
-14.90
-9.77
-1.58
8.81
19.90
29.98
37.56
41.77
42.57
40.55
36.71
32.07
27.46
23.36
19.79
16.33
12.31
7.01
0.09
-8.17
-16.87
-24.87
-31.17
-35.30
-37.46
-38.27
-38.39
-38.30
-38.17
-38.02
-37.87
-37.83
-37.97
-38.32
-38.77
-39.15
-39.36
-39.46
-39.71
-40.38
-41.56
-42.91
-43.66
-42.78
-39.39
-33.09
-24.23
-13.86
-3.31
6.18
13.82
19.37
23.00
25.03
25.77
25.51
24.54
23.16
21.64
20.11
18.48
16.54
14.14
11.32
8.35
5.61
3.38
1.77
0.58
-0.49
-1.75
-3.34
-5.20
-7.08
-8.69
-9.81
-10.42
-10.73
-11.17
-12.27
-14.45
-17.92
-22.47
-27.44
-31.75
-34.15
-33.54
-29.45
-22.22
-13.03
-3.48
4.86
11.02
14.73
16.37
16.56
15.89
14.71
13.20
11.51
9.79
8.21
6.85
5.65
4.42
2.96
1.23
-0.61
-2.24
-3.36
-3.80
-3.72
-3.49
-3.55
-4.31
-5.85
-8.01
-10.42
-12.64
-14.37
-15.54
-16.31
-17.03
-18.18
-20.16
-23.24
-27.36
-32.02
-36.25
-38.78
-38.46
-34.63
-27.44
-17.86
-7.34
2.64
11.04
17.43
21.95
25.01
26.98
28.03
28.17
27.36
25.73
23.58
21.29
19.20
17.40
15.82
14.27
12.67
11.17
10.06
9.57
9.67
9.95
9.75
8.55
6.27
3.38
0.68
-1.11
-1.77
-1.68
-1.59
-2.20
-3.78
-6.09
-8.59
-10.81
-12.54
-13.96
-15.39
-17.12
-19.25
-21.85
-24.91
-28.36
-31.87
-34.61
-35.43
-33.16
-27.24
-18.10
-7.17
3.58
12.42
18.41
21.64
22.92
23.22
23.26
23.28
23.10
22.51
21.39
19.84
18.10
16.40
14.86
13.47
12.12
10.71
9.21
7.72
6.42
5.49
5.00
4.80
4.66
4.32
3.69
2.83
1.90
0.92
-0.26
-2.04
-4.88
-9.06
-14.45
-20.43
-25.99
-29.93
-31.27
-29.42
-24.48
-17.20
-8.80
-0.59
6.35
11.51
14.92
16.96
18.07
18.48
18.21
17.18
15.39
13.04
10.47
8.00
5.82
3.97
2.39
1.01
-0.20
-1.30
-2.46
-3.93
-5.92
-8.47
-11.39
-14.27
-16.71
-18.54
-19.89
-21.13
-22.68
-24.84
-27.66
-30.97
-34.34
-37.11
-38.49
-37.69
-34.15
-27.85
-19.43
-10.14
-1.43
5.53
10.17
12.66
13.62
13.77
13.58
13.16
12.41
11.20
9.59
7.78
6.05
4.59
3.45
2.51
1.60
0.55
-0.72
-2.26
-4.04
-5.98
-7.95
-9.85
-11.56
-13.06
-14.41
-15.77
-17.33
-19.31
-21.78
-24.58
-27.15
-28.61
-27.99
-24.62
-18.41
-10.05
-0.83
7.83
14.79
19.56
22.25
23.30
23.19
22.27
20.80
19.01
17.14
15.40
13.86
12.41
10.79
8.82
6.51
4.10
1.93
0.23
-1.01
-2.06
-3.24
-4.80
-6.76
-9.04
-11.44
-13.86
-16.22
-18.52
-20.84
-23.32
-26.16
-29.43
-32.86
-35.70
-36.78
-34.96
-29.61
-21.07
-10.57
0.21
9.78
17.29
22.67
26.33
28.76
30.24
30.84
30.54
29.35
27.49
25.29
23.11
21.19
19.59
18.22
16.86
15.29
13.45
11.40
9.25
7.08
4.83
2.41
-0.25
-3.03
-5.66
-7.88
-9.70
-11.50
-13.88
-17.32
-21.75
-26.41
-29.92
-30.85
-28.24
-22.02
-13.11
-3.04
6.54
14.42
20.08
23.61
25.48
26.16
25.98
25.06
23.47
21.33
18.90
16.49
14.38
12.71
11.45
10.41
9.37
8.13
6.53
4.52
2.14
-0.50
-3.20
-5.76
-8.02
-9.95
-11.66
-13.45
-15.67
-18.65
-22.59
-27.37
-32.46
-36.92
-39.56
-39.29
-35.52
-28.41
-18.91
-8.51
1.32
9.51
15.55
19.51
21.66
22.31
21.70
20.07
17.77
15.26
13.01
11.27
10.11
9.32
8.66
7.93
6.99
5.80
4.36
2.71
0.93
-0.83
-2.44
-3.83
-5.13
-6.61
-8.62
-11.40
-14.99
-19.16
-23.42
-27.04
-29.18
-28.96
-25.81
-19.69
-11.17
-1.33
8.50
17.15
23.92
28.60
31.37
32.62
32.68
31.84
30.23
27.98
25.22
22.13
18.98
16.04
13.49
11.38
9.54
7.73
5.66
3.17
0.26
-2.87
-5.94
-8.68
-10.93
-12.71
-14.16
-15.51
-17.02
-18.94
-21.53
-24.97
-29.22
-33.88
-38.04
-40.41
-39.70
-35.19
-27.01
-16.28
-4.64
6.31
15.48
22.48
27.39
30.50
32.07
32.26
31.27
29.42
27.13
24.81
22.72
20.89
19.23
17.61
15.98
14.30
12.56
10.71
8.68
6.47
4.16
1.88
-0.24
-2.13
-3.81
-5.40
-7.11
-9.20
-11.95
-15.56
-19.99
-24.78
-29.02
-31.49
-31.08
-27.26
-20.26
-11.10
-1.19
8.11
15.87
21.67
25.54
27.77
28.71
28.65
27.83
26.45
24.71
22.78
20.86
19.10
17.62
16.38
15.24
13.98
12.37
10.34
7.99
5.56
3.28
1.31
-0.36
-1.85
-3.39
-5.15
-7.27
-9.86
-13.02
-16.81
-21.07
-25.37
-28.84
-30.37
-28.92
-23.95
-15.73
-5.33
5.68
15.72
23.65
29.02
31.97
33.04
32.86
31.92
30.57
29.01
27.33
25.51
23.52
21.31
18.90
16.36
13.80
11.33
8.98
6.73
4.51
2.25
-0.04
-2.25
-4.26
-6.01
-7.50
-8.84
-10.24
-11.93
-14.16
-17.17
-21.05
-25.60
-30.25
-33.98
-35.61
-34.14
-29.20
-21.26
-11.55
-1.64
7.08
13.77
18.28
20.93
22.19
22.46
22.00
21.05
19.82
18.60
17.60
16.90
16.36
15.70
14.69
13.15
11.01
8.29
5.08
1.54
-2.01
-5.17
-7.57
-9.07
-9.85
-10.36
-11.15
-12.65
-15.02
-18.14
-21.65
-25.04
-27.61
-28.61
-27.41
-23.67
-17.64
-10.16
-2.43
4.39
9.55
12.92
14.80
15.65
15.85
15.54
14.73
13.46
11.91
10.34
9.06
8.28
7.97
7.93
7.82
7.28
6.05
4.03
1.35
-1.68
-4.62
-7.07
-8.86
-10.11
-11.25
-12.79
-15.17
-18.54
-22.72
-27.28
-31.58
-34.84
-36.23
-34.98
-30.66
-23.42
-14.09
-4.08
5.07
12.20
16.82
19.25
20.23
20.53
20.62
20.53
20.02
18.90
17.11
14.91
12.65
10.61
8.86
7.21
5.41
3.24
0.73
-1.89
-4.29
-6.19
-7.51
-8.44
-9.27
-10.37
-12.02
-14.36
-17.39
-20.89
-24.40
-27.25
-28.64
-27.82
-24.38
-18.49
-10.91
-2.78
4.72
10.76
15.04
17.79
19.43
20.34
20.73
20.63
20.02
18.93
17.42
15.60
13.57
11.53
9.66
8.15
7.01
6.06
4.96
3.43
1.44
-0.70
-2.54
-3.78
-4.44
-5.02
-6.21
-8.61
-12.42
-17.30
-22.41
-26.69
-29.10
-28.90
-25.88
-20.47
-13.61
-6.44
0.11
5.57
9.98
13.74
17.16
20.18
22.30
22.87
21.48
18.37
14.43
10.90
8.82
8.57
9.67
10.97
11.21
9.54
5.91
1.14
-3.42
-6.31
-6.49
-3.63
1.53
7.14
10.31
7.74
-3.06
-22.25
-46.55
-69.39
-82.71
-79.68
-57.49
-18.65
29.68
78.05
117.65
142.48
150.31
142.26
121.95
94.32
64.76
38.22
18.35
6.88
3.28
5.28
9.71
13.54
14.68
12.28
6.67
-0.93
-8.93
-15.81
-20.59
-23.02
-23.66
-23.49
-23.51
-24.30
-25.93
-28.03
-30.11
-31.77
-32.83
-33.34
-33.48
-33.46
-33.46
-33.53
-33.53
-33.12
-31.87
-29.43
-25.66
-20.77
-15.24
-9.71
-4.75
-0.76
2.14
4.06
5.26
5.99
6.48
6.81
7.00
7.04
6.89
6.57
6.05
5.25
4.12
2.62
0.81
-1.08
-2.82
-4.21
-5.21
-6.00
-6.85
-8.11
-9.92
-12.27
-14.91
-17.51
-19.67
-21.07
-21.47
-20.77
-18.96
-16.17
-12.60
-8.49
-4.12
0.21
4.21
7.60
10.16
11.77
12.45
12.37
11.77
10.98
10.21
9.63
9.28
9.10
8.97
8.76
8.30
7.51
6.37
4.94
3.33
1.62
-0.12
-1.91
-3.77
-5.72
-7.76
-9.93
-12.26
-14.75
-17.25
-19.42
-20.77
-20.78
-19.11
-15.78
-11.13
-5.85
-0.73
3.60
6.77
8.81
10.06
10.94
11.78
12.65
13.32
13.42
12.73
11.33
9.62
8.15
7.29
6.99
6.78
5.97
4.05
1.00
-2.67
-6.15
-8.67
-9.98
-10.41
-10.81
-12.14
-15.04
-19.50
-24.86
-30.03
-33.84
-35.51
-34.79
-32.14
-28.53
-25.09
-22.79
-21.97
-22.25
-22.63
-21.94
-19.38
-14.95
-9.68
-5.51
-4.84
-9.72
-20.93
-37.07
-54.17
-66.27
-67.07
-52.21
-21.28
21.33
67.55
108.03
135.27
145.78
140.70
124.63
103.51
82.63
65.45
53.37
46.30
43.26
42.90
43.72
44.23
43.16
39.76
34.16
27.33
20.80
16.10
14.11
14.61
16.38
17.61
16.63
12.50
5.42
-3.39
-12.11
-19.02
-23.11
-24.31
-23.43
-21.74
-20.44
-20.23
-21.15
-22.78
-24.48
-25.74
-26.40
-26.63
-26.87
-27.54
-28.89
-30.94
-33.49
-36.18
-38.61
-40.40
-41.27
-41.04
-39.69
-37.25
-33.81
-29.54
-24.64
-19.36
-14.02
-8.93
-4.39
-0.49
2.73
5.38
7.54
9.23
10.41
11.04
11.16
10.92
10.52
10.15
9.82
9.44
8.90
8.18
7.35
6.55
5.95
5.53
5.10
4.37
3.04
0.99
-1.65
-4.51
-7.15
-9.18
-10.42
-10.86
-10.60
-9.65
-7.92
-5.36
-2.00
1.87
5.83
9.42
12.36
14.55
16.06
16.96
17.20
16.72
15.51
13.73
11.67
9.68
7.93
6.32
4.62
2.64
0.36
-1.97
-3.96
-5.35
-6.11
-6.59
-7.23
-8.46
-10.43
-12.89
-15.41
-17.52
-18.96
-19.69
-19.87
-19.62
-18.93
-17.62
-15.44
-12.26
-8.20
-3.62
0.95
5.03
8.25
10.46
11.65
11.89
11.31
10.05
8.34
6.50
4.86
3.64
2.91
2.53
2.24
1.84
1.27
0.54
-0.30
-1.28
-2.53
-4.19
-6.25
-8.55
-10.80
-12.76
-14.32
-15.54
-16.46
-17.01
-16.93
-15.91
-13.78
-10.65
-6.98
-3.37
-0.35
1.85
3.33
4.38
5.29
6.09
6.64
6.73
6.29
5.47
4.61
4.00
3.74
3.67
3.44
2.81
1.69
0.20
-1.45
-3.13
-4.86
-6.77
-9.02
-11.64
-14.49
-17.34
-19.84
-21.66
-22.52
-22.23
-20.68
-17.83
-13.80
-8.82
-3.30
2.21
7.14
10.96
13.39
14.40
14.32
13.61
12.74
11.96
11.32
10.66
9.78
8.57
7.04
5.27
3.39
1.49
-0.37
-2.18
-3.93
-5.63
-7.33
-9.13
-11.17
-13.61
-16.52
-19.82
-23.23
-26.27
-28.34
-28.82
-27.31
-23.72
-18.39
-12.00
-5.35
0.88
6.24
10.56
13.93
16.51
18.48
19.93
20.86
21.26
21.14
20.55
19.66
18.60
17.44
16.15
14.56
12.49
9.92
6.95
3.81
0.67
-2.45
-5.77
-9.56
-14.01
-19.00
-24.06
-28.48
-31.44
-32.32
-30.80
-26.99
-21.39
-14.64
-7.42
-0.28
6.38
12.29
17.17
20.78
22.97
23.79
23.52
22.58
21.40
20.26
19.24
18.23
17.08
15.65
13.81
11.57
8.99
6.20
3.41
0.77
-1.66
-3.98
-6.44
-9.30
-12.74
-16.74
-21.06
-25.20
-28.44
-30.01
-29.26
-25.91
-20.19
-12.80
-4.74
3.02
9.74
15.04
18.80
21.07
21.97
21.65
20.37
18.46
16.33
14.30
12.51
10.98
9.55
8.04
6.33
4.36
2.20
-0.03
-2.19
-4.26
-6.34
-8.73
-11.80
-15.74
-20.47
-25.44
-29.74
-32.31
-32.24
-29.14
-23.26
-15.39
-6.61
2.03
9.72
16.00
20.70
23.85
25.55
26.03
25.51
24.38
22.96
21.58
20.41
19.44
18.49
17.29
15.56
13.09
9.90
6.17
2.34
-1.20
-4.14
-6.46
-8.45
-10.63
-13.64
-17.96
-23.71
-30.43
-37.04
-42.01
-43.76
-41.20
-34.14
-23.46
-10.81
1.87
12.94
21.52
27.42
31.00
32.73
33.07
32.31
30.74
28.71
26.63
24.89
23.67
22.93
22.29
21.30
19.46
16.54
12.61
8.11
3.67
-0.07
-2.67
-4.15
-4.87
-5.51
-6.76
-9.15
-12.87
-17.73
-23.11
-28.03
-31.33
-31.81
-28.73
-21.98
-12.30
-1.08
10.04
19.62
26.84
31.54
34.08
35.07
35.07
34.41
33.25
31.70
29.87
27.97
26.18
24.63
23.28
21.92
20.28
18.12
15.34
12.08
8.70
5.58
2.97
0.83
-1.14
-3.37
-6.31
-10.14
-14.83
-20.08
-25.40
-30.12
-33.45
-34.54
-32.73
-27.79
-20.09
-10.63
-0.81
8.04
14.96
19.62
22.21
23.13
22.83
21.66
19.84
17.66
15.40
13.37
11.75
10.51
9.41
8.15
6.47
4.36
2.02
-0.15
-1.79
-2.74
-3.16
-3.53
-4.51
-6.67
-10.27
-15.10
-20.52
-25.60
-29.42
-31.21
-30.52
-27.28
-21.79
-14.68
-6.79
0.99
7.90
13.45
17.43
19.85
20.82
20.53
19.19
17.16
14.91
12.84
11.27
10.20
9.40
8.50
7.16
5.19
2.59
-0.46
-3.64
-6.59
-8.99
-10.66
-11.74
-12.57
-13.70
-15.69
-18.84
-23.04
-27.70
-31.79
-34.12
-33.70
-30.05
-23.34
-14.39
-4.47
5.14
13.41
19.74
23.99
26.41
27.36
27.28
26.53
25.37
23.94
22.27
20.36
18.24
16.01
13.80
11.69
9.65
7.62
5.49
3.25
0.97
-1.24
-3.27
-5.08
-6.73
-8.28
-9.83
-11.40
-13.05
-14.89
-17.11
-19.98
-23.65
-27.98
-32.41
-35.91
-37.23
-35.29
-29.72
-20.97
-10.34
0.49
9.96
17.12
21.74
24.18
25.13
25.19
24.79
24.14
23.30
22.29
21.15
19.88
18.47
16.94
15.31
13.65
12.00
10.36
8.67
6.82
4.73
2.42
0.04
-2.20
-4.09
-5.58
-6.79
-7.96
-9.37
-11.25
-13.72
-16.74
-20.14
-23.48
-26.08
-27.11
-25.77
-21.65
-14.96
-6.55
2.28
10.20
16.24
20.06
21.85
22.17
21.64
20.73
19.70
18.57
17.26
15.70
13.92
12.08
10.39
8.98
7.85
6.83
5.72
4.36
2.81
1.23
-0.23
-1.60
-3.06
-4.92
-7.39
-10.50
-14.07
-17.82
-21.55
-25.08
-28.30
-30.88
-32.37
-32.20
-29.92
-25.49
-19.36
-12.36
-5.50
0.43
5.03
8.25
10.33
11.56
12.13
12.18
11.81
11.18
10.57
10.21
10.23
10.45
10.51
9.96
8.55
6.40
4.02
2.08
1.06
1.01
1.51
1.86
1.43
-0.01
-2.19
-4.50
-6.30
-7.17
-7.12
-6.49
-5.80
-5.42
-5.43
-5.53
-5.11
-3.51
-0.31
4.37
9.68
13.99
15.33
11.90
2.93
-10.71
-26.27
-39.55
-46.02
-42.19
-26.91
-1.91
28.38
58.07
81.26
93.55
93.07
80.77
59.92
35.24
11.63
-6.91
-18.08
-21.54
-18.66
-11.96
-4.27
1.95
5.03
4.35
0.23
-6.21
-13.40
-19.69
-23.70
-24.70
-22.72
-18.53
-13.33
-8.34
-4.43
-1.92
-0.61
0.03
0.50
1.08
1.71
2.17
2.19
1.66
0.68
-0.53
-1.71
-2.70
-3.51
-4.23
-4.98
-5.79
-6.58
-7.23
-7.67
-7.93
-8.23
-8.82
-9.88
-11.46
-13.45
-15.57
-17.52
-19.00
-19.76
-19.60
-18.40
-16.16
-13.03
-9.29
-5.29
-1.29
2.50
5.96
8.94
11.25
12.72
13.25
13.00
12.26
11.44
10.86
10.65
10.75
11.01
11.28
11.42
11.35
10.96
10.17
8.98
7.50
5.95
4.55
3.41
2.39
1.20
-0.51
-2.86
-5.81
-9.07
-12.33
-15.32
-17.83
-19.72
-20.81
-20.92
-19.92
-17.82
-14.80
-11.15
-7.20
-3.19
0.75
4.60
8.22
11.47
14.11
15.97
17.03
17.38
17.25
16.85
16.36
15.85
15.34
14.88
14.45
14.06
13.64
13.09
12.31
11.25
9.95
8.52
7.08
5.74
4.54
3.48
2.48
1.35
-0.07
-1.97
-4.40
-7.25
-10.26
-13.08
-15.42
-17.07
-17.95
-18.05
-17.43
-16.18
-14.41
-12.24
-9.74
-7.04
-4.26
-1.60
0.72
2.51
3.62
4.04
3.94
3.59
3.29
3.21
3.38
3.63
3.72
3.51
3.00
2.44
2.20
2.62
3.86
5.73
7.66
8.91
8.75
6.89
3.64
-0.06
-2.95
-4.05
-3.18
-1.13
0.58
0.54
-1.86
-5.88
-9.82
-11.64
-10.03
-4.99
2.05
8.68
12.22
10.47
2.40
-11.25
-27.73
-42.50
-50.36
-47.10
-31.23
-4.87
26.72
56.89
79.78
92.02
93.27
85.42
71.38
53.97
35.52
17.96
3.01
-7.92
-14.10
-15.83
-14.49
-12.05
-10.35
-10.53
-12.70
-16.12
-19.66
-22.24
-23.19
-22.42
-20.33
-17.59
-14.84
-12.49
-10.59
-8.91
-7.14
-5.05
-2.73
-0.46
1.38
2.51
2.83
2.45
1.55
0.36
-0.95
-2.25
-3.38
-4.24
-4.78
-5.05
-5.18
-5.32
-5.57
-5.91
-6.23
-6.42
-6.44
-6.40
-6.44
-6.69
-7.12
-7.62
-8.04
-8.34
-8.49
-8.56
-8.55
-8.30
-7.64
-6.39
-4.54
-2.28
0.10
2.24
3.89
4.97
5.57
5.80
5.80
5.64
5.36
4.96
4.54
4.23
4.18
4.47
5.02
5.62
6.00
5.92
5.29
4.19
2.85
1.48
0.21
-0.91
-1.92
-2.90
-3.89
-4.96
-6.15
-7.45
-8.79
-10.07
-11.11
-11.72
-11.79
-11.26
-10.18
-8.65
-6.85
-4.97
-3.19
-1.57
-0.15
1.14
2.31
3.30
3.97
4.17
3.81
3.01
2.03
1.15
0.55
0.26
0.13
-0.07
-0.52
-1.32
-2.41
-3.58
-4.58
-5.11
-4.98
-4.19
-2.93
-1.62
-0.72
-0.59
-1.36
-2.88
-4.81
-6.77
-8.47
-9.76
-10.55
-10.77
-10.32
-9.12
-7.17
-4.65
-1.90
0.70
2.83
4.34
5.25
5.70
5.84
5.74
5.39
4.71
3.65
2.26
0.71
-0.70
-1.72
-2.20
-2.14
-1.67
-1.05
-0.53
-0.28
-0.37
-0.74
-1.29
-1.91
-2.60
-3.38
-4.35
-5.53
-6.82
-8.03
-8.92
-9.31
-9.12
-8.41
-7.31
-6.01
-4.69
-3.47
-2.38
-1.40
-0.49
0.32
0.99
1.34
1.27
0.78
0.04
-0.65
-1.05
-1.03
-0.70
-0.26
0.09
0.25
0.25
0.21
0.22
0.29
0.36
0.32
0.09
-0.36
-1.05
-1.99
-3.17
-4.56
-6.04
-7.46
-8.63
-9.39
-9.66
-9.41
-8.69
-7.55
-6.12
-4.50
-2.78
-1.08
0.52
1.97
3.22
4.20
4.87
5.25
5.39
5.38
5.37
5.45
5.64
5.89
6.07
6.08
5.93
5.69
5.51
5.44
5.38
5.16
4.56
3.51
2.11
0.66
-0.57
-1.43
-2.08
-2.84
-4.12
-6.10
-8.67
-11.44
-13.91
-15.62
-16.34
-16.06
-14.91
-13.06
-10.65
-7.81
-4.67
-1.49
1.43
3.83
5.59
6.78
7.64
8.42
9.25
10.14
10.93
11.48
11.65
11.47
11.04
10.52
10.00
9.49
8.93
8.26
7.49
6.72
6.06
5.66
5.50
5.48
5.35
4.87
3.88
2.40
0.61
-1.25
-3.04
-4.75
-6.47
-8.33
-10.31
-12.27
-13.94
-15.01
-15.29
-14.71
-13.32
-11.22
-8.50
-5.21
-1.53
2.29
5.84
8.67
10.44
11.08
10.84
10.23
9.80
9.90
10.54
11.38
11.90
11.69
10.62
8.97
7.31
6.27
6.12
6.64
7.10
6.43
3.71
-1.46
-8.63
-16.59
-23.65
-28.15
-29.10
-26.54
-21.67
-16.71
-14.29
-16.72
-24.98
-38.04
-52.75
-64.41
-68.20
-60.71
-41.15
-11.77
22.76
56.71
84.81
103.41
110.96
107.91
96.19
78.65
58.44
38.65
21.81
9.67
2.86
0.90
2.41
5.49
8.30
9.55
8.83
6.50
3.49
0.70
-1.26
-2.34
-2.89
-3.39
-4.22
-5.51
-7.14
-8.90
-10.57
-12.00
-13.10
-13.86
-14.24
-14.25
-13.91
-13.29
-12.42
-11.37
-10.15
-8.74
-7.18
-5.49
-3.79
-2.26
-1.06
-0.27
0.16
0.37
0.53
0.69
0.78
0.62
0.08
-0.81
-1.85
-2.69
-3.04
-2.74
-1.93
-0.95
-0.15
0.19
0.00
-0.59
-1.39
-2.22
-2.96
-3.61
-4.24
-4.92
-5.79
-6.90
-8.21
-9.58
-10.69
-11.24
-11.06
-10.16
-8.78
-7.25
-5.82
-4.54
-3.28
-1.86
-0.22
1.52
3.12
4.36
5.16
5.61
5.89
6.10
6.22
6.11
5.64
4.77
3.64
2.50
1.65
1.25
1.29
1.65
2.08
2.32
2.18
1.58
0.57
-0.66
-1.90
-2.95
-3.73
-4.29
-4.81
-5.46
-6.37
-7.50
-8.70
-9.66
-10.14
-10.03
-9.39
-8.45
-7.42
-6.44
-5.41
-4.15
-2.49
-0.48
1.63
3.44
4.63
5.17
5.28
5.34
5.67
6.30
6.96
7.27
6.93
5.96
4.68
3.58
3.01
3.04
3.34
3.41
2.84
1.49
-0.38
-2.22
-3.47
-3.74
-3.04
-1.90
-1.28
-2.40
-6.42
-14.09
-25.39
-39.26
-53.62
-65.62
-72.20
-70.91
-60.73
-42.53
-18.99
5.99
28.46
45.40
55.46
58.91
57.16
52.04
45.15
37.64
30.21
23.37
17.54
12.99
9.78
7.70
6.28
5.05
3.65
2.07
0.52
-0.64
-1.13
-0.90
-0.23
0.42
0.60
0.04
-1.18
-2.77
-4.35
-5.76
-7.04
-8.40
-10.00
-11.84
-13.66
-15.03
-15.63
-15.29
-14.10
-12.29
-10.14
-7.85
-5.56
-3.40
-1.47
0.12
1.35
2.24
2.88
3.35
3.67
3.79
3.61
3.10
2.23
1.11
-0.11
-1.24
-2.13
-2.65
-2.79
-2.66
-2.51
-2.60
-3.07
-3.89
-4.78
-5.44
-5.57
-5.16
-4.39
-3.65
-3.36
-3.76
-4.89
-6.51
-8.20
-9.54
-10.16
-9.94
-8.95
-7.41
-5.54
-3.52
-1.41
0.71
2.76
4.57
5.90
6.62
6.71
6.29
5.51
4.55
3.51
2.48
1.56
0.86
0.48
0.38
0.46
0.53
0.49
0.38
0.39
0.71
1.44
2.41
3.34
3.87
3.79
3.17
2.29
1.52
1.10
1.05
1.08
0.81
-0.15
-1.91
-4.32
-6.94
-9.28
-10.93
-11.74
-11.79
-11.21
-10.13
-8.60
-6.58
-4.11
-1.38
1.33
3.72
5.57
6.83
7.55
7.81
7.66
7.08
6.12
4.89
3.70
2.85
2.56
2.86
3.52
4.18
4.49
4.27
3.55
2.56
1.57
0.84
0.42
0.26
0.21
0.13
-0.02
-0.14
-0.16
-0.13
-0.26
-0.92
-2.37
-4.54
-7.00
-8.99
-9.87
-9.39
-7.83
-5.85
-4.10
-2.94
-2.27
-1.77
-1.12
-0.30
0.48
0.91
0.80
0.24
-0.52
-1.21
-1.76
-2.26
-2.89
-3.74
-4.70
-5.47
-5.74
-5.34
-4.36
-3.07
-1.87
-1.04
-0.70
-0.72
-0.85
-0.85
-0.62
-0.26
-0.05
-0.22
-0.85
-1.80
-2.77
-3.44
-3.63
-3.32
-2.62
-1.64
-0.42
1.08
2.86
4.79
6.62
8.03
8.75
8.71
7.93
6.61
4.97
3.26
1.73
0.53
-0.24
-0.63
-0.76
-0.85
-1.07
-1.54
-2.28
-3.20
-4.16
-5.00
-5.62
-6.04
-6.33
-6.66
-7.23
-8.18
-9.53
-11.16
-12.85
-14.32
-15.29
-15.56
-15.03
-13.74
-11.83
-9.44
-6.79
-4.01
-1.26
1.29
3.43
4.97
5.79
5.94
5.62
5.05
4.44
3.78
3.01
1.98
0.71
-0.62
-1.72
-2.34
-2.45
-2.19
-1.80
-1.45
-1.19
-0.93
-0.59
-0.23
0.03
-0.06
-0.67
-1.90
-3.68
-5.86
-8.18
-10.38
-12.20
-13.40
-13.84
-13.46
-12.21
-10.13
-7.32
-3.98
-0.43
2.89
5.60
7.45
8.44
8.80
8.86
8.92
9.14
9.47
9.79
10.02
10.11
10.14
10.18
10.21
10.13
9.78
9.08
8.07
6.98
6.11
5.66
5.62
5.66
5.37
4.45
2.85
0.88
-1.02
-2.54
-3.65
-4.70
-6.20
-8.49
-11.58
-15.05
-18.25
-20.50
-21.46
-21.10
-19.68
-17.59
-15.14
-12.49
-9.67
-6.67
-3.52
-0.42
2.37
4.61
6.15
7.01
7.31
7.21
6.81
6.21
5.48
4.80
4.38
4.41
4.92
5.78
6.74
7.51
7.87
7.70
6.99
5.82
4.41
3.04
2.01
1.47
1.31
1.16
0.59
-0.67
-2.59
-4.86
-7.03
-8.74
-9.89
-10.56
-10.86
-10.82
-10.32
-9.25
-7.56
-5.37
-2.86
-0.25
2.21
4.36
6.01
7.04
7.38
7.06
6.26
5.29
4.42
3.79
3.44
3.27
3.13
2.92
2.58
2.09
1.48
0.80
0.13
-0.46
-0.88
-1.10
-1.19
-1.30
-1.63
-2.33
-3.42
-4.78
-6.20
-7.39
-8.12
-8.20
-7.55
-6.20
-4.25
-1.88
0.69
3.25
5.62
7.70
9.39
10.67
11.49
11.82
11.68
11.10
10.13
8.84
7.31
5.65
4.06
2.70
1.70
1.06
0.63
0.22
-0.32
-1.04
-1.86
-2.69
-3.52
-4.41
-5.46
-6.75
-8.27
-9.92
-11.56
-13.02
-14.13
-14.73
-14.74
-14.17
-13.12
-11.69
-9.97
-7.94
-5.53
-2.69
0.41
3.43
5.96
7.69
8.60
8.89
8.92
8.94
8.97
8.86
8.41
7.57
6.53
5.63
5.15
5.16
5.53
5.89
5.99
5.71
5.13
4.38
3.55
2.57
1.32
-0.30
-2.29
-4.47
-6.61
-8.52
-10.14
-11.62
-13.22
-15.25
-17.82
-20.84
-23.95
-26.69
-28.54
-29.10
-28.16
-25.74
-22.05
-17.48
-12.51
-7.62
-3.20
0.52
3.53
5.95
7.96
9.70
11.22
12.54
13.69
14.70
15.62
16.47
17.21
17.81
18.19
18.33
18.26
18.00
17.55
16.92
16.06
14.97
13.68
12.32
11.02
9.84
8.81
7.77
6.57
4.98
2.88
0.31
-2.57
-5.47
-8.11
-10.20
-11.58
-12.19
-11.99
-10.98
-9.14
-6.49
-3.15
0.57
4.21
7.27
9.43
10.64
11.13
11.31
11.45
11.59
11.55
11.14
10.30
9.24
8.25
7.62
7.42
7.49
7.60
7.54
7.23
6.71
6.06
5.35
4.64
3.96
3.33
2.70
1.92
0.77
-0.95
-3.23
-5.87
-8.45
-10.53
-11.84
-12.26
-11.82
-10.63
-8.76
-6.29
-3.35
-0.21
2.84
5.49
7.60
9.20
10.44
11.46
12.24
12.61
12.34
11.30
9.57
7.45
5.33
3.50
2.12
1.21
0.70
0.51
0.54
0.69
0.82
0.81
0.57
0.11
-0.53
-1.41
-2.67
-4.50
-6.99
-9.97
-13.01
-15.54
-17.02
-17.20
-16.12
-14.06
-11.37
-8.35
-5.23
-2.13
0.84
3.57
5.97
8.00
9.64
10.95
11.93
12.56
12.81
12.67
12.20
11.50
10.70
9.89
9.08
8.22
7.26
6.14
4.84
3.42
1.94
0.53
-0.73
-1.82
-2.78
-3.76
-4.89
-6.30
-8.07
-10.18
-12.55
-15.01
-17.34
-19.24
-20.37
-20.42
-19.25
-16.89
-13.59
-9.71
-5.63
-1.62
2.12
5.45
8.26
10.44
11.91
12.66
12.81
12.55
12.08
11.61
11.22
10.95
10.75
10.59
10.51
10.60
10.97
11.67
12.63
13.60
14.23
14.13
13.11
11.18
8.65
5.93
3.38
1.17
-0.75
-2.62
-4.70
-7.14
-9.94
-12.86
-15.58
-17.70
-18.90
-18.96
-17.81
-15.58
-12.47
-8.77
-4.80
-0.81
2.92
6.19
8.84
10.77
12.01
12.66
12.83
12.64
12.15
11.46
10.72
10.06
9.65
9.54
9.66
9.84
9.88
9.62
8.99
8.04
6.89
5.65
4.46
3.42
2.60
2.02
1.60
1.13
0.32
-1.09
-3.19
-5.85
-8.69
-11.21
-12.90
-13.41
-12.71
-11.03
-8.69
-6.05
-3.34
-0.68
1.84
4.12
6.00
7.33
8.04
8.25
8.17
8.08
8.10
8.21
8.22
7.91
7.21
6.25
5.30
4.66
4.46
4.67
5.05
5.34
5.37
5.07
4.49
3.74
2.88
2.00
1.10
0.15
-0.91
-2.13
-3.50
-4.85
-5.81
-5.91
-4.68
-1.89
2.31
7.36
12.45
16.72
19.66
21.23
21.94
22.72
24.50
27.86
32.58
37.54
40.74
39.88
33.02
19.50
0.60
-20.45
-39.07
-50.69
-52.28
-43.43
-26.55
-6.02
13.36
27.74
35.19
35.66
30.44
21.30
9.98
-1.98
-13.20
-22.40
-28.49
-30.88
-29.73
-25.95
-21.00
-16.35
-12.90
-10.79
-9.44
-7.95
-5.69
-2.55
0.98
4.10
6.10
6.67
5.97
4.55
3.03
1.94
1.52
1.70
2.18
2.63
2.81
2.60
2.13
1.53
0.94
0.41
-0.15
-0.83
-1.70
-2.78
-4.02
-5.34
-6.69
-8.07
-9.48
-10.92
-12.37
-13.78
-15.01
-15.84
-16.07
-15.55
-14.27
-12.35
-9.99
-7.38
-4.66
-1.91
0.76
3.27
5.42
7.09
8.18
8.70
8.79
8.61
8.27
7.82
7.26
6.56
5.79
5.11
4.69
4.60
4.83
5.12
5.23
4.90
4.10
2.98
1.72
0.47
-0.83
-2.36
-4.33
-6.76
-9.45
-12.02
-14.05
-15.29
-15.65
-15.18
-14.01
-12.25
-10.01
-7.39
-4.55
-1.65
1.10
3.47
5.26
6.28
6.46
5.86
4.76
3.58
2.71
2.31
2.27
2.21
1.75
0.71
-0.80
-2.43
-3.79
-4.61
-4.87
-4.73
-4.44
-4.20
-4.11
-4.20
-4.51
-5.19
-6.39
-8.18
-10.46
-12.87
-14.97
-16.26
-16.46
-15.46
-13.43
-10.67
-7.58
-4.49
-1.64
0.85
2.96
4.73
6.18
7.36
8.21
8.70
8.79
8.47
7.80
6.88
5.82
4.76
3.84
3.21
2.95
3.02
3.24
3.36
3.15
2.52
1.53
0.35
-0.87
-2.10
-3.40
-4.90
-6.68
-8.68
-10.70
-12.42
-13.54
-13.83
-13.25
-11.90
-10.02
-7.81
-5.43
-2.86
-0.04
3.02
6.16
9.03
11.18
12.26
12.20
11.29
10.07
9.27
9.44
10.72
12.74
14.73
15.79
15.27
13.19
10.17
7.33
5.77
6.17
8.46
11.75
14.57
15.14
11.81
3.50
-9.68
-26.17
-42.76
-55.25
-59.66
-53.68
-37.74
-15.14
9.08
29.85
43.71
49.70
48.95
43.67
35.95
27.20
18.15
9.42
1.88
-3.46
-5.87
-5.32
-2.68
0.69
3.43
4.76
4.72
3.97
3.36
3.47
4.32
5.51
6.41
6.55
5.91
4.83
3.87
3.49
3.83
4.61
5.38
5.66
5.27
4.32
3.09
1.91
0.92
0.14
-0.52
-1.16
-1.82
-2.52
-3.32
-4.32
-5.63
-7.31
-9.35
-11.62
-14.00
-16.31
-18.34
-19.78
-20.39
-19.95
-18.38
-15.81
-12.51
-8.85
-5.18
-1.78
1.16
3.52
5.28
6.45
7.10
7.34
7.32
7.15
6.87
6.52
6.10
5.60
5.08
4.68
4.56
4.91
5.80
7.15
8.66
9.91
10.53
10.32
9.34
7.83
6.18
4.66
3.40
2.37
1.49
0.68
-0.12
-1.03
-2.23
-3.95
-6.32
-9.17
-12.03
-14.26
-15.36
-15.12
-13.74
-11.65
-9.25
-6.78
-4.28
-1.79
0.63
2.76
4.39
5.44
5.98
6.22
6.31
6.29
6.12
5.74
5.15
4.47
3.82
3.29
2.91
2.65
2.46
2.29
2.08
1.76
1.28
0.65
0.00
-0.46
-0.56
-0.24
0.25
0.50
0.01
-1.52
-3.94
-6.67
-8.80
-9.50
-8.37
-5.80
-2.86
-1.01
-1.62
-5.45
-12.42
-21.47
-30.76
-37.89
-40.45
-36.63
-25.82
-9.02
11.30
31.77
49.09
60.93
66.40
65.91
60.75
52.43
42.38
31.77
21.62
12.79
5.95
1.40
-1.05
-2.01
-2.31
-2.71
-3.63
-5.08
-6.79
-8.42
-9.82
-11.07
-12.47
-14.24
-16.40
-18.65
-20.50
-21.53
-21.50
-20.47
-18.68
-16.38
-13.75
-10.90
-7.92
-4.98
-2.28
0.04
1.92
3.43
4.64
5.58
6.13
6.19
5.78
5.07
4.41
4.12
4.31
4.90
5.63
6.26
6.62
6.69
6.48
6.03
5.36
4.45
3.40
2.25
1.09
-0.10
-1.37
-2.79
-4.41
-6.23
-8.19
-10.16
-11.99
-13.43
-14.23
-14.19
-13.23
-11.51
-9.30
-6.92
-4.58
-2.36
-0.20
1.94
4.04
5.91
7.36
8.23
8.59
8.61
8.54
8.58
8.77
8.99
9.16
9.23
9.32
9.56
9.99
10.49
10.81
10.74
10.22
9.43
8.63
8.03
7.63
7.16
6.32
4.84
2.71
0.09
-2.70
-5.42
-7.91
-10.14
-12.08
-13.69
-14.82
-15.34
-15.10
-14.08
-12.37
-10.19
-7.78
-5.34
-2.99
-0.77
1.30
3.14
4.60
5.53
5.85
5.61
5.03
4.36
3.82
3.45
3.18
2.88
2.51
2.16
1.97
2.04
2.26
2.42
2.24
1.63
0.64
-0.46
-1.40
-2.04
-2.47
-2.94
-3.76
-5.13
-7.03
-9.22
-11.31
-12.88
-13.62
-13.45
-12.50
-11.03
-9.28
-7.32
-5.14
-2.69
-0.03
2.55
4.71
6.16
6.80
6.77
6.34
5.81
5.34
4.95
4.59
4.20
3.76
3.29
2.85
2.46
2.12
1.82
1.53
1.19
0.76
0.24
-0.34
-0.89
-1.35
-1.75
-2.22
-2.95
-4.10
-5.74
-7.73
-9.80
-11.63
-12.90
-13.48
-13.33
-12.50
-11.06
-9.08
-6.67
-3.97
-1.22
1.32
3.41
4.94
5.88
6.31
6.32
5.96
5.23
4.11
2.68
1.07
-0.52
-1.87
-2.82
-3.31
-3.38
-3.16
-2.79
-2.41
-2.13
-1.99
-2.03
-2.22
-2.56
-3.01
-3.61
-4.37
-5.34
-6.56
-7.98
-9.40
-10.57
-11.20
-11.10
-10.27
-8.78
-6.79
-4.42
-1.80
0.89
3.43
5.59
7.21
8.27
8.92
9.28
9.44
9.31
8.77
7.78
6.53
5.33
4.52
4.25
4.47
4.96
5.45
5.76
5.76
5.45
4.84
4.00
3.08
2.17
1.28
0.32
-0.96
-2.77
-5.15
-7.82
-10.26
-11.86
-12.19
-11.17
-9.17
-6.73
-4.38
-2.32
-0.46
1.58
4.08
7.10
10.25
12.91
14.43
14.44
13.07
10.94
8.95
7.97
8.50
10.52
13.38
15.84
16.37
13.42
5.98
-5.97
-21.07
-36.62
-49.06
-54.98
-52.22
-40.66
-22.33
-0.80
19.89
36.52
47.25
51.79
50.87
45.66
37.36
27.13
16.23
6.04
-2.04
-6.96
-8.49
-7.30
-4.71
-2.17
-0.72
-0.61
-1.43
-2.45
-3.07
-3.07
-2.66
-2.25
-2.17
-2.54
-3.19
-3.83
-4.21
-4.30
-4.16
-4.01
-3.98
-4.13
-4.41
-4.77
-5.17
-5.70
-6.44
-7.45
-8.73
-10.20
-11.73
-13.14
-14.30
-15.08
-15.34
-15.00
-14.00
-12.36
-10.16
-7.54
-4.64
-1.63
1.27
3.84
5.80
7.00
7.37
6.97
6.03
4.85
3.73
2.85
2.29
1.95
1.70
1.38
0.87
0.08
-0.98
-2.21
-3.45
-4.43
-5.03
-5.24
-5.28
-5.50
-6.22
-7.54
-9.33
-11.20
-12.68
-13.45
-13.40
-12.69
-11.64
-10.45
-9.21
-7.83
-6.15
-4.05
-1.65
0.79
2.95
4.58
5.63
6.16
6.35
6.34
6.19
5.93
5.56
5.15
4.74
4.39
4.02
3.55
2.88
1.93
0.72
-0.72
-2.29
-3.86
-5.32
-6.61
-7.72
-8.71
-9.72
-10.94
-12.45
-14.20
-15.96
-17.41
-18.26
-18.32
-17.59
-16.20
-14.28
-11.94
-9.19
-6.07
-2.74
0.51
3.34
5.54
7.10
8.24
9.22
10.14
10.91
11.31
11.18
10.57
9.73
9.04
8.75
8.88
9.22
9.41
9.18
8.40
7.14
5.61
4.05
2.63
1.36
0.16
-1.18
-2.84
-4.84
-7.10
-9.44
-11.64
-13.57
-15.11
-16.15
-16.55
-16.13
-14.80
-12.68
-10.09
-7.43
-5.02
-3.00
-1.29
0.21
1.55
2.68
3.55
4.16
4.60
5.00
5.46
5.96
6.40
6.73
6.98
7.25
7.68
8.28
8.93
9.39
9.41
8.88
7.85
6.50
5.10
3.86
2.81
1.76
0.41
-1.55
-4.19
-7.29
-10.46
-13.22
-15.24
-16.44
-16.92
-16.83
-16.25
-15.12
-13.35
-10.91
-7.97
-4.85
-1.88
0.62
2.54
3.89
4.72
5.19
5.42
5.55
5.73
6.09
6.70
7.53
8.40
9.13
9.57
9.73
9.72
9.70
9.78
9.91
9.95
9.70
9.03
7.91
6.41
4.60
2.56
0.33
-1.99
-4.23
-6.13
-7.43
-7.99
-7.77
-6.94
-5.66
-4.11
-2.38
-0.54
1.33
3.11
4.68
5.94
6.90
7.61
8.15
8.50
8.62
8.42
7.90
7.17
6.43
5.89
5.63
5.65
5.82
5.95
5.92
5.62
5.03
4.21
3.19
2.06
0.87
-0.36
-1.71
-3.32
-5.33
-7.79
-10.65
-13.71
-16.61
-18.96
-20.42
-20.71
-19.72
-17.56
-14.53
-11.01
-7.38
-3.93
-0.77
2.09
4.69
7.02
9.04
10.63
11.70
12.18
12.18
11.87
11.48
11.23
11.31
11.72
12.28
12.69
12.63
11.93
10.63
9.04
7.50
6.29
5.45
4.79
4.06
3.02
1.62
-0.13
-2.18
-4.47
-6.97
-9.57
-12.05
-14.06
-15.25
-15.41
-14.54
-12.76
-10.30
-7.34
-4.03
-0.46
3.21
6.77
9.94
12.52
14.33
15.36
15.67
15.40
14.71
13.80
12.86
12.14
11.83
12.03
12.69
13.61
14.46
14.92
14.76
13.97
12.64
11.01
9.29
7.59
5.94
4.28
2.50
0.48
-1.85
-4.47
-7.27
-10.02
-12.45
-14.28
-15.36
-15.66
-15.23
-14.16
-12.58
-10.56
-8.17
-5.56
-2.92
-0.53
1.46
3.02
4.26
5.37
6.46
7.50
8.31
8.70
8.60
8.13
7.55
7.11
6.88
6.77
6.54
5.99
5.15
4.16
3.28
2.66
2.29
1.99
1.56
0.85
-0.15
-1.39
-2.83
-4.43
-6.14
-7.88
-9.42
-10.48
-10.72
-9.95
-8.13
-5.51
-2.52
0.31
2.49
3.79
4.26
4.20
3.99
3.88
3.94
4.05
4.04
3.86
3.65
3.57
3.74
4.10
4.42
4.49
4.18
3.56
2.81
2.10
1.50
0.94
0.29
-0.57
-1.71
-3.11
-4.72
-6.42
-8.06
-9.46
-10.44
-10.81
-10.53
-9.64
-8.27
-6.61
-4.82
-3.03
-1.31
0.32
1.81
3.09
4.16
5.00
5.67
6.26
6.79
7.22
7.45
7.39
7.08
6.70
6.47
6.49
6.67
6.74
6.34
5.28
3.55
1.47
-0.61
-2.37
-3.76
-4.94
-6.19
-7.72
-9.60
-11.65
-13.56
-15.01
-15.78
-15.75
-14.98
-13.57
-11.64
-9.31
-6.71
-4.04
-1.51
0.70
2.47
3.83
4.86
5.67
6.36
6.90
7.30
7.57
7.76
7.95
8.17
8.39
8.56
8.61
8.52
8.31
7.97
7.50
6.85
6.01
4.97
3.75
2.30
0.49
-1.76
-4.44
-7.40
-10.27
-12.67
-14.35
-15.22
-15.35
-14.85
-13.78
-12.16
-9.99
-7.34
-4.38
-1.33
1.61
4.28
6.63
8.64
10.32
11.66
12.70
13.50
14.16
14.77
15.42
16.09
16.75
17.37
17.93
18.48
19.09
19.84
20.70
21.58
22.33
22.81
22.94
22.71
22.18
21.40
20.41
19.20
17.77
16.12
14.33
12.51
10.77
9.13
7.48
5.67
3.52
1.00
-1.78
-4.66
-7.48
-10.24
-12.98
-15.79
-18.57
-21.10
-23.03
-24.07
-24.12
-23.26
-21.74
-19.80
-17.62
-15.22
-12.57
-9.66
-6.55
-3.39
-0.42
2.16
4.20
5.68
6.65
7.25
7.66
8.04
8.53
9.20
10.02
10.90
11.69
12.26
12.56
12.61
12.50
12.36
12.25
12.17
12.04
11.74
11.18
10.34
9.29
8.20
7.22
6.42
5.73
4.95
3.85
2.31
0.40
-1.66
-3.63
-5.34
-6.79
-8.09
-9.28
-10.33
-11.09
-11.38
-11.08
-10.20
-8.86
-7.21
-5.36
-3.38
-1.32
0.79
2.84
4.71
6.25
7.35
7.97
8.21
8.19
8.06
7.96
7.89
7.82
7.71
7.57
7.42
7.28
7.17
7.08
7.04
7.05
7.12
7.16
7.05
6.65
5.92
4.95
3.92
3.03
2.31
1.65
0.88
-0.18
-1.55
-3.12
-4.70
-6.20
-7.54
-8.70
-9.63
-10.24
-10.38
-9.93
-8.80
-7.04
-4.79
-2.29
0.15
2.28
3.92
5.05
5.75
6.17
6.44
6.58
6.53
6.21
5.55
4.60
3.49
2.45
1.72
1.42
1.59
2.14
2.86
3.56
4.07
4.33
4.37
4.22
3.94
3.54
2.98
2.24
1.29
0.16
-1.18
-2.69
-4.33
-6.01
-7.60
-8.92
-9.83
-10.26
-10.22
-9.79
-9.08
-8.14
-6.95
-5.47
-3.71
-1.77
0.14
1.74
2.84
3.38
3.45
3.22
2.85
2.44
1.98
1.41
0.72
0.03
-0.45
-0.51
-0.04
0.88
1.95
2.75
2.96
2.50
1.55
0.49
-0.37
-0.83
-0.98
-1.07
-1.38
-2.13
-3.40
-5.11
-7.08
-8.99
-10.53
-11.38
-11.34
-10.39
-8.66
-6.44
-3.99
-1.55
0.80
2.93
4.70
5.94
6.53
6.48
5.96
5.24
4.53
3.92
3.35
2.69
1.83
0.82
-0.17
-0.94
-1.40
-1.58
-1.64
-1.75
-2.00
-2.36
-2.69
-2.84
-2.79
-2.64
-2.58
-2.87
-3.66
-4.96
-6.64
-8.49
-10.26
-11.76
-12.82
-13.31
-13.18
-12.42
-11.08
-9.26
-7.08
-4.69
-2.34
-0.29
1.21
2.04
2.27
2.06
1.60
0.97
0.12
-1.04
-2.51
-4.04
-5.27
-5.84
-5.62
-4.76
-3.64
-2.62
-1.94
-1.62
-1.56
-1.61
-1.73
-1.99
-2.51
-3.41
-4.69
-6.28
-7.97
-9.53
-10.69
-11.28
-11.19
-10.42
-9.03
-7.14
-4.85
-2.38
0.06
2.27
4.07
5.43
6.36
6.85
6.84
6.23
4.96
3.14
1.15
-0.44
-1.05
-0.37
1.41
3.65
5.47
6.12
5.30
3.32
1.01
-0.66
-1.00
0.12
2.09
3.70
3.47
0.02
-7.48
-18.82
-32.46
-45.53
-54.46
-55.97
-48.28
-31.89
-9.53
14.59
36.24
52.31
61.39
63.61
60.06
52.11
41.11
28.44
15.55
3.99
-4.90
-10.41
-12.65
-12.45
-11.00
-9.41
-8.31
-7.80
-7.60
-7.31
-6.69
-5.72
-4.63
-3.80
-3.57
-4.15
-5.53
-7.45
-9.53
-11.38
-12.80
-13.82
-14.66
-15.68
-17.10
-18.99
-21.12
-23.08
-24.36
-24.58
-23.58
-21.45
-18.49
-15.06
-11.50
-8.05
-4.87
-2.14
0.01
1.49
2.37
2.84
3.11
3.33
3.48
3.45
3.18
2.73
2.26
1.98
1.96
2.20
2.58
3.03
3.49
3.91
4.14
4.02
3.45
2.39
1.05
-0.35
-1.63
-2.83
-4.12
-5.74
-7.84
-10.42
-13.30
-16.22
-18.86
-20.95
-22.25
-22.62
-22.07
-20.71
-18.63
-15.95
-12.70
-8.92
-4.79
-0.64
3.08
5.95
7.76
8.63
8.94
9.12
9.48
10.04
10.62
10.94
10.87
10.46
9.94
9.53
9.34
9.29
9.28
9.20
9.06
8.96
8.91
8.83
8.48
7.70
6.46
4.90
3.30
1.86
0.62
-0.54
-1.77
-3.23
-5.01
-7.18
-9.75
-12.74
-16.03
-19.36
-22.38
-24.72
-26.17
-26.68
-26.37
-25.40
-23.89
-21.88
-19.37
-16.39
-13.07
-9.63
-6.38
-3.66
-1.67
-0.42
0.28
0.78
1.42
2.36
3.56
4.81
5.89
6.73
7.45
8.29
9.41
10.78
12.20
13.37
14.06
14.29
14.22
14.03
13.83
13.53
12.89
11.70
9.93
7.80
5.61
3.67
2.07
0.65
-0.91
-2.96
-5.63
-8.76
-11.92
-14.57
-16.27
-16.81
-16.23
-14.72
-12.55
-9.98
-7.23
-4.48
-1.92
0.33
2.24
3.88
5.41
6.98
8.66
10.31
11.69
12.56
12.77
12.42
11.79
11.24
11.10
11.58
12.65
14.11
15.60
16.76
17.32
17.16
16.39
15.30
14.23
13.45
13.01
12.76
12.40
11.66
10.41
8.68
6.65
4.55
2.59
0.89
-0.58
-1.92
-3.36
-5.18
-7.55
-10.49
-13.80
-17.09
-19.95
-21.99
-23.06
-23.12
-22.21
-20.37
-17.60
-14.02
-9.84
-5.44
-1.25
2.31
4.99
6.73
7.69
8.17
8.48
8.92
9.65
10.69
11.89
13.07
14.08
14.87
15.51
16.11
16.73
17.31
17.75
17.99
17.99
17.82
17.46
16.89
15.99
14.72
13.11
11.34
9.63
8.15
6.92
5.87
4.86
3.83
2.79
1.77
0.80
-0.18
-1.36
-2.90
-4.94
-7.43
-10.22
-12.92
-15.08
-16.23
-16.09
-14.56
-11.88
-8.50
-4.94
-1.59
1.36
3.88
6.04
7.84
9.25
10.24
10.84
11.15
11.32
11.49
11.69
11.91
12.10
12.25
12.42
12.69
13.13
13.70
14.32
14.80
15.00
14.90
14.59
14.19
13.80
13.40
12.91
12.20
11.25
10.15
9.03
8.01
7.09
6.14
5.01
3.62
1.96
0.11
-1.87
-3.91
-5.96
-7.92
-9.70
-11.20
-12.39
-13.30
-13.92
-14.21
-14.05
-13.26
-11.71
-9.37
-6.36
-2.94
0.51
3.68
6.23
8.03
9.04
9.37
9.27
8.93
8.46
7.85
7.07
6.08
4.99
4.00
3.33
3.12
3.31
3.71
4.07
4.21
4.09
3.83
3.52
3.25
2.96
2.54
1.89
0.99
-0.05
-1.10
-2.05
-2.93
-3.89
-5.13
-6.78
-8.80
-11.05
-13.23
-15.04
-16.22
-16.65
-16.35
-15.42
-14.02
-12.27
-10.23
-7.95
-5.53
-3.12
-0.95
0.76
1.91
2.51
2.69
2.64
2.47
2.25
1.97
1.62
1.26
0.96
0.81
0.85
1.07
1.40
1.72
1.90
1.81
1.43
0.82
0.14
-0.47
-1.00
-1.60
-2.52
-3.92
-5.77
-7.71
-9.24
-9.92
-9.59
-8.38
-6.70
-4.92
-3.24
-1.68
-0.14
1.42
2.92
4.15
4.96
5.30
5.27
5.08
4.95
4.95
4.99
4.94
4.63
4.05
3.33
2.72
2.39
2.37
2.53
2.59
2.37
1.85
1.15
0.50
0.05
-0.24
-0.63
-1.42
-2.85
-4.91
-7.34
-9.72
-11.68
-12.94
-13.46
-13.32
-12.65
-11.57
-10.12
-8.35
-6.34
-4.22
-2.13
-0.17
1.65
3.34
4.83
6.01
6.70
6.77
6.27
5.39
4.37
3.43
2.65
1.97
1.31
0.64
-0.04
-0.69
-1.32
-1.97
-2.64
-3.30
-3.90
-4.39
-4.85
-5.44
-6.33
-7.68
-9.44
-11.43
-13.37
-15.00
-16.13
-16.71
-16.71
-16.13
-15.00
-13.29
-11.03
-8.29
-5.23
-2.10
0.77
3.06
4.59
5.33
5.44
5.16
4.74
4.35
4.07
3.90
3.81
3.76
3.70
3.64
3.61
3.61
3.72
4.00
4.42
4.92
5.40
5.77
5.96
5.98
5.84
5.59
5.20
4.71
4.12
3.49
2.85
2.22
1.58
0.85
-0.07
-1.22
-2.63
-4.28
-6.15
-8.22
-10.50
-12.90
-15.25
-17.28
-18.67
-19.16
-18.62
-17.16
-15.07
-12.68
-10.29
-8.12
-6.18
-4.40
-2.68
-1.01
0.54
1.82
2.70
3.12
3.10
2.78
2.31
1.83
1.43
1.21
1.23
1.54
2.16
2.99
3.88
4.60
4.96
4.88
4.40
3.66
2.82
1.99
1.18
0.28
-0.79
-2.07
-3.49
-4.96
-6.39
-7.80
-9.23
-10.72
-12.22
-13.63
-14.79
-15.55
-15.84
-15.62
-14.86
-13.58
-11.80
-9.60
-7.08
-4.41
-1.73
0.80
3.03
4.76
5.88
6.34
6.27
5.89
5.45
5.15
5.09
5.20
5.39
5.63
5.93
6.36
6.99
7.72
8.39
8.78
8.79
8.49
8.03
7.62
7.34
7.15
6.87
6.35
5.52
4.46
3.27
1.96
0.46
-1.33
-3.41
-5.65
-7.74
-9.36
-10.22
-10.22
-9.40
-7.90
-5.89
-3.58
-1.12
1.31
3.56
5.49
7.06
8.30
9.29
10.12
10.82
11.34
11.60
11.54
11.17
10.60
10.02
9.68
9.74
10.21
10.97
11.68
11.98
11.60
10.50
8.87
7.01
5.22
3.61
2.11
0.59
-1.04
-2.72
-4.30
-5.64
-6.79
-7.93
-9.30
-11.02
-13.00
-15.01
-16.71
-17.86
-18.29
-17.94
-16.83
-14.98
-12.45
-9.35
-5.84
-2.18
1.31
4.31
6.59
8.03
8.70
8.83
8.67
8.46
8.29
8.20
8.19
8.29
8.56
9.02
9.64
10.21
10.52
10.36
9.68
8.61
7.39
6.30
5.48
4.95
4.58
4.16
3.55
2.69
1.61
0.44
-0.72
-1.79
-2.80
-3.85
-5.04
-6.49
-8.18
-10.01
-11.74
-13.09
-13.80
-13.72
-12.79
-11.04
-8.59
-5.61
-2.40
0.67
3.21
4.91
5.68
5.66
5.14
4.42
3.75
3.23
2.88
2.67
2.54
2.46
2.40
2.40
2.53
2.90
3.55
4.36
5.07
5.38
5.06
4.14
2.88
1.61
0.62
-0.03
-0.43
-0.79
-1.31
-2.10
-3.22
-4.63
-6.24
-7.91
-9.46
-10.69
-11.42
-11.50
-10.89
-9.60
-7.74
-5.46
-2.99
-0.55
1.62
3.35
4.58
5.31
5.63
5.64
5.45
5.17
4.83
4.49
4.14
3.78
3.40
3.06
2.81
2.66
2.58
2.50
2.29
1.90
1.33
0.65
-0.07
-0.84
-1.74
-2.89
-4.34
-6.07
-7.90
-9.63
-11.10
-12.15
-12.71
-12.66
-11.87
-10.29
-8.02
-5.33
-2.59
-0.15
1.80
3.27
4.40
5.34
6.08
6.52
6.55
6.14
5.44
4.72
4.18
3.93
3.88
3.91
3.91
3.86
3.81
3.76
3.63
3.25
2.49
1.38
0.11
-1.04
-1.90
-2.49
-3.04
-3.91
-5.40
-7.57
-10.22
-12.96
-15.30
-16.87
-17.45
-17.05
-15.77
-13.85
-11.47
-8.82
-6.04
-3.26
-0.64
1.68
3.53
4.88
5.77
6.33
6.68
6.90
7.02
6.99
6.83
6.59
6.38
6.29
6.32
6.38
6.31
6.03
5.55
5.03
4.59
4.27
3.92
3.37
2.49
1.28
-0.09
-1.47
-2.86
-4.45
-6.49
-9.08
-12.08
-15.01
-17.32
-18.54
-18.51
-17.36
-15.41
-13.05
-10.54
-8.03
-5.55
-3.06
-0.56
1.91
4.26
6.37
8.12
9.43
10.23
10.54
10.43
10.02
9.43
8.77
8.14
7.61
7.21
6.93
6.70
6.44
6.02
5.41
4.61
3.74
3.00
2.51
2.28
2.14
1.80
0.96
-0.55
-2.74
-5.39
-8.11
-10.52
-12.31
-13.26
-13.30
-12.53
-11.06
-9.12
-6.91
-4.62
-2.42
-0.43
1.26
2.64
3.76
4.74
5.69
6.58
7.30
7.64
7.49
6.91
6.16
5.59
5.45
5.72
6.13
6.25
5.74
4.46
2.61
0.56
-1.33
-2.84
-4.02
-5.12
-6.48
-8.35
-10.71
-13.27
-15.57
-17.15
-17.79
-17.52
-16.58
-15.23
-13.56
-11.58
-9.20
-6.46
-3.55
-0.81
1.38
2.79
3.27
2.84
1.55
-0.47
-3.00
-5.72
-8.32
-10.58
-12.41
-13.95
-15.49
-17.29
-19.51
-22.14
-25.04
-28.06
-31.06
-33.95
-36.79
-39.79
-43.27
-47.64
-53.24
-60.22
-68.43
-77.34
-86.23
-94.35
-101.12
-106.28
-109.94
-112.35
-113.74
-113.97
-112.49
-108.45
-101.02
-89.85
-75.35
-58.77
-41.81
-26.19
-13.13
-3.12
4.02
8.89
12.21
14.58
16.45
18.13
19.83
21.68
23.71
25.78
27.54
28.59
28.53
27.21
24.76
21.63
18.29
15.13
12.14
8.99
5.09
-0.18
-7.13
-15.65
-25.10
-34.28
-41.57
-45.24
-43.89
-36.90
-24.71
-8.80
8.76
25.92
41.15
53.72
63.58
71.04
76.41
79.92
81.72
82.08
81.38
80.02
78.34
76.47
74.41
72.17
69.79
67.42
65.17
62.98
60.65
57.84
54.26
49.85
44.74
39.23
33.71
28.39
23.40
18.67
14.01
9.14
3.77
-2.32
-9.24
-16.82
-24.68
-32.14
-38.35
-42.43
-43.61
-41.40
-35.74
-27.04
-16.13
-4.13
7.82
18.73
27.97
35.28
40.73
44.55
46.99
48.24
48.50
47.99
47.01
45.87
44.84
44.07
43.54
43.09
42.50
41.56
40.19
38.46
36.53
34.58
32.65
30.69
28.48
25.85
22.69
19.09
15.26
11.44
7.83
4.59
1.87
-0.07
-0.93
-0.48
1.35
4.33
8.05
12.02
15.89
19.43
22.53
25.15
27.18
28.55
29.20
29.19
28.61
27.61
26.23
24.48
22.38
20.04
17.68
15.54
13.74
12.19
10.65
8.79
6.40
3.52
0.34
-2.90
-6.04
-9.12
-12.31
-15.74
-19.39
-23.06
-26.45
-29.23
-31.19
-32.14
-31.96
-30.52
-27.74
-23.66
-18.48
-12.60
-6.48
-0.59
4.75
9.36
13.22
16.34
18.73
20.42
21.46
22.00
22.29
22.56
22.99
23.59
24.24
24.68
24.64
23.92
22.43
20.28
17.68
14.86
11.96
9.05
6.07
2.95
-0.34
-3.81
-7.45
-11.19
-14.93
-18.50
-21.64
-24.06
-25.43
-25.53
-24.31
-21.91
-18.58
-14.61
-10.21
-5.55
-0.75
4.03
8.62
12.80
16.37
19.20
21.26
22.60
23.36
23.68
23.69
23.46
22.99
22.29
21.34
20.18
18.85
17.43
15.96
14.41
12.75
10.86
8.75
6.47
4.16
1.95
-0.07
-1.94
-3.82
-5.87
-8.22
-10.90
-13.79
-16.66
-19.24
-21.18
-22.13
-21.82
-20.08
-16.99
-12.83
-8.04
-3.15
1.41
5.42
8.78
11.52
13.73
15.42
16.63
17.37
17.69
17.65
17.34
16.80
16.16
15.50
14.95
14.61
14.49
14.49
14.41
14.04
13.26
12.06
10.56
8.89
7.20
5.58
4.02
2.46
0.76
-1.27
-3.76
-6.75
-10.15
-13.67
-16.95
-19.70
-21.74
-23.08
-23.81
-23.94
-23.43
-22.13
-19.96
-16.97
-13.36
-9.47
-5.63
-2.16
0.71
2.86
4.24
4.91
5.03
4.86
4.65
4.57
4.73
5.14
5.72
6.40
7.09
7.69
8.06
8.04
7.49
6.40
4.85
3.07
1.28
-0.43
-2.08
-3.86
-5.96
-8.49
-11.33
-14.21
-16.77
-18.78
-20.11
-20.77
-20.76
-20.05
-18.52
-16.11
-12.97
-9.45
-6.06
-3.28
-1.34
-0.16
0.57
1.23
2.08
3.17
4.39
5.53
6.43
7.05
7.40
7.58
7.64
7.59
7.37
6.95
6.23
5.19
3.79
2.05
0.02
-2.22
-4.57
-6.92
-9.17
-11.29
-13.24
-14.97
-16.34
-17.17
-17.30
-16.62
-15.15
-13.05
-10.50
-7.73
-4.95
-2.33
-0.02
1.83
3.17
4.00
4.43
4.63
4.77
4.93
5.11
5.25
5.29
5.23
5.09
4.89
4.60
4.13
3.41
2.48
1.50
0.72
0.31
0.22
0.16
-0.34
-1.68
-4.03
-7.19
-10.67
-13.85
-16.24
-17.59
-17.97
-17.58
-16.69
-15.47
-13.95
-12.07
-9.82
-7.26
-4.61
-2.15
-0.11
1.41
2.45
3.16
3.71
4.19
4.65
5.01
5.22
5.16
4.82
4.25
3.63
3.17
3.03
3.21
3.54
3.67
3.28
2.16
0.34
-1.92
-4.33
-6.61
-8.61
-10.35
-11.97
-13.62
-15.49
-17.65
-20.09
-22.64
-25.03
-26.86
-27.76
-27.50
-26.03
-23.55
-20.37
-16.82
-13.17
-9.55
-6.04
-2.68
0.45
3.29
5.84
8.11
10.09
11.76
13.00
13.69
13.79
13.39
12.79
12.27
12.03
12.06
12.17
12.15
11.85
11.24
10.35
9.24
7.91
6.34
4.62
2.84
1.12
-0.55
-2.35
-4.52
-7.19
-10.24
-13.29
-15.88
-17.64
-18.44
-18.31
-17.37
-15.68
-13.27
-10.19
-6.64
-2.94
0.53
3.48
5.82
7.64
9.10
10.26
11.03
11.28
10.94
10.13
9.14
8.31
7.85
7.80
8.01
8.24
8.26
7.98
7.42
6.65
5.73
4.68
3.46
2.06
0.53
-1.02
-2.48
-3.81
-5.04
-6.36
-7.87
-9.65
-11.61
-13.54
-15.24
-16.57
-17.49
-17.97
-18.03
-17.55
-16.42
-14.57
-12.03
-9.00
-5.70
-2.44
0.59
3.19
5.25
6.73
7.69
8.25
8.61
8.90
9.19
9.47
9.65
9.67
9.52
9.21
8.78
8.26
7.66
6.98
6.28
5.64
5.12
4.69
4.28
3.77
2.99
1.85
0.25
-1.84
-4.35
-7.06
-9.64
-11.71
-13.01
-13.44
-13.10
-12.15
-10.71
-8.81
-6.46
-3.75
-0.97
1.48
3.23
4.13
4.29
4.05
3.77
3.66
3.72
3.78
3.71
3.43
3.02
2.66
2.53
2.74
3.24
3.82
4.17
4.01
3.23
1.94
0.43
-0.98
-2.12
-3.05
-4.02
-5.34
-7.21
-9.56
-12.19
-14.86
-17.36
-19.68
-21.76
-23.52
-24.70
-24.97
-24.09
-22.00
-18.91
-15.20
-11.27
-7.44
-3.93
-0.82
1.81
3.92
5.48
6.53
7.19
7.63
8.05
8.56
9.16
9.79
10.31
10.58
10.54
10.20
9.65
9.01
8.34
7.67
6.92
5.94
4.60
2.80
0.58
-1.94
-4.57
-7.15
-9.61
-12.03
-14.58
-17.41
-20.57
-23.92
-27.10
-29.64
-31.07
-31.05
-29.54
-26.73
-23.07
-19.04
-15.06
-11.38
-7.98
-4.73
-1.47
1.86
5.16
8.23
10.79
12.68
13.91
14.62
15.00
15.23
15.42
15.57
15.63
15.56
15.37
15.09
14.72
14.26
13.69
12.99
12.17
11.24
10.12
8.72
6.97
4.84
2.42
-0.13
-2.66
-5.06
-7.34
-9.60
-11.96
-14.46
-17.09
-19.70
-22.10
-24.05
-25.31
-25.63
-24.86
-22.88
-19.74
-15.61
-10.81
-5.76
-0.89
3.44
7.00
9.71
11.67
13.08
14.15
15.11
16.02
16.92
17.72
18.29
18.53
18.42
18.04
17.51
16.95
16.42
15.92
15.44
14.98
14.56
14.21
13.89
13.49
12.90
12.02
10.86
9.53
8.14
6.73
5.22
3.43
1.14
-1.75
-5.24
-9.15
-13.17
-16.93
-20.03
-22.12
-22.93
-22.37
-20.50
-17.54
-13.88
-9.96
-6.21
-2.92
-0.25
1.80
3.36
4.54
5.47
6.22
6.86
7.38
7.81
8.18
8.50
8.82
9.19
9.68
10.29
10.98
11.57
11.86
11.68
10.95
9.79
8.41
7.07
5.97
5.13
4.42
3.59
2.43
0.78
-1.37
-3.89
-6.56
-9.10
-11.27
-12.85
-13.75
-13.91
-13.35
-12.06
-10.07
-7.44
-4.27
-0.78
2.76
6.05
8.83
10.93
12.31
12.99
13.07
12.69
11.92
10.88
9.61
8.20
6.77
5.48
4.54
4.08
4.13
4.55
5.10
5.50
5.53
5.02
3.94
2.33
0.27
-2.06
-4.47
-6.78
-8.96
-11.10
-13.43
-16.13
-19.22
-22.43
-25.22
-26.97
-27.24
-25.96
-23.42
-20.14
-16.65
-13.30
-10.14
-7.06
-3.91
-0.64
2.62
5.65
8.24
10.25
11.69
12.62
13.10
13.19
12.94
12.46
11.95
11.63
11.62
11.90
12.19
12.19
11.62
10.41
8.71
6.81
5.05
3.59
2.42
1.37
0.22
-1.18
-2.90
-4.94
-7.28
-9.91
-12.78
-15.88
-19.12
-22.40
-25.52
-28.21
-30.16
-31.04
-30.66
-29.02
-26.37
-23.11
-19.67
-16.33
-13.14
-9.97
-6.66
-3.14
0.49
4.04
7.29
10.10
12.45
14.39
16.01
17.41
18.69
19.94
21.19
22.45
23.60
24.49
24.94
24.84
24.20
23.16
21.90
20.57
19.14
17.50
15.44
12.85
9.75
6.32
2.86
-0.28
-2.92
-5.04
-6.81
-8.56
-10.63
-13.22
-16.31
-19.68
-22.93
-25.66
-27.54
-28.40
-28.21
-27.01
-24.90
-22.00
-18.44
-14.32
-9.80
-5.07
-0.33
4.13
8.01
11.09
13.30
14.77
15.78
16.63
17.50
18.41
19.24
19.90
20.42
20.91
21.50
22.18
22.82
23.20
23.14
22.64
21.80
20.85
19.89
18.90
17.76
16.38
14.76
13.01
11.27
9.63
8.03
6.38
4.59
2.65
0.62
-1.47
-3.66
-6.09
-8.91
-12.21
-15.88
-19.67
-23.23
-26.22
-28.41
-29.67
-29.96
-29.27
-27.64
-25.17
-22.06
-18.57
-15.00
-11.65
-8.70
-6.24
-4.26
-2.65
-1.32
-0.15
0.93
2.03
3.16
4.29
5.34
6.25
7.03
7.80
8.65
9.59
10.52
11.22
11.56
11.51
11.15
10.65
10.08
9.42
8.58
7.50
6.17
4.65
2.99
1.20
-0.76
-2.89
-5.13
-7.33
-9.28
-10.77
-11.63
-11.75
-11.10
-9.68
-7.56
-4.86
-1.76
1.51
4.65
7.39
9.47
10.69
11.03
10.64
9.85
9.00
8.36
8.01
7.86
7.80
7.75
7.71
7.74
7.86
7.98
7.90
7.45
6.55
5.26
3.71
2.04
0.34
-1.35
-3.03
-4.66
-6.30
-8.01
-9.90
-12.11
-14.65
-17.35
-19.84
-21.68
-22.50
-22.11
-20.53
-17.99
-14.78
-11.18
-7.41
-3.68
-0.19
2.87
5.27
6.91
7.82
8.17
8.21
8.14
8.02
7.80
7.34
6.60
5.63
4.66
3.98
3.78
4.03
4.51
4.88
4.80
4.10
2.81
1.13
-0.72
-2.55
-4.27
-5.95
-7.75
-9.85
-12.40
-15.47
-18.96
-22.68
-26.27
-29.31
-31.37
-32.06
-31.19
-28.77
-25.07
-20.54
-15.69
-10.96
-6.68
-2.99
0.03
2.33
3.88
4.71
4.93
4.84
4.73
4.88
5.37
6.17
7.07
7.85
8.35
8.52
8.35
7.89
7.17
6.16
4.86
3.26
1.44
-0.48
-2.37
-4.11
-5.66
-7.10
-8.57
-10.28
-12.45
-15.17
-18.41
-21.98
-25.60
-28.89
-31.48
-32.98
-33.13
-31.78
-29.02
-25.15
-20.61
-15.83
-11.14
-6.65
-2.36
1.80
5.79
9.48
12.69
15.29
17.32
18.91
20.23
21.35
22.22
22.71
22.74
22.35
21.75
21.19
20.88
20.87
21.02
21.07
20.72
19.75
18.09
15.86
13.28
10.61
8.03
5.59
3.24
0.92
-1.46
-3.84
-6.21
-8.59
-11.14
-14.08
-17.58
-21.58
-25.72
-29.36
-31.83
-32.69
-31.83
-29.51
-26.23
-22.41
-18.31
-13.98
-9.38
-4.60
0.12
4.42
7.98
10.66
12.55
13.91
14.97
15.89
16.67
17.25
17.65
17.93
18.21
18.56
18.93
19.15
19.07
18.59
17.75
16.63
15.38
14.03
12.55
10.82
8.73
6.20
3.24
-0.03
-3.44
-6.69
-9.55
-11.81
-13.47
-14.65
-15.51
-16.16
-16.51
-16.33
-15.34
-13.42
-10.67
-7.45
-4.14
-0.99
1.90
4.57
7.05
9.21
10.80
11.57
11.44
10.57
9.37
8.33
7.84
8.07
8.89
9.98
10.91
11.39
11.26
10.62
9.64
8.51
7.32
6.03
4.56
2.85
0.92
-1.15
-3.34
-5.75
-8.54
-11.85
-15.68
-19.77
-23.69
-26.92
-29.05
-29.87
-29.40
-27.80
-25.26
-21.95
-18.01
-13.60
-8.97
-4.44
-0.36
3.00
5.53
7.27
8.40
9.14
9.68
10.08
10.32
10.34
10.10
9.59
8.89
8.08
7.21
6.36
5.61
4.99
4.51
4.06
3.48
2.48
0.84
-1.53
-4.54
-8.01
-11.69
-15.46
-19.28
-23.20
-27.20
-31.10
-34.55
-37.16
-38.56
-38.60
-37.25
-34.65
-30.98
-26.38
-21.02
-15.11
-8.97
-2.98
2.48
7.07
10.64
13.18
14.87
15.98
16.79
17.53
18.31
19.09
19.74
20.15
20.27
20.13
19.72
19.07
18.09
16.69
14.84
12.57
10.01
7.28
4.41
1.38
-1.90
-5.51
-9.43
-13.61
-18.00
-22.56
-27.34
-32.30
-37.34
-42.24
-46.71
-50.49
-53.32
-54.92
-54.99
-53.17
-49.15
-42.84
-34.46
-24.59
-14.07
-3.80
5.48
13.33
19.64
24.51
28.22
31.10
33.41
35.45
37.40
39.40
41.50
43.72
45.97
48.11
49.95
51.32
52.09
52.22
51.77
50.87
49.70
48.43
47.13
45.79
44.26
42.42
40.18
37.56
34.64
31.53
28.32
25.03
21.69
18.38
15.19
12.16
9.19
6.03
2.40
-1.87
-6.67
-11.65
-16.39
-20.60
-24.36
-28.00
-31.93
-36.38
-41.31
-46.40
-51.22
-55.40
-58.60
-60.55
-60.97
-59.54
-56.03
-50.43
-43.01
-34.30
-25.02
-15.85
-7.31
0.30
6.91
12.51
17.17
20.91
23.80
25.99
27.70
29.25
30.93
32.85
34.95
37.05
38.91
40.42
41.57
42.42
43.01
43.29
43.16
42.57
41.49
39.99
38.24
36.37
34.43
32.40
30.17
27.66
24.91
22.03
19.17
16.46
13.85
11.18
8.23
4.84
1.01
-3.15
-7.43
-11.68
-15.78
-19.70
-23.37
-26.75
-29.77
-32.36
-34.44
-35.85
-36.32
-35.51
-33.15
-29.11
-23.54
-16.89
-9.76
-2.83
3.35
8.43
12.27
14.98
16.79
17.99
18.79
19.28
19.49
19.39
19.01
18.47
17.96
17.63
17.57
17.70
17.87
17.87
17.61
17.05
16.26
15.32
14.29
13.19
12.02
10.81
9.64
8.59
7.68
6.82
5.78
4.25
1.99
-1.03
-4.62
-8.43
-12.05
-15.19
-17.67
-19.47
-20.56
-20.95
-20.58
-19.42
-17.46
-14.80
-11.61
-8.12
-4.57
-1.14
2.07
5.02
7.74
10.20
12.29
13.83
14.73
15.01
14.85
14.56
14.38
14.42
14.59
14.68
14.52
14.06
13.39
12.67
12.01
11.35
10.60
9.56
8.17
6.45
4.54
2.57
0.64
-1.26
-3.20
-5.20
-7.28
-9.48
-11.82
-14.43
-17.32
-20.43
-23.54
-26.38
-28.67
-30.24
-31.06
-31.11
-30.31
-28.46
-25.44
-21.24
-16.17
-10.75
-5.57
-1.07
2.56
5.40
7.65
9.51
11.08
12.38
13.44
14.24
14.86
15.36
15.76
16.12
16.48
16.90
17.44
18.06
18.65
19.03
19.02
18.57
17.74
16.67
15.48
14.21
12.80
11.12
9.05
6.53
3.62
0.52
-2.56
-5.42
-7.95
-10.18
-12.18
-14.05
-15.87
-17.69
-19.51
-21.27
-22.81
-23.89
-24.15
-23.30
-21.19
-17.90
-13.75
-9.18
-4.61
-0.37
3.32
6.34
8.61
10.13
11.02
11.45
11.62
11.63
11.56
11.42
11.23
11.04
10.93
10.92
10.97
10.94
10.64
9.94
8.81
7.36
5.76
4.25
2.92
1.76
0.62
-0.72
-2.44
-4.60
-7.10
-9.72
-12.20
-14.38
-16.16
-17.48
-18.26
-18.37
-17.67
-16.02
-13.45
-10.13
-6.42
-2.74
0.53
3.12
4.95
6.07
6.64
6.80
6.65
6.21
5.54
4.78
4.10
3.75
3.86
4.40
5.15
5.81
6.10
5.91
5.30
4.42
3.36
2.12
0.61
-1.27
-3.54
-6.06
-8.67
-11.17
-13.45
-15.44
-17.08
-18.25
-18.76
-18.42
-17.09
-14.79
-11.70
-8.10
-4.36
-0.81
2.26
4.66
6.30
7.20
7.41
7.05
6.25
5.19
4.02
2.94
2.10
1.59
1.34
1.17
0.81
0.09
-1.07
-2.49
-3.98
-5.27
-6.35
-7.39
-8.66
-10.46
-12.87
-15.80
-19.01
-22.25
-25.23
-27.74
-29.50
-30.19
-29.55
-27.40
-23.83
-19.17
-13.93
-8.60
-3.63
0.72
4.28
6.92
8.58
9.27
9.17
8.53
7.71
7.00
6.52
6.20
5.84
5.29
4.52
3.66
2.83
2.05
1.22
0.12
-1.42
-3.40
-5.69
-8.05
-10.37
-12.68
-15.15
-17.89
-20.94
-24.13
-27.19
-29.74
-31.39
-31.76
-30.54
-27.57
-22.94
-16.99
-10.25
-3.33
3.22
9.00
13.76
17.39
19.86
21.27
21.84
21.82
21.51
21.10
20.68
20.26
19.79
19.24
18.57
17.76
16.85
15.90
14.91
13.84
12.51
10.72
8.28
5.23
1.73
-1.83
-5.17
-8.17
-10.99
-13.98
-17.48
-21.66
-26.46
-31.59
-36.53
-40.64
-43.20
-43.49
-41.05
-35.85
-28.38
-19.53
-10.42
-2.01
5.05
10.51
14.47
17.12
18.69
19.37
19.37
18.91
18.23
17.53
16.91
16.41
15.98
15.62
15.30
15.04
14.80
14.48
13.90
12.92
11.46
9.52
7.22
4.64
1.80
-1.41
-5.10
-9.35
-14.13
-19.25
-24.45
-29.34
-33.53
-36.54
-37.91
-37.23
-34.28
-29.15
-22.25
-14.31
-6.17
1.36
7.70
12.61
16.02
18.08
18.96
18.88
18.06
16.78
15.32
13.99
13.00
12.43
12.24
12.24
12.19
11.86
11.09
9.80
8.05
5.96
3.72
1.46
-0.80
-3.19
-5.89
-9.08
-12.80
-16.91
-21.16
-25.20
-28.67
-31.18
-32.33
-31.69
-28.94
-24.01
-17.19
-9.16
-0.85
6.85
13.24
18.07
21.41
23.58
24.87
25.45
25.37
24.63
23.30
21.61
19.87
18.38
17.33
16.66
16.17
15.54
14.55
13.15
11.44
9.57
7.63
5.60
3.31
0.57
-2.74
-6.59
-10.84
-15.36
-20.08
-25.03
-30.31
-36.03
-42.15
-48.46
-54.45
-59.30
-61.99
-61.55
-57.31
-49.24
-38.05
-24.99
-11.61
0.78
11.25
19.49
25.60
29.90
32.75
34.42
35.17
35.20
34.82
34.38
34.16
34.29
34.74
35.24
35.50
35.30
34.57
33.39
31.85
30.01
27.87
25.43
22.77
20.00
17.18
14.27
11.14
7.62
3.66
-0.63
-5.02
-9.27
-13.26
-17.04
-20.81
-24.84
-29.34
-34.41
-39.95
-45.59
-50.67
-54.32
-55.57
-53.65
-48.21
-39.45
-28.11
-15.35
-2.49
9.35
19.37
27.18
32.77
36.35
38.24
38.80
38.42
37.51
36.51
35.74
35.43
35.56
35.96
36.34
36.45
36.14
35.42
34.40
33.18
31.86
30.47
28.98
27.32
25.36
22.95
19.95
16.23
11.85
7.03
2.10
-2.59
-6.79
-10.51
-13.93
-17.31
-20.89
-24.75
-28.85
-33.14
-37.51
-41.81
-45.66
-48.43
-49.28
-47.47
-42.64
-34.97
-25.34
-14.91
-4.87
3.93
11.04
16.39
20.10
22.33
23.23
22.99
21.93
20.47
19.07
18.10
17.70
17.83
18.26
18.80
19.27
19.60
19.72
19.57
19.02
17.98
16.41
14.41
12.16
9.82
7.53
5.29
3.00
0.52
-2.30
-5.57
-9.34
-13.53
-17.97
-22.35
-26.22
-29.05
-30.30
-29.57
-26.69
-21.82
-15.42
-8.21
-0.97
5.60
10.98
14.95
17.57
18.98
19.35
18.89
17.80
16.39
15.05
14.12
13.75
13.80
13.87
13.48
12.35
10.60
8.65
7.01
5.99
5.46
5.01
4.10
2.35
-0.30
-3.65
-7.35
-11.09
-14.69
-18.16
-21.60
-25.18
-29.03
-33.22
-37.60
-41.82
-45.29
-47.28
-47.15
-44.44
-39.08
-31.48
-22.35
-12.61
-3.19
5.21
12.16
17.55
21.48
24.15
25.73
26.37
26.19
25.39
24.25
23.02
21.92
20.98
20.13
19.22
18.22
17.18
16.30
15.68
15.29
14.89
14.13
12.71
10.46
7.47
3.98
0.29
-3.28
-6.54
-9.39
-11.96
-14.49
-17.31
-20.68
-24.65
-28.93
-32.98
-36.05
-37.47
-36.83
-34.03
-29.34
-23.21
-16.20
-8.86
-1.73
4.75
10.23
14.48
17.54
19.60
20.93
21.77
22.21
22.21
21.73
20.85
19.77
18.81
18.22
18.03
18.10
18.19
18.02
17.45
16.41
14.91
13.05
10.94
8.73
6.59
4.58
2.66
0.67
-1.59
-4.21
-7.20
-10.51
-14.07
-17.73
-21.28
-24.28
-26.15
-26.28
-24.33
-20.30
-14.66
-8.12
-1.46
4.68
9.85
13.83
16.51
17.91
18.18
17.59
16.48
15.21
14.06
13.18
12.55
12.06
11.54
10.88
9.99
8.88
7.59
6.16
4.65
3.12
1.58
0.02
-1.64
-3.54
-5.81
-8.55
-11.74
-15.26
-18.93
-22.60
-26.15
-29.42
-32.13
-33.84
-34.09
-32.51
-29.05
-24.03
-18.03
-11.80
-5.97
-1.02
2.82
5.54
7.25
8.18
8.53
8.49
8.16
7.56
6.69
5.62
4.51
3.57
3.03
2.92
3.08
3.10
2.61
1.32
-0.68
-3.02
-5.18
-6.76
-7.68
-8.30
-9.25
-11.15
-14.30
-18.51
-23.10
-27.08
-29.39
-29.34
-26.81
-22.33
-16.89
-11.69
-7.57
-4.75
-2.82
-0.90
1.82
5.70
10.34
14.54
16.42
13.95
5.70
-8.35
-26.09
-43.38
-54.93
-55.98
-44.08
-20.16
11.60
45.12
74.22
94.28
103.06
100.65
88.91
70.73
49.43
28.29
10.12
-3.14
-10.71
-13.08
-11.76
-8.76
-6.07
-5.10
-6.30
-9.19
-12.59
-15.09
-15.65
-13.96
-10.54
-6.48
-2.90
-0.54
0.43
0.32
-0.33
-1.12
-1.79
-2.29
-2.60
-2.70
-2.58
-2.28
-1.94
-1.77
-1.95
-2.47
-3.16
-3.73
-4.04
-4.12
-4.26
-4.81
-6.04
-8.04
-10.67
-13.72
-16.99
-20.34
-23.74
-27.19
-30.63
-34.01
-37.10
-39.58
-40.98
-40.82
-38.73
-34.64
-28.83
-21.91
-14.59
-7.50
-1.00
4.74
9.68
13.75
16.82
18.81
19.79
19.94
19.54
18.81
17.87
16.75
15.55
14.45
13.68
13.40
13.54
13.83
13.89
13.44
12.47
11.13
9.64
8.09
6.38
4.32
1.73
-1.47
-5.24
-9.43
-13.88
-18.32
-22.39
-25.60
-27.45
-27.44
-25.35
-21.22
-15.43
-8.61
-1.50
5.17
10.86
15.26
18.35
20.29
21.33
21.67
21.45
20.77
19.75
18.58
17.48
16.61
16.02
15.61
15.21
14.58
13.54
12.01
9.95
7.48
4.73
1.90
-0.88
-3.60
-6.36
-9.38
-12.84
-16.80
-21.10
-25.41
-29.26
-32.20
-33.78
-33.69
-31.73
-27.90
-22.49
-16.01
-9.18
-2.70
2.93
7.48
10.91
13.32
14.76
15.26
14.90
13.85
12.46
11.11
10.05
9.41
9.06
8.80
8.45
7.95
7.31
6.59
5.78
4.82
3.62
2.15
0.41
-1.56
-3.78
-6.41
-9.59
-13.34
-17.45
-21.41
-24.48
-25.91
-25.22
-22.31
-17.57
-11.63
-5.25
0.93
6.46
11.05
14.54
16.80
17.82
17.69
16.70
15.26
13.81
12.74
12.19
12.15
12.39
12.68
12.77
12.51
11.85
10.79
9.46
7.94
6.26
4.43
2.36
-0.01
-2.67
-5.57
-8.57
-11.60
-14.66
-17.86
-21.40
-25.43
-30.02
-35.00
-40.06
-44.70
-48.32
-50.32
-50.15
-47.52
-42.42
-35.15
-26.37
-16.86
-7.46
1.15
8.50
14.33
18.68
21.66
23.50
24.41
24.62
24.33
23.79
23.23
22.83
22.65
22.60
22.52
22.19
21.51
20.44
19.05
17.42
15.65
13.77
11.79
9.72
7.56
5.32
2.96
0.42
-2.41
-5.64
-9.30
-13.30
-17.31
-20.83
-23.24
-23.98
-22.74
-19.56
-14.70
-8.61
-1.80
5.22
11.96
17.95
22.80
26.31
28.49
29.56
29.83
29.63
29.20
28.70
28.23
27.79
27.40
26.94
26.28
25.29
23.86
22.05
19.99
17.85
15.77
13.79
11.83
9.75
7.42
4.77
1.82
-1.33
-4.58
-7.86
-11.15
-14.48
-17.90
-21.39
-24.92
-28.36
-31.46
-33.80
-34.87
-34.18
-31.45
-26.76
-20.56
-13.64
-6.84
-0.86
3.88
7.28
9.48
10.72
11.25
11.29
11.04
10.70
10.45
10.42
10.65
11.04
11.43
11.64
11.57
11.24
10.72
10.03
9.17
8.07
6.69
5.08
3.34
1.62
-0.06
-1.71
-3.44
-5.38
-7.65
-10.24
-13.02
-15.67
-17.71
-18.61
-17.96
-15.62
-11.79
-6.96
-1.76
3.27
7.72
11.37
14.15
16.01
16.93
16.97
16.29
15.18
14.01
13.09
12.53
12.23
11.89
11.12
9.73
7.74
5.45
3.26
1.44
0.07
-1.00
-2.06
-3.37
-5.04
-7.09
-9.47
-12.09
-14.93
-18.00
-21.30
-24.83
-28.58
-32.44
-36.25
-39.73
-42.45
-43.94
-43.77
-41.66
-37.65
-32.05
-25.42
-18.44
-11.69
-5.52
-0.08
4.63
8.66
12.01
14.57
16.27
17.07
17.05
16.46
15.61
14.79
14.22
14.00
14.06
14.25
14.36
14.20
13.70
12.85
11.75
10.49
9.14
7.71
6.16
4.41
2.33
-0.17
-3.13
-6.49
-10.05
-13.51
-16.48
-18.59
-19.50
-18.94
-16.76
-13.03
-8.02
-2.26
3.58
8.86
13.08
16.05
17.85
18.75
19.10
19.20
19.21
19.18
19.04
18.71
18.15
17.35
16.35
15.20
13.90
12.49
10.99
9.46
7.98
6.60
5.29
3.95
2.41
0.54
-1.70
-4.30
-7.21
-10.37
-13.75
-17.34
-21.02
-24.58
-27.60
-29.60
-30.13
-28.96
-26.20
-22.20
-17.47
-12.39
-7.16
-1.87
3.40
8.40
12.69
15.76
17.31
17.37
16.39
15.10
14.22
14.20
15.05
16.29
17.20
17.08
15.63
13.12
10.31
8.20
7.63
8.90
11.60
14.55
15.97
13.88
6.67
-6.07
-22.98
-40.61
-54.13
-58.78
-51.55
-32.44
-4.61
26.63
55.57
77.62
90.27
93.07
87.11
74.45
57.71
39.81
23.73
11.98
5.95
5.51
9.06
14.16
18.35
20.00
18.68
15.03
10.33
5.85
2.34
-0.09
-1.87
-3.64
-5.89
-8.77
-12.08
-15.47
-18.59
-21.25
-23.44
-25.27
-26.98
-28.80
-30.95
-33.56
-36.62
-39.99
-43.33
-46.21
-48.23
-49.05
-48.53
-46.64
-43.47
-39.21
-34.09
-28.46
-22.72
-17.25
-12.30
-8.00
-4.32
-1.17
1.48
3.56
4.94
5.54
5.50
5.15
4.90
5.04
5.57
6.24
6.62
6.43
5.62
4.40
3.03
1.70
0.42
-0.90
-2.37
-4.01
-5.80
-7.76
-9.99
-12.65
-15.80
-19.26
-22.66
-25.48
-27.24
-27.57
-26.30
-23.35
-18.89
-13.24
-6.94
-0.66
4.89
9.26
12.30
14.18
15.22
15.78
16.02
16.00
15.66
15.04
14.25
13.43
12.72
12.16
11.67
11.12
10.33
9.16
7.52
5.42
2.96
0.31
-2.36
-4.99
-7.65
-10.49
-13.69
-17.27
-21.07
-24.76
-27.94
-30.26
-31.46
-31.34
-29.77
-26.66
-22.09
-16.32
-9.85
-3.35
2.54
7.39
11.01
13.52
15.14
16.14
16.63
16.64
16.13
15.13
13.79
12.32
10.97
9.86
8.99
8.24
7.49
6.67
5.76
4.81
3.85
2.81
1.56
-0.09
-2.34
-5.30
-8.91
-12.95
-17.00
-20.58
-23.16
-24.38
-24.04
-22.10
-18.69
-14.09
-8.68
-2.88
2.86
8.16
12.72
16.39
19.08
20.78
21.50
21.31
20.35
18.88
17.18
15.58
14.34
13.58
13.29
13.31
13.38
13.24
12.66
11.52
9.87
7.88
5.76
3.67
1.68
-0.25
-2.26
-4.54
-7.27
-10.55
-14.42
-18.83
-23.56
-28.22
-32.22
-34.83
-35.44
-33.67
-29.59
-23.67
-16.64
-9.27
-2.15
4.36
10.07
14.86
18.62
21.29
22.89
23.57
23.60
23.26
22.74
22.17
21.64
21.21
20.96
20.97
21.23
21.61
21.87
21.66
20.75
19.02
16.52
13.47
10.17
6.81
3.49
0.14
-3.38
-7.18
-11.30
-15.63
-19.96
-23.96
-27.26
-29.40
-30.01
-28.86
-25.97
-21.61
-16.20
-10.25
-4.19
1.60
6.84
11.30
14.75
17.06
18.21
18.31
17.66
16.64
15.67
15.10
15.12
15.67
16.48
17.06
16.96
15.93
14.00
11.55
9.09
7.11
5.74
4.79
3.79
2.30
0.11
-2.65
-5.68
-8.67
-11.47
-14.08
-16.46
-18.46
-19.70
-19.72
-18.24
-15.25
-11.11
-6.38
-1.65
2.67
6.32
9.23
11.39
12.90
13.87
14.51
14.96
15.30
15.46
15.30
14.72
13.72
12.46
11.14
9.96
8.95
8.04
7.09
5.99
4.73
3.35
1.88
0.30
-1.53
-3.77
-6.52
-9.66
-12.89
-15.72
-17.67
-18.37
-17.65
-15.59
-12.43
-8.50
-4.14
0.27
4.40
8.00
10.90
13.08
14.59
15.51
15.91
15.88
15.50
14.83
13.95
12.89
11.68
10.37
9.06
7.90
6.96
6.18
5.31
4.11
2.41
0.32
-1.87
-3.89
-5.64
-7.31
-9.25
-11.80
-15.06
-18.87
-22.82
-26.49
-29.53
-31.69
-32.80
-32.67
-31.12
-28.08
-23.69
-18.34
-12.65
-7.29
-2.72
0.93
3.82
6.32
8.77
11.25
13.58
15.43
16.47
16.60
15.98
14.98
14.02
13.41
13.17
13.19
13.18
12.88
12.17
11.04
9.61
8.03
6.41
4.74
2.94
0.87
-1.57
-4.43
-7.71
-11.38
-15.26
-19.04
-22.28
-24.45
-25.14
-24.12
-21.48
-17.58
-12.97
-8.15
-3.52
0.71
4.46
7.73
10.54
12.85
14.56
15.59
15.93
15.68
15.10
14.50
14.10
13.96
13.94
13.86
13.53
12.90
12.04
11.07
10.08
9.04
7.84
6.29
4.22
1.54
-1.68
-5.23
-8.77
-12.04
-14.91
-17.44
-19.76
-21.91
-23.66
-24.57
-24.08
-21.85
-17.88
-12.60
-6.67
-0.79
4.51
8.92
12.35
14.81
16.39
17.15
17.22
16.77
15.99
15.13
14.40
13.89
13.59
13.34
12.99
12.38
11.48
10.31
8.98
7.54
6.04
4.43
2.70
0.86
-1.07
-3.07
-5.15
-7.29
-9.50
-11.65
-13.57
-14.96
-15.51
-14.95
-13.14
-10.13
-6.18
-1.72
2.74
6.69
9.79
11.85
12.86
12.99
12.48
11.58
10.52
9.50
8.62
7.93
7.40
6.96
6.46
5.80
4.87
3.63
2.14
0.49
-1.21
-2.92
-4.72
-6.75
-9.11
-11.85
-14.90
-18.11
-21.24
-24.02
-26.14
-27.21
-26.88
-24.89
-21.27
-16.35
-10.71
-5.04
0.13
4.51
8.11
11.07
13.46
15.23
16.29
16.61
16.31
15.71
15.17
14.91
14.92
15.01
14.92
14.50
13.68
12.51
11.04
9.29
7.30
5.11
2.86
0.61
-1.61
-3.93
-6.56
-9.66
-13.28
-17.29
-21.41
-25.25
-28.34
-30.26
-30.70
-29.49
-26.71
-22.62
-17.63
-12.19
-6.72
-1.56
3.06
6.96
10.10
12.52
14.40
15.90
17.14
18.16
18.90
19.25
19.15
18.63
17.79
16.73
15.59
14.45
13.39
12.43
11.54
10.69
9.83
8.87
7.77
6.43
4.73
2.55
-0.15
-3.34
-6.83
-10.35
-13.64
-16.50
-18.76
-20.32
-21.00
-20.62
-19.00
-16.08
-11.97
-7.00
-1.62
3.66
8.36
12.12
14.78
16.30
16.79
16.49
15.69
14.69
13.74
12.99
12.47
12.14
11.87
11.60
11.27
10.88
10.44
9.91
9.26
8.45
7.47
6.30
4.95
3.43
1.76
-0.02
-1.89
-3.84
-5.90
-8.07
-10.30
-12.44
-14.22
-15.33
-15.49
-14.58
-12.61
-9.80
-6.44
-2.93
0.36
3.16
5.35
6.98
8.26
9.39
10.49
11.47
12.12
12.22
11.66
10.56
9.22
7.96
7.01
6.42
6.04
5.64
5.06
4.24
3.28
2.37
1.64
1.08
0.53
-0.24
-1.45
-3.14
-5.07
-6.88
-8.16
-8.65
-8.36
-7.49
-6.31
-4.95
-3.37
-1.36
1.23
4.35
7.64
10.55
12.53
13.21
12.54
10.83
8.61
6.54
5.13
4.59
4.66
4.69
3.73
0.83
-4.71
-13.00
-23.28
-33.78
-41.93
-44.97
-40.78
-28.85
-10.68
10.53
30.79
46.51
55.49
57.26
52.71
43.55
31.72
19.09
7.39
-1.94
-7.92
-10.25
-9.43
-6.53
-2.82
0.68
3.42
5.33
6.63
7.56
8.24
8.67
8.83
8.71
8.37
7.88
7.31
6.67
6.04
5.47
5.04
4.71
4.35
3.71
2.53
0.67
-1.78
-4.49
-7.05
-9.15
-10.66
-11.67
-12.47
-13.33
-14.45
-15.91
-17.65
-19.48
-21.20
-22.58
-23.42
-23.51
-22.70
-20.91
-18.17
-14.63
-10.60
-6.48
-2.64
0.61
3.12
4.87
5.95
6.45
6.47
6.07
5.36
4.50
3.75
3.31
3.29
3.58
3.91
3.97
3.54
2.65
1.47
0.24
-0.88
-1.90
-2.91
-3.99
-5.19
-6.46
-7.80
-9.27
-10.98
-12.97
-15.11
-17.06
-18.40
-18.81
-18.19
-16.69
-14.58
-12.09
-9.32
-6.27
-2.95
0.48
3.76
6.49
8.39
9.34
9.42
8.88
8.05
7.23
6.65
6.36
6.31
6.28
6.05
5.46
4.49
3.25
1.93
0.72
-0.30
-1.15
-1.94
-2.74
-3.60
-4.57
-5.74
-7.20
-9.02
-11.16
-13.38
-15.30
-16.51
-16.75
-15.91
-14.13
-11.68
-8.82
-5.82
-2.91
-0.26
1.98
3.71
4.85
5.36
5.25
4.57
3.49
2.25
1.17
0.50
0.36
0.63
1.04
1.28
1.17
0.71
0.06
-0.59
-1.13
-1.63
-2.24
-3.12
-4.30
-5.76
-7.39
-9.11
-10.92
-12.75
-14.44
-15.67
-16.02
-15.18
-13.14
-10.13
-6.63
-3.15
-0.08
2.39
4.22
5.49
6.27
6.66
6.73
6.57
6.24
5.75
5.16
4.50
3.87
3.39
3.14
3.08
3.03
2.76
2.11
1.07
-0.21
-1.48
-2.56
-3.46
-4.35
-5.49
-7.01
-8.91
-10.99
-13.00
-14.75
-16.13
-17.04
-17.37
-16.91
-15.42
-12.76
-9.02
-4.61
-0.14
3.72
6.52
8.13
8.76
8.83
8.70
8.54
8.28
7.76
6.86
5.70
4.55
3.74
3.44
3.59
3.92
4.06
3.81
3.17
2.33
1.57
1.05
0.75
0.43
-0.17
-1.32
-3.06
-5.34
-7.96
-10.68
-13.32
-15.67
-17.57
-18.81
-19.17
-18.44
-16.48
-13.37
-9.36
-4.90
-0.44
3.53
6.72
9.02
10.48
11.28
11.64
11.79
11.86
11.94
12.01
12.00
11.82
11.46
10.94
10.28
9.52
8.66
7.70
6.63
5.49
4.32
3.16
2.03
0.90
-0.27
-1.54
-2.96
-4.57
-6.42
-8.48
-10.73
-13.04
-15.29
-17.32
-18.90
-19.76
-19.67
-18.43
-16.04
-12.68
-8.74
-4.66
-0.85
2.39
4.95
6.81
8.01
8.63
8.76
8.50
8.00
7.40
6.87
6.56
6.53
6.79
7.23
7.66
7.86
7.70
7.13
6.24
5.17
4.05
2.94
1.82
0.65
-0.61
-1.96
-3.42
-4.99
-6.68
-8.44
-10.14
-11.59
-12.59
-12.92
-12.44
-11.12
-8.99
-6.17
-2.89
0.57
3.88
6.67
8.69
9.79
10.00
9.54
8.72
7.87
7.27
7.00
7.01
7.13
7.15
6.95
6.54
6.02
5.49
4.98
4.41
3.68
2.72
1.55
0.23
-1.10
-2.37
-3.59
-4.82
-6.16
-7.66
-9.31
-11.06
-12.85
-14.59
-16.12
-17.20
-17.49
-16.66
-14.54
-11.20
-6.97
-2.38
2.03
5.84
8.78
10.78
11.86
12.15
11.78
10.99
10.03
9.17
8.66
8.63
9.04
9.70
10.29
10.49
10.18
9.37
8.25
7.04
5.86
4.69
3.45
2.09
0.62
-0.88
-2.40
-4.03
-5.89
-8.02
-10.29
-12.39
-13.94
-14.62
-14.26
-12.82
-10.35
-6.97
-2.90
1.51
5.79
9.45
12.13
13.75
14.40
14.31
13.71
12.72
11.42
9.88
8.21
6.59
5.21
4.19
3.58
3.33
3.32
3.37
3.33
3.07
2.55
1.81
0.99
0.21
-0.52
-1.30
-2.29
-3.67
-5.48
-7.63
-9.95
-12.17
-14.06
-15.39
-15.93
-15.47
-13.90
-11.29
-7.86
-4.02
-0.25
3.01
5.45
6.94
7.55
7.49
7.04
6.46
5.92
5.46
5.05
4.62
4.19
3.80
3.57
3.59
3.82
4.15
4.39
4.34
3.86
2.97
1.79
0.48
-0.83
-2.10
-3.35
-4.66
-6.12
-7.79
-9.63
-11.49
-13.08
-14.04
-14.01
-12.83
-10.58
-7.61
-4.42
-1.49
0.88
2.62
3.85
4.75
5.41
5.87
6.05
5.94
5.55
5.00
4.41
3.85
3.37
2.92
2.46
1.97
1.45
0.97
0.55
0.24
-0.02
-0.30
-0.75
-1.49
-2.57
-3.97
-5.55
-7.14
-8.51
-9.54
-10.19
-10.47
-10.40
-9.93
-9.05
-7.72
-5.98
-3.93
-1.77
0.29
2.11
3.59
4.72
5.49
5.88
5.90
5.55
4.86
3.98
3.09
2.33
1.82
1.50
1.21
0.76
0.01
-1.01
-2.13
-3.12
-3.84
-4.30
-4.63
-4.99
-5.54
-6.33
-7.36
-8.54
-9.78
-10.92
-11.75
-12.05
-11.67
-10.54
-8.71
-6.35
-3.64
-0.79
2.03
4.62
6.84
8.55
9.69
10.27
10.33
9.96
9.22
8.22
7.03
5.79
4.60
3.61
2.90
2.51
2.38
2.36
2.27
1.96
1.36
0.48
-0.57
-1.67
-2.72
-3.70
-4.71
-5.84
-7.15
-8.60
-10.08
-11.38
-12.26
-12.51
-12.01
-10.68
-8.52
-5.59
-2.04
1.84
5.70
9.10
11.69
13.31
13.98
13.89
13.33
12.47
11.39
10.10
8.61
7.03
5.56
4.37
3.52
2.91
2.36
1.68
0.83
-0.12
-1.04
-1.84
-2.58
-3.41
-4.51
-6.00
-7.85
-9.90
-11.93
-13.71
-15.01
-15.69
-15.67
-14.94
-13.45
-11.25
-8.41
-5.11
-1.70
1.43
3.90
5.50
6.16
6.05
5.41
4.55
3.69
3.00
2.61
2.57
2.90
3.51
4.28
5.06
5.71
6.11
6.20
5.98
5.41
4.51
3.25
1.64
-0.35
-2.67
-5.24
-7.94
-10.53
-12.82
-14.61
-15.78
-16.27
-16.07
-15.15
-13.48
-11.03
-7.93
-4.43
-0.89
2.26
4.67
6.21
6.90
6.95
6.61
6.09
5.53
4.94
4.31
3.65
3.02
2.54
2.34
2.42
2.66
2.85
2.73
2.15
1.16
-0.05
-1.26
-2.42
-3.66
-5.26
-7.45
-10.26
-13.41
-16.48
-19.03
-20.72
-21.37
-20.89
-19.23
-16.40
-12.48
-7.76
-2.75
1.95
5.81
8.60
10.38
11.40
11.97
12.29
12.40
12.25
11.81
11.11
10.31
9.57
9.01
8.64
8.36
8.07
7.68
7.14
6.41
5.49
4.34
2.90
1.18
-0.80
-2.98
-5.30
-7.75
-10.34
-13.08
-15.83
-18.30
-20.02
-20.55
-19.55
-16.96
-13.00
-8.12
-2.86
2.21
6.65
10.16
12.67
14.26
15.15
15.61
15.78
15.71
15.31
14.54
13.45
12.19
11.01
10.06
9.38
8.88
8.44
7.97
7.44
6.84
6.15
5.31
4.21
2.79
0.97
-1.21
-3.68
-6.32
-8.96
-11.46
-13.61
-15.29
-16.34
-16.61
-15.94
-14.18
-11.30
-7.45
-3.02
1.38
5.12
7.67
8.83
8.76
7.95
7.04
6.54
6.67
7.24
7.76
7.75
6.95
5.51
3.99
3.10
3.36
4.80
6.81
8.34
8.10
5.01
-1.49
-11.16
-22.72
-33.87
-41.61
-43.00
-36.13
-21.01
0.12
23.35
44.23
59.19
66.43
66.13
59.92
50.02
38.51
27.08
16.96
9.13
4.24
2.41
3.16
5.31
7.41
8.19
7.05
4.22
0.57
-2.80
-5.06
-5.94
-5.75
-5.18
-4.97
-5.58
-7.00
-8.91
-10.80
-12.25
-13.11
-13.57
-14.09
-15.15
-17.11
-19.93
-23.33
-26.76
-29.62
-31.43
-31.86
-30.76
-28.17
-24.27
-19.39
-13.95
-8.40
-3.18
1.42
5.17
7.99
9.86
10.87
11.19
11.03
10.64
10.20
9.73
9.17
8.47
7.59
6.63
5.73
5.01
4.50
4.09
3.56
2.72
1.44
-0.31
-2.42
-4.74
-7.10
-9.40
-11.66
-13.99
-16.53
-19.28
-22.03
-24.30
-25.43
-24.82
-22.19
-17.66
-11.80
-5.41
0.69
5.90
9.98
12.97
15.09
16.61
17.69
18.43
18.85
19.01
18.91
18.59
18.02
17.16
16.03
14.73
13.47
12.43
11.72
11.26
10.84
10.22
9.27
8.01
6.58
5.11
3.62
1.94
-0.20
-2.95
-6.33
-10.07
-13.78
-17.00
-19.40
-20.79
-21.10
-20.32
-18.41
-15.36
-11.29
-6.53
-1.66
2.72
6.08
8.23
9.28
9.58
9.46
9.23
9.01
8.82
8.60
8.33
8.04
7.77
7.62
7.62
7.74
7.88
7.86
7.54
6.87
5.98
5.09
4.43
4.03
3.68
2.98
1.55
-0.80
-3.88
-7.15
-9.96
-11.71
-12.14
-11.41
-9.97
-8.36
-6.94
-5.75
-4.48
-2.69
-0.11
3.18
6.65
9.50
10.98
10.70
8.79
5.92
3.06
1.15
0.84
2.23
4.74
7.16
7.76
4.77
-3.00
-15.43
-30.58
-44.78
-53.50
-52.84
-41.09
-19.55
7.66
34.92
56.87
69.94
72.98
67.01
54.48
38.31
21.37
6.12
-5.52
-12.32
-13.96
-11.15
-5.39
1.37
7.32
11.20
12.58
11.85
9.86
7.66
6.01
5.26
5.23
5.45
5.40
4.74
3.48
1.94
0.57
-0.23
-0.29
0.26
1.02
1.49
1.24
0.14
-1.63
-3.64
-5.41
-6.65
-7.35
-7.82
-8.45
-9.58
-11.35
-13.62
-16.09
-18.35
-20.05
-20.94
-20.86
-19.79
-17.76
-14.89
-11.38
-7.54
-3.73
-0.30
2.46
4.38
5.45
5.82
5.74
5.50
5.37
5.48
5.78
6.13
6.35
6.28
5.86
5.15
4.25
3.27
2.35
1.56
0.99
0.69
0.60
0.57
0.35
-0.32
-1.59
-3.48
-5.77
-8.17
-10.34
-12.02
-13.05
-13.37
-12.96
-11.80
-9.92
-7.43
-4.50
-1.36
1.71
4.51
6.84
8.56
9.55
9.79
9.31
8.30
6.98
5.60
4.34
3.24
2.29
1.48
0.78
0.18
-0.33
-0.84
-1.42
-2.06
-2.69
-3.23
-3.64
-4.04
-4.61
-5.54
-6.79
-8.17
-9.36
-10.16
-10.57
-10.72
-10.76
-10.65
-10.14
-8.94
-6.87
-4.08
-1.03
1.75
3.87
5.24
6.04
6.51
6.82
6.92
6.69
6.03
5.04
4.03
3.29
3.02
3.12
3.29
3.16
2.48
1.28
-0.19
-1.57
-2.60
-3.22
-3.60
-4.00
-4.65
-5.65
-7.00
-8.59
-10.24
-11.73
-12.82
-13.27
-12.91
-11.67
-9.64
-7.02
-4.10
-1.13
1.64
3.99
5.76
6.81
7.07
6.65
5.78
4.77
3.91
3.35
3.06
2.84
2.46
1.71
0.60
-0.71
-1.99
-3.02
-3.70
-4.13
-4.42
-4.74
-5.23
-5.99
-7.14
-8.75
-10.84
-13.26
-15.73
-17.89
-19.34
-19.82
-19.19
-17.46
-14.78
-11.35
-7.46
-3.45
0.36
3.73
6.56
8.90
10.81
12.34
13.43
13.98
13.92
13.32
12.34
11.24
10.19
9.27
8.38
7.41
6.25
4.91
3.48
2.11
0.94
0.04
-0.65
-1.28
-2.08
-3.27
-4.98
-7.18
-9.65
-12.08
-14.10
-15.38
-15.66
-14.84
-12.94
-10.08
-6.50
-2.49
1.58
5.35
8.41
10.50
11.50
11.56
10.95
10.06
9.22
8.57
8.06
7.52
6.83
5.94
4.95
4.04
3.31
2.81
2.45
2.05
1.45
0.54
-0.69
-2.10
-3.51
-4.80
-5.94
-7.06
-8.33
-9.83
-11.47
-12.96
-13.92
-14.02
-13.08
-11.14
-8.45
-5.34
-2.16
0.77
3.26
5.19
6.58
7.51
8.14
8.59
8.90
9.02
8.88
8.39
7.58
6.56
5.50
4.51
3.58
2.62
1.57
0.44
-0.59
-1.34
-1.71
-1.83
-2.03
-2.67
-3.97
-5.82
-7.79
-9.35
-10.07
-9.84
-8.78
-7.20
-5.38
-3.46
-1.47
0.58
2.66
4.64
6.37
7.71
8.58
8.94
8.75
8.01
6.82
5.33
3.77
2.39
1.39
0.77
0.44
0.17
-0.31
-1.13
-2.31
-3.70
-5.06
-6.21
-7.17
-8.11
-9.36
-11.22
-13.82
-17.00
-20.38
-23.39
-25.52
-26.33
-25.58
-23.20
-19.33
-14.27
-8.55
-2.75
2.56
6.99
10.41
12.93
14.73
15.95
16.65
16.80
16.43
15.68
14.79
13.95
13.23
12.55
11.76
10.79
9.62
8.41
7.31
6.43
5.73
5.10
4.37
3.37
1.97
0.06
-2.38
-5.27
-8.38
-11.37
-13.77
-15.20
-15.35
-14.15
-11.76
-8.47
-4.65
-0.63
3.29
6.91
10.08
12.65
14.56
15.76
16.27
16.18
15.57
14.56
13.31
12.01
10.85
9.94
9.23
8.59
7.78
6.71
5.45
4.18
3.05
2.01
0.88
-0.65
-2.76
-5.42
-8.35
-11.23
-13.78
-15.84
-17.36
-18.21
-18.23
-17.22
-15.06
-11.85
-7.91
-3.64
0.54
4.33
7.57
10.15
12.02
13.18
13.69
13.68
13.32
12.80
12.24
11.70
11.24
10.86
10.53
10.19
9.77
9.24
8.62
7.94
7.21
6.36
5.25
3.77
1.89
-0.26
-2.46
-4.44
-5.99
-7.04
-7.58
-7.62
-7.07
-5.85
-3.83
-0.98
2.50
6.21
9.56
11.93
12.90
12.39
10.75
8.61
6.70
5.57
5.45
6.10
7.03
7.61
7.34
6.07
4.00
1.68
-0.27
-1.27
-1.14
-0.15
0.83
0.49
-2.68
-9.85
-21.20
-35.47
-49.82
-60.50
-64.01
-58.35
-43.81
-22.93
0.43
22.41
40.13
52.21
58.53
59.70
56.62
50.32
42.06
33.29
25.58
20.10
17.31
16.73
17.20
17.43
16.52
14.31
11.37
8.60
6.70
5.89
5.78
5.65
4.90
3.31
1.09
-1.26
-3.31
-4.94
-6.29
-7.65
-9.17
-10.71
-11.92
-12.40
-11.93
-10.57
-8.64
-6.46
-4.26
-2.07
0.25
2.73
5.27
7.56
9.27
10.17
10.29
9.85
9.12
8.28
7.37
6.38
5.30
4.27
3.44
2.91
2.63
2.41
2.07
1.47
0.66
-0.25
-1.14
-1.93
-2.65
-3.36
-4.26
-5.51
-7.26
-9.50
-12.06
-14.61
-16.68
-17.87
-17.90
-16.70
-14.43
-11.35
-7.78
-4.06
-0.50
2.63
5.16
7.00
8.18
8.77
8.83
8.45
7.69
6.66
5.48
4.31
3.31
2.63
2.32
2.29
2.37
2.29
1.91
1.19
0.22
-0.81
-1.70
-2.39
-2.99
-3.71
-4.75
-6.21
-8.00
-9.87
-11.47
-12.46
-12.62
-11.91
-10.43
-8.38
-5.94
-3.25
-0.42
2.41
5.03
7.16
8.53
9.03
8.74
7.92
6.88
5.84
4.86
3.89
2.87
1.85
0.94
0.19
-0.39
-0.95
-1.66
-2.58
-3.65
-4.72
-5.67
-6.51
-7.41
-8.53
-9.94
-11.54
-13.12
-14.40
-15.16
-15.23
-14.47
-12.81
-10.29
-7.10
-3.64
-0.35
2.39
4.36
5.55
6.10
6.22
6.12
5.95
5.81
5.79
5.86
5.94
5.89
5.59
5.02
4.22
3.35
2.55
1.89
1.34
0.75
-0.03
-1.08
-2.40
-3.87
-5.42
-7.02
-8.76
-10.77
-13.11
-15.65
-18.07
-19.85
-20.48
-19.62
-17.22
-13.57
-9.13
-4.47
-0.05
3.76
6.82
9.07
10.57
11.41
11.70
11.57
11.18
10.74
10.46
10.47
10.81
11.33
11.75
11.80
11.27
10.14
8.57
6.84
5.22
3.88
2.84
1.92
0.90
-0.47
-2.32
-4.64
-7.28
-9.99
-12.50
-14.53
-15.82
-16.09
-15.12
-12.86
-9.47
-5.39
-1.25
2.39
5.15
6.98
8.08
8.73
9.13
9.36
9.40
9.22
8.86
8.39
7.90
7.45
7.00
6.46
5.78
4.92
3.94
2.93
2.01
1.27
0.69
0.15
-0.57
-1.68
-3.27
-5.23
-7.28
-9.08
-10.35
-10.93
-10.83
-10.10
-8.83
-7.10
-5.00
-2.65
-0.26
2.02
4.03
5.66
6.86
7.52
7.57
6.96
5.76
4.20
2.64
1.41
0.76
0.72
1.11
1.62
1.95
1.97
1.68
1.22
0.69
0.17
-0.37
-1.00
-1.77
-2.70
-3.76
-4.91
-6.10
-7.29
-8.39
-9.26
-9.70
-9.50
-8.47
-6.57
-3.91
-0.80
2.37
5.18
7.31
8.61
9.11
8.99
8.45
7.70
6.90
6.08
5.22
4.23
3.06
1.73
0.35
-0.93
-1.96
-2.67
-3.09
-3.32
-3.46
-3.60
-3.81
-4.25
-5.00
-6.20
-7.83
-9.82
-11.99
-14.11
-15.92
-17.16
-17.54
-16.81
-14.87
-11.83
-8.06
-4.06
-0.33
2.87
5.47
7.61
9.49
11.13
12.41
13.12
13.05
12.16
10.64
8.88
7.33
6.34
5.99
6.14
6.42
6.47
6.08
5.26
4.22
3.18
2.28
1.47
0.57
-0.58
-2.07
-3.86
-5.83
-7.87
-9.92
-11.92
-13.72
-15.04
-15.50
-14.72
-12.53
-9.10
-4.94
-0.70
3.05
6.00
8.18
9.78
10.97
11.82
12.22
12.11
11.53
10.70
9.89
9.28
8.85
8.39
7.69
6.68
5.53
4.48
3.71
3.19
2.71
2.03
1.02
-0.24
-1.58
-2.89
-4.20
-5.71
-7.53
-9.62
-11.71
-13.35
-14.13
-13.86
-12.52
-10.26
-7.29
-3.83
-0.16
3.40
6.48
8.82
10.29
10.94
10.98
10.57
9.90
9.06
8.14
7.23
6.42
5.75
5.23
4.76
4.27
3.68
3.02
2.37
1.86
1.64
1.74
2.06
2.33
2.21
1.36
-0.34
-2.72
-5.42
-7.94
-9.83
-10.87
-11.02
-10.39
-9.16
-7.49
-5.47
-3.22
-0.90
1.29
3.21
4.77
6.08
7.27
8.48
9.65
10.61
11.07
10.89
10.11
8.97
7.82
6.92
6.37
6.07
5.88
5.71
5.54
5.41
5.38
5.43
5.45
5.27
4.71
3.70
2.22
0.43
-1.47
-3.27
-4.85
-6.17
-7.20
-7.91
-8.18
-7.83
-6.77
-5.05
-2.86
-0.52
1.68
3.54
4.97
5.94
6.44
6.46
6.02
5.19
4.12
2.99
1.94
1.09
0.47
0.09
-0.08
-0.13
-0.15
-0.22
-0.41
-0.70
-1.02
-1.32
-1.63
-2.07
-2.80
-3.87
-5.20
-6.54
-7.62
-8.26
-8.40
-8.19
-7.77
-7.26
-6.66
-5.87
-4.76
-3.27
-1.47
0.44
2.23
3.69
4.72
5.34
5.64
5.72
5.58
5.19
4.44
3.28
1.77
0.11
-1.46
-2.71
-3.50
-3.89
-4.05
-4.16
-4.40
-4.81
-5.35
-6.02
-6.85
-7.89
-9.12
-10.42
-11.57
-12.28
-12.40
-11.86
-10.73
-9.17
-7.30
-5.21
-2.95
-0.62
1.64
3.62
5.20
6.27
6.78
6.76
6.29
5.56
4.82
4.31
4.21
4.51
5.03
5.51
5.72
5.57
5.17
4.64
4.07
3.44
2.67
1.67
0.46
-0.89
-2.31
-3.77
-5.33
-7.07
-9.01
-11.09
-13.14
-14.95
-16.25
-16.79
-16.29
-14.60
-11.75
-8.02
-3.95
-0.10
3.07
5.35
6.82
7.62
7.92
7.77
7.23
6.39
5.47
4.70
4.21
3.89
3.51
2.86
1.89
0.80
-0.04
-0.41
-0.30
0.01
0.16
-0.15
-1.00
-2.23
-3.67
-5.18
-6.80
-8.65
-10.84
-13.36
-16.06
-18.62
-20.72
-22.04
-22.36
-21.52
-19.48
-16.23
-11.93
-6.80
-1.22
4.40
9.67
14.22
17.74
20.02
20.98
20.72
19.64
18.34
17.50
17.61
18.71
20.22
21.09
20.07
16.15
8.95
-0.97
-12.05
-21.94
-28.07
-28.40
-22.24
-10.63
3.82
17.65
27.68
31.92
30.07
23.31
13.68
3.34
-6.05
-13.51
-18.68
-21.59
-22.58
-22.05
-20.31
-17.42
-13.15
-7.12
0.91
10.63
21.09
30.73
37.87
41.18
40.16
35.24
27.58
18.71
10.04
2.66
-2.79
-6.07
-7.29
-6.78
-5.06
-2.72
-0.33
1.65
3.00
3.72
3.99
4.06
4.20
4.48
4.85
5.12
5.04
4.40
3.08
1.19
-1.08
-3.34
-5.19
-6.42
-6.96
-6.94
-6.54
-5.86
-4.86
-3.49
-1.75
0.21
2.08
3.60
4.60
5.10
5.21
5.00
4.48
3.60
2.37
0.96
-0.33
-1.21
-1.53
-1.35
-0.96
-0.65
-0.63
-0.91
-1.34
-1.62
-1.62
-1.30
-0.85
-0.55
-0.65
-1.33
-2.60
-4.29
-6.15
-7.89
-9.22
-9.91
-9.81
-8.84
-7.12
-4.89
-2.51
-0.30
1.53
2.96
4.05
4.88
5.48
5.74
5.55
4.86
3.79
2.56
1.48
0.73
0.32
0.12
-0.07
-0.44
-1.06
-1.91
-2.82
-3.61
-4.14
-4.43
-4.66
-5.07
-5.85
-7.05
-8.62
-10.38
-12.22
-14.06
-15.82
-17.38
-18.51
-18.95
-18.54
-17.29
-15.36
-12.98
-10.32
-7.43
-4.29
-0.94
2.44
5.56
8.04
9.65
10.37
10.38
9.99
9.47
8.95
8.44
7.90
7.29
6.65
6.04
5.54
5.10
4.59
3.93
3.06
2.05
0.99
-0.09
-1.22
-2.50
-3.99
-5.67
-7.41
-9.08
-10.59
-11.90
-13.10
-14.20
-15.20
-15.95
-16.23
-15.82
-14.55
-12.37
-9.39
-5.82
-2.01
1.68
4.90
7.41
9.11
10.12
10.59
10.80
10.86
10.82
10.60
10.13
9.43
8.63
7.95
7.57
7.56
7.78
7.96
7.83
7.19
6.02
4.45
2.70
1.01
-0.48
-1.80
-3.12
-4.62
-6.48
-8.67
-11.00
-13.13
-14.74
-15.60
-15.64
-14.89
-13.43
-11.35
-8.72
-5.69
-2.48
0.64
3.41
5.68
7.44
8.71
9.46
9.58
8.99
7.71
5.96
4.15
2.70
1.88
1.65
1.74
1.82
1.61
1.06
0.31
-0.42
-0.98
-1.31
-1.50
-1.72
-2.13
-2.84
-3.86
-5.12
-6.47
-7.73
-8.80
-9.61
-10.10
-10.21
-9.84
-8.86
-7.16
-4.76
-1.87
1.11
3.73
5.66
6.72
6.99
6.63
5.81
4.64
3.18
1.58
0.06
-1.15
-1.87
-2.13
-2.15
-2.17
-2.40
-2.84
-3.37
-3.79
-4.00
-4.08
-4.21
-4.62
-5.48
-6.79
-8.43
-10.14
-11.64
-12.68
-13.09
-12.78
-11.73
-9.97
-7.54
-4.60
-1.43
1.54
3.84
5.11
5.26
4.43
2.94
1.17
-0.59
-2.13
-3.28
-3.92
-3.95
-3.38
-2.43
-1.46
-0.86
-0.88
-1.52
-2.56
-3.71
-4.72
-5.58
-6.47
-7.67
-9.39
-11.68
-14.30
-16.86
-18.87
-19.93
-19.82
-18.51
-16.18
-13.13
-9.70
-6.14
-2.61
0.81
4.09
7.12
9.71
11.63
12.74
13.07
12.84
12.35
11.85
11.41
10.98
10.46
9.79
9.03
8.25
7.48
6.65
5.65
4.46
3.19
2.04
1.12
0.40
-0.39
-1.66
-3.71
-6.59
-10.02
-13.53
-16.63
-19.02
-20.56
-21.23
-20.94
-19.51
-16.83
-12.94
-8.15
-3.05
1.80
5.96
9.29
11.83
13.68
14.92
15.50
15.42
14.79
13.87
12.99
12.42
12.24
12.32
12.40
12.18
11.49
10.31
8.82
7.20
5.62
4.12
2.58
0.83
-1.32
-3.94
-6.93
-10.07
-13.07
-15.60
-17.45
-18.49
-18.67
-17.97
-16.37
-13.91
-10.70
-7.02
-3.27
0.18
3.03
5.21
6.80
7.92
8.63
8.88
8.67
8.03
7.13
6.18
5.34
4.65
4.00
3.28
2.42
1.46
0.51
-0.40
-1.37
-2.55
-4.11
-6.12
-8.49
-11.00
-13.41
-15.47
-17.05
-18.11
-18.67
-18.77
-18.37
-17.32
-15.41
-12.48
-8.49
-3.68
1.46
6.34
10.45
13.49
15.40
16.30
16.40
15.91
15.02
13.97
12.99
12.23
11.75
11.40
10.99
10.28
9.20
7.76
6.09
4.34
2.54
0.70
-1.28
-3.47
-5.97
-8.86
-12.21
-15.98
-20.02
-24.07
-27.72
-30.54
-32.11
-32.09
-30.24
-26.56
-21.24
-14.75
-7.77
-1.02
4.87
9.56
13.07
15.64
17.63
19.28
20.65
21.60
21.98
21.76
21.11
20.30
19.58
19.00
18.44
17.66
16.49
14.95
13.22
11.47
9.75
7.93
5.82
3.30
0.49
-2.37
-4.98
-7.27
-9.43
-11.82
-14.74
-18.14
-21.50
-23.98
-24.69
-23.10
-19.24
-13.70
-7.35
-1.05
4.59
9.29
12.97
15.67
17.46
18.43
18.76
18.68
18.38
17.94
17.34
16.47
15.27
13.84
12.41
11.20
10.29
9.56
8.82
7.86
6.65
5.33
4.09
3.05
2.18
1.34
0.36
-0.85
-2.31
-3.92
-5.61
-7.30
-8.95
-10.45
-11.63
-12.20
-11.84
-10.32
-7.56
-3.73
0.79
5.49
9.90
13.70
16.78
19.16
20.90
22.01
22.50
22.39
21.75
20.81
19.79
18.83
18.00
17.17
16.19
14.95
13.48
11.90
10.41
9.10
8.02
7.09
6.16
5.11
3.81
2.21
0.32
-1.73
-3.82
-5.74
-7.32
-8.39
-8.86
-8.66
-7.75
-6.10
-3.79
-1.00
1.96
4.74
7.05
8.74
9.78
10.25
10.22
9.71
8.70
7.24
5.46
3.62
1.98
0.70
-0.23
-0.90
-1.45
-1.92
-2.27
-2.44
-2.46
-2.45
-2.66
-3.33
-4.61
-6.47
-8.76
-11.31
-13.96
-16.56
-18.90
-20.74
-21.80
-21.87
-20.85
-18.79
-15.80
-12.04
-7.65
-2.82
2.16
6.91
10.99
13.98
15.68
16.10
15.47
14.10
12.35
10.52
8.89
7.71
7.16
7.32
8.04
9.03
9.90
10.28
9.96
8.91
7.27
5.25
3.10
1.01
-0.94
-2.76
-4.57
-6.60
-9.09
-12.20
-15.89
-19.86
-23.66
-26.80
-28.87
-29.59
-28.83
-26.55
-22.81
-17.81
-11.91
-5.67
0.39
5.83
10.43
14.22
17.29
19.66
21.24
21.95
21.79
20.97
19.87
18.85
18.21
17.92
17.85
17.75
17.46
16.92
16.18
15.29
14.26
13.00
11.40
9.39
7.02
4.42
1.71
-1.03
-3.86
-6.87
-10.06
-13.31
-16.34
-18.79
-20.35
-20.83
-20.16
-18.38
-15.65
-12.15
-8.15
-3.93
0.24
4.13
7.55
10.30
12.16
13.01
12.82
11.80
10.39
9.09
8.32
8.27
8.83
9.64
10.34
10.59
10.25
9.35
8.04
6.52
4.95
3.40
1.85
0.30
-1.26
-2.73
-4.05
-5.17
-6.13
-7.06
-8.03
-9.02
-9.86
-10.32
-10.17
-9.27
-7.67
-5.54
-3.13
-0.70
1.47
3.14
4.13
4.35
3.87
2.90
1.75
0.74
0.10
-0.05
0.25
0.84
1.49
1.99
2.21
2.13
1.88
1.63
1.48
1.47
1.43
1.16
0.49
-0.58
-1.97
-3.46
-4.89
-6.13
-7.13
-7.84
-8.16
-7.95
-7.09
-5.56
-3.47
-1.06
1.39
3.68
5.65
7.25
8.47
9.29
9.68
9.64
9.17
8.35
7.28
6.10
4.94
3.91
3.07
2.43
1.95
1.56
1.17
0.74
0.30
-0.07
-0.37
-0.71
-1.33
-2.47
-4.31
-6.81
-9.75
-12.83
-15.74
-18.21
-20.05
-21.09
-21.14
-20.07
-17.85
-14.61
-10.63
-6.36
-2.27
1.24
3.96
5.90
7.20
8.03
8.45
8.44
7.90
6.79
5.28
3.71
2.46
1.80
1.75
2.09
2.45
2.52
2.16
1.44
0.50
-0.54
-1.64
-2.84
-4.24
-5.90
-7.84
-10.00
-12.28
-14.52
-16.52
-18.10
-19.01
-19.06
-18.05
-15.88
-12.58
-8.39
-3.73
0.90
5.05
8.38
10.75
12.19
12.81
12.75
12.11
11.04
9.70
8.28
6.95
5.82
4.95
4.31
3.84
3.47
3.14
2.81
2.43
2.01
1.51
0.91
0.10
-1.00
-2.49
-4.40
-6.73
-9.40
-12.22
-14.91
-17.10
-18.45
-18.74
-17.95
-16.30
-14.08
-11.54
-8.83
-6.01
-3.20
-0.57
1.59
3.10
3.89
4.17
4.20
4.26
4.42
4.56
4.50
4.12
3.50
2.86
2.43
2.30
2.40
2.52
2.46
2.12
1.57
0.98
0.49
0.12
-0.25
-0.85
-1.79
-3.01
-4.20
-4.90
-4.74
-3.53
-1.36
1.44
4.43
7.23
9.56
11.28
12.39
12.96
13.13
13.04
12.79
12.43
11.94
11.28
10.44
