1707387329.00
64.000000
-0.00
-0.00
-0.00
-0.00
-0.00
-0.00
-0.00
-0.00
-0.00
-0.00
0.00
0.01
0.01
-0.00
-0.03
-0.05
-0.05
0.00
0.13
0.36
0.66
1.01
1.37
1.72
2.06
2.40
2.79
3.24
3.80
4.42
5.06
5.66
6.20
6.68
7.15
7.68
8.31
9.14
10.09
11.04
11.88
12.56
13.14
13.76
14.65
15.96
17.91
20.32
22.90
25.38
27.58
29.57
31.68
34.32
37.81
42.54
48.15
54.10
59.83
64.97
69.58
74.14
79.34
85.71
93.76
103.00
112.62
121.73
129.77
136.75
143.30
150.75
157.77
166.64
177.95
191.79
206.97
220.57
228.25
225.36
208.53
176.87
132.76
80.05
23.07
-34.94
-92.44
-149.16
-205.23
-260.37
-313.74
-363.87
-409.83
-450.91
-486.50
-515.74
-537.23
-549.22
-549.96
-538.37
-514.21
-478.67
-433.88
-382.45
-327.02
-269.84
-212.63
-156.66
-102.95
-52.37
-5.90
35.58
71.43
101.35
125.50
144.38
158.69
169.15
176.37
180.75
182.57
182.07
179.51
175.23
169.65
163.18
156.15
148.81
141.30
133.69
126.02
118.33
110.69
103.16
95.80
88.68
81.83
75.25
68.95
62.95
57.25
51.86
46.78
42.03
37.59
33.45
29.61
26.07
22.81
19.83
17.11
14.67
12.48
10.54
8.83
7.35
6.07
4.97
4.05
3.27
2.62
2.09
1.65
1.30
1.01
0.79
0.61
0.47
0.37
0.28
0.22
0.18
0.15
0.13
0.13
0.13
0.14
0.16
0.18
0.21
0.24
0.28
0.32
0.36
0.41
0.46
0.50
0.55
0.61
0.66
0.71
0.77
0.84
0.91
0.99
1.08
1.17
1.28
1.40
1.54
1.69
1.86
2.05
2.26
2.50
2.75
3.04
3.35
3.70
4.07
4.49
4.93
5.42
5.94
6.50
7.10
7.75
8.44
9.17
9.95
10.77
11.64
12.55
13.51
14.53
15.62
16.77
17.97
19.23
20.52
21.79
22.98
23.99
24.73
25.05
24.85
24.00
22.46
20.17
17.19
13.53
9.38
4.91
0.31
-4.17
-8.32
-11.96
-14.95
-17.24
-18.81
-19.67
-19.90
-19.61
-18.85
-17.73
-16.35
-14.80
-13.20
-11.59
-10.00
-8.48
-7.01
-5.56
-4.09
-2.55
-0.95
0.71
2.37
4.10
5.80
7.49
9.26
11.19
13.28
15.48
17.68
19.78
21.81
23.59
25.20
26.85
28.75
30.97
33.38
35.75
37.81
39.54
40.61
41.17
41.61
42.28
43.34
44.61
45.63
45.89
45.18
42.96
39.26
34.45
28.81
22.31
14.28
3.35
-12.86
-32.40
-55.53
-82.41
-112.40
-143.56
-172.57
-195.49
-208.85
-210.98
-202.53
-186.89
-168.16
-149.77
-133.67
-120.08
-108.13
-96.54
-84.20
-70.30
-54.87
-38.00
-19.95
-1.28
17.08
34.05
48.51
59.71
67.41
71.62
72.91
72.14
70.09
67.29
63.86
59.75
54.96
49.76
44.54
39.87
36.16
33.50
31.67
30.31
29.06
27.77
26.37
24.74
22.76
20.27
17.23
13.72
10.00
6.32
2.77
-0.81
-4.80
-9.57
-15.26
-21.56
-27.56
-32.01
-33.59
-31.38
-25.27
-16.01
-4.99
6.25
16.45
24.95
31.68
36.83
40.70
43.47
45.23
46.07
46.13
45.49
44.15
41.96
38.82
34.79
30.21
25.62
21.61
18.52
16.38
14.84
13.40
11.57
9.00
5.58
1.41
-3.28
-8.17
-12.97
-17.50
-21.66
-25.54
-29.31
-33.16
-37.12
-40.93
-43.93
-45.24
-43.92
-39.34
-31.49
-20.94
-8.80
3.68
15.42
25.71
34.24
40.98
46.00
49.34
50.99
50.90
49.07
45.62
40.84
35.18
29.23
23.61
18.78
14.97
12.12
9.93
8.10
6.37
4.62
2.81
0.88
-1.31
-3.98
-7.25
-11.06
-15.13
-19.11
-22.79
-26.17
-29.52
-33.22
-37.52
-42.31
-47.07
-50.94
-52.86
-51.90
-47.59
-40.06
-30.03
-18.62
-7.03
3.74
13.12
20.92
27.24
32.24
35.95
38.33
39.26
38.70
36.76
33.73
30.03
26.03
22.06
18.27
14.75
11.61
8.94
6.85
5.35
4.29
3.33
2.11
0.29
-2.29
-5.56
-9.28
-13.19
-16.99
-20.52
-23.73
-26.69
-29.61
-32.72
-36.26
-40.27
-44.57
-48.65
-51.70
-52.78
-51.03
-46.01
-37.92
-27.58
-16.24
-5.18
4.62
12.69
18.99
23.80
27.49
30.36
32.58
34.19
35.05
34.98
33.78
31.37
27.92
23.87
19.80
16.25
13.56
11.75
10.59
9.76
8.88
7.68
6.00
3.83
1.27
-1.45
-4.15
-6.71
-9.16
-11.66
-14.33
-17.28
-20.42
-23.55
-26.39
-28.68
-30.34
-31.50
-32.50
-33.86
-36.02
-39.11
-42.75
-46.00
-47.59
-46.34
-41.60
-33.53
-23.06
-11.65
-0.76
8.49
15.57
20.48
23.63
25.54
26.66
27.32
27.70
27.81
27.56
26.82
25.48
23.53
21.12
18.57
16.31
14.72
13.99
14.03
14.46
14.77
14.44
13.16
10.84
7.67
4.00
0.15
-3.60
-7.15
-10.51
-13.79
-17.01
-20.17
-23.17
-25.87
-28.27
-30.48
-32.77
-35.37
-38.23
-40.96
-42.80
-42.87
-40.44
-35.31
-27.82
-18.73
-9.02
0.38
8.83
15.92
21.61
26.04
29.53
32.50
35.25
37.90
40.28
42.02
42.69
42.05
40.16
37.39
34.29
31.36
28.90
26.96
25.40
23.98
22.49
20.79
18.81
16.53
13.85
10.72
7.13
3.16
-0.94
-4.90
-8.55
-11.88
-15.09
-18.48
-22.27
-26.53
-31.11
-35.80
-40.28
-44.17
-46.97
-48.08
-46.86
-42.89
-36.14
-27.05
-16.44
-5.26
5.58
15.43
23.85
30.63
35.64
38.99
40.83
41.42
40.93
39.45
36.95
33.47
29.18
24.48
19.89
15.96
13.03
11.15
10.08
9.45
8.85
7.97
6.65
4.87
2.61
-0.12
-3.35
-6.98
-10.84
-14.65
-18.16
-21.31
-24.20
-27.10
-30.25
-33.79
-37.68
-41.76
-45.84
-49.73
-53.17
-55.80
-57.13
-56.58
-53.64
-47.96
-39.53
-28.72
-16.32
-3.46
8.59
18.70
26.22
31.08
33.79
35.16
35.91
36.46
36.88
36.94
36.32
34.85
32.59
29.88
27.25
25.27
24.28
24.27
24.82
25.26
24.90
23.35
20.62
17.10
13.26
9.47
5.78
1.99
-2.23
-7.06
-12.46
-18.10
-23.55
-28.43
-32.51
-35.87
-38.70
-41.28
-43.82
-46.43
-49.16
-51.98
-54.66
-56.69
-57.20
-55.18
-49.80
-40.82
-28.84
-15.11
-1.14
11.81
22.98
32.18
39.43
44.82
48.37
50.14
50.27
48.92
46.09
41.52
34.97
26.51
16.94
7.69
0.26
-4.50
-6.78
-7.72
-8.53
-9.59
-10.06
-8.31
-2.96
6.09
17.42
28.58
37.33
42.54
44.47
44.20
42.63
39.87
35.14
27.54
16.75
3.53
-10.56
-23.87
-35.32
-44.63
-52.02
-57.66
-61.31
-62.39
-60.34
-55.09
-47.28
-38.12
-28.99
-21.02
-14.83
-10.46
-7.61
-5.79
-4.57
-3.74
-3.35
-3.62
-4.81
-6.96
-9.81
-12.87
-15.62
-17.78
-19.38
-20.84
-22.74
-25.72
-30.31
-36.87
-45.54
-56.07
-67.60
-78.76
-87.85
-93.43
-94.80
-92.36
-87.34
-81.28
-75.30
-69.72
-64.19
-58.12
-51.11
-43.14
-34.41
-24.95
-14.41
-2.11
12.53
29.62
48.64
68.71
88.98
108.86
127.96
145.79
161.36
173.20
179.67
179.57
172.62
159.67
142.49
123.34
104.41
87.44
73.42
62.52
54.27
47.74
41.80
35.41
27.79
18.50
7.47
-4.92
-17.89
-30.45
-41.72
-51.27
-59.36
-66.76
-74.45
-83.14
-92.94
-103.27
-113.04
-120.81
-125.06
-124.31
-117.44
-104.09
-84.96
-61.86
-37.29
-13.81
6.64
23.15
35.79
45.34
53.01
60.24
68.48
78.89
91.98
107.26
123.17
137.57
148.30
153.88
153.87
148.82
140.08
129.56
119.42
111.65
107.40
106.34
106.35
103.98
95.66
79.17
54.72
24.97
-5.99
-34.13
-56.86
-73.61
-85.58
-94.71
-102.72
-110.40
-117.58
-123.40
-126.96
-127.62
-125.14
-119.50
-110.71
-98.79
-83.84
-66.39
-47.41
-28.37
-10.85
3.86
15.06
22.69
27.22
29.35
29.70
28.75
26.78
24.04
20.75
17.17
13.48
9.75
5.86
1.62
-3.15
-8.47
-14.14
-19.82
-25.17
-30.01
-34.38
-38.53
-42.66
-46.86
-51.00
-54.75
-57.81
-60.09
-61.80
-63.49
-65.81
-69.32
-74.05
-79.40
-83.95
-85.67
-82.23
-71.58
-52.61
-25.58
7.71
44.23
80.36
112.63
138.37
156.01
165.13
166.33
160.91
150.68
137.57
123.39
109.56
96.86
85.41
74.89
64.74
54.44
43.70
32.53
21.31
10.58
0.89
-7.43
-14.38
-20.25
-25.41
-30.08
-34.31
-37.98
-40.94
-43.17
-44.71
-45.65
-46.06
-45.99
-45.54
-45.02
-44.85
-45.46
-47.08
-49.54
-52.20
-54.01
-53.79
-50.51
-43.63
-33.28
-20.33
-6.17
7.71
20.12
30.39
38.52
44.90
49.99
54.03
56.93
58.29
57.67
54.79
49.71
42.93
35.26
27.64
20.99
15.91
12.61
10.89
10.19
9.90
9.51
8.76
7.63
6.25
4.69
2.94
0.87
-1.65
-4.65
-8.02
-11.60
-15.19
-18.72
-22.18
-25.64
-29.12
-32.61
-36.13
-39.70
-43.40
-47.20
-50.85
-53.70
-54.77
-52.98
-47.55
-38.41
-26.32
-12.72
0.67
12.43
21.76
28.59
33.40
36.87
39.56
41.72
43.31
44.09
43.81
42.36
39.78
36.36
32.50
28.63
25.16
22.36
20.41
19.28
18.79
18.51
17.91
16.52
14.04
10.51
6.29
1.92
-2.07
-5.42
-8.20
-10.74
-13.49
-16.76
-20.50
-24.36
-27.86
-30.56
-32.35
-33.48
-34.42
-35.67
-37.62
-40.43
-44.08
-48.33
-52.77
-56.73
-59.31
-59.61
-56.95
-51.10
-42.46
-31.92
-20.58
-9.55
0.43
8.97
16.02
21.81
26.64
30.76
34.20
36.83
38.39
38.69
37.71
35.74
33.18
30.42
27.76
25.34
23.14
21.16
19.39
17.86
16.50
15.16
13.60
11.55
8.85
5.56
1.92
-1.69
-4.96
-7.71
-9.95
-11.82
-13.57
-15.45
-17.68
-20.35
-23.40
-26.55
-29.45
-31.77
-33.41
-34.61
-35.83
-37.64
-40.40
-44.10
-48.30
-52.25
-54.99
-55.59
-53.38
-48.09
-39.99
-29.92
-19.10
-8.77
0.09
7.10
12.48
16.76
20.56
24.16
27.53
30.33
32.20
32.96
32.73
31.87
30.77
29.74
28.86
28.06
27.23
26.30
25.27
24.23
23.23
22.25
21.14
19.65
17.57
14.84
11.61
8.23
5.04
2.24
-0.24
-2.62
-5.14
-7.90
-10.80
-13.61
-16.22
-18.62
-20.92
-23.29
-25.82
-28.59
-31.60
-34.80
-37.89
-40.25
-41.01
-39.33
-34.71
-27.31
-17.95
-7.83
1.82
10.12
16.70
21.68
25.44
28.43
30.97
33.23
35.20
36.76
37.80
38.17
37.72
36.29
33.78
30.28
26.14
21.97
18.38
15.75
14.07
12.95
11.97
10.90
9.85
9.12
8.90
8.94
8.60
7.06
3.80
-1.12
-7.01
-12.91
-17.96
-21.76
-24.48
-26.63
-28.76
-31.25
-34.20
-37.51
-40.95
-44.19
-46.71
-47.75
-46.40
-41.87
-33.84
-22.74
-9.71
3.62
15.63
25.15
31.73
35.64
37.62
38.53
39.05
39.42
39.47
38.78
36.94
33.76
29.45
24.54
19.68
15.47
12.25
9.99
8.36
6.82
4.86
2.03
-1.84
-6.60
-11.75
-16.60
-20.42
-22.81
-23.89
-24.30
-24.99
-26.77
-30.00
-34.44
-39.50
-44.63
-49.63
-54.69
-60.19
-66.30
-72.66
-78.39
-82.26
-83.11
-80.28
-73.72
-64.02
-52.23
-39.51
-26.82
-14.81
-3.76
6.32
15.52
23.98
31.73
38.69
44.67
49.44
52.70
54.31
54.35
53.09
50.99
48.47
45.85
43.32
41.04
39.16
37.87
37.30
37.35
37.68
37.79
37.16
35.50
32.73
28.99
24.40
18.96
12.47
4.76
-4.19
-13.94
-23.72
-32.63
-40.02
-45.76
-50.34
-54.54
-58.95
-63.61
-67.84
-70.51
-70.47
-67.01
-60.05
-50.07
-37.81
-24.13
-9.79
4.38
17.51
28.64
36.96
42.10
44.23
44.07
42.58
40.62
38.57
36.34
33.53
29.87
25.48
20.99
17.26
15.01
14.46
15.22
16.47
17.25
16.81
14.81
11.26
6.35
0.32
-6.57
-14.07
-21.83
-29.51
-36.84
-43.69
-50.08
-56.07
-61.50
-65.83
-68.10
-67.15
-62.03
-52.45
-39.02
-23.15
-6.58
9.09
22.87
34.38
43.64
50.74
55.59
57.96
57.71
55.00
50.36
44.61
38.56
32.90
28.11
24.43
21.92
20.40
19.53
18.87
18.10
17.17
16.36
16.22
17.11
18.81
20.56
21.35
20.29
16.95
11.48
4.45
-3.36
-11.32
-19.08
-26.42
-32.89
-37.81
-40.31
-39.70
-35.81
-28.85
-19.75
-9.98
-1.12
5.68
9.97
11.91
11.93
10.52
8.72
6.91
4.50
0.42
-5.94
-14.24
-23.36
-32.13
-39.73
-44.37
-45.58
-44.71
-44.08
-45.42
-49.26
-55.20
-62.81
-71.33
-77.09
-76.94
-69.52
-55.05
-33.82
-5.80
29.23
71.12
120.46
181.32
255.55
339.69
424.93
500.63
557.93
592.68
605.94
581.54
517.43
428.57
338.98
265.29
210.86
171.31
144.14
123.46
106.36
94.19
86.66
80.17
68.83
51.31
28.85
4.76
-17.97
-36.75
-47.96
-50.41
-45.95
-38.28
-30.30
-23.39
-17.47
-12.45
-8.03
-2.85
3.01
8.19
11.03
11.32
9.37
6.04
1.88
-2.59
-6.49
-10.12
-14.33
-19.92
-26.53
-33.78
-41.08
-48.19
-54.86
-60.89
-67.52
-75.82
-85.93
-95.89
-104.73
-111.95
-117.72
-122.32
-126.26
-133.28
-145.93
-163.95
-181.70
-196.79
-208.42
-217.35
-223.97
-228.81
-238.92
-259.42
-290.47
-321.93
-350.05
-373.11
-390.76
-400.25
-398.52
-393.94
-393.68
-399.24
-397.58
-387.50
-372.44
-359.05
-350.29
-347.11
-362.44
-404.13
-469.42
-534.72
-591.74
-639.64
-683.97
-727.82
-691.35
-537.59
-289.92
-90.65
37.83
103.13
143.85
173.16
198.26
222.57
234.10
224.35
194.84
167.87
150.73
143.84
142.17
144.45
151.46
154.92
149.89
138.27
136.14
146.28
165.16
185.07
201.96
214.51
216.82
205.77
183.01
159.71
139.54
123.16
109.05
97.52
89.15
80.79
69.32
53.61
37.72
23.29
11.55
3.00
-1.44
-1.65
0.21
1.53
0.67
-1.35
-3.65
-5.07
-4.92
-2.87
0.40
3.44
4.69
3.37
-0.23
-4.64
-7.87
-8.19
-4.51
3.41
15.27
30.03
45.75
59.34
67.15
66.12
55.36
37.00
15.64
-3.47
-16.72
-23.47
-25.78
-26.70
-28.46
-31.45
-34.65
-36.95
-38.14
-39.19
-41.47
-45.73
-51.59
-57.67
-62.43
-64.67
-64.17
-61.51
-57.70
-53.82
-50.63
-48.34
-46.68
-45.14
-43.21
-40.78
-38.12
-35.78
-34.21
-33.51
-33.29
-32.95
-31.88
-29.78
-26.67
-22.75
-18.28
-13.49
-8.68
-4.24
-0.51
2.34
4.54
6.74
9.72
14.06
19.93
27.08
35.10
43.62
52.42
61.35
70.20
78.66
86.60
94.23
102.25
111.63
123.40
138.16
156.00
176.61
199.63
225.08
253.36
284.83
318.94
353.58
385.02
408.83
421.39
421.27
409.83
390.50
367.40
343.68
320.74
298.51
276.35
254.01
231.92
210.86
191.29
172.92
154.80
135.89
115.71
94.67
74.09
55.61
40.52
29.22
21.13
14.95
9.29
3.20
-3.50
-10.38
-16.79
-22.26
-26.75
-30.63
-34.40
-38.44
-42.85
-47.48
-51.96
-55.91
-59.04
-61.20
-62.48
-63.14
-63.52
-63.88
-64.23
-64.34
-63.88
-62.55
-60.30
-57.26
-53.69
-49.77
-45.56
-40.99
-36.02
-30.71
-25.27
-20.01
-15.23
-11.15
-7.86
-5.31
-3.39
-1.94
-0.83
-0.02
0.45
0.61
0.53
0.46
0.69
1.42
2.58
3.85
4.68
4.65
3.59
1.74
-0.44
-2.55
-4.41
-6.29
-8.64
-11.97
-16.50
-22.14
-28.54
-35.26
-41.89
-48.07
-53.42
-57.48
-59.82
-60.11
-58.33
-54.66
-49.44
-42.98
-35.53
-27.36
-18.80
-10.38
-2.71
3.67
8.48
11.75
13.84
15.31
16.71
18.44
20.59
22.96
25.01
26.22
26.20
24.91
22.63
19.83
16.89
13.94
10.87
7.35
3.07
-2.15
-8.22
-14.80
-21.31
-27.10
-31.66
-34.78
-36.69
-37.99
-39.48
-41.91
-45.75
-50.98
-57.20
-63.63
-69.38
-73.57
-75.52
-74.82
-71.39
-65.37
-57.17
-47.28
-36.33
-24.90
-13.54
-2.71
7.26
16.19
23.99
30.59
35.93
39.98
42.79
44.49
45.26
45.33
44.91
44.12
43.00
41.56
39.83
37.79
35.40
32.62
29.35
25.53
21.13
16.17
10.73
4.97
-0.92
-6.75
-12.42
-17.98
-23.62
-29.60
-36.17
-43.40
-51.06
-58.62
-65.33
-70.40
-73.16
-73.22
-70.43
-64.90
-56.96
-47.12
-35.97
-24.26
-12.69
-1.87
7.76
15.97
22.75
28.21
32.50
35.81
38.23
39.85
40.71
40.84
40.29
39.16
37.60
35.80
33.99
32.31
30.80
29.33
27.65
25.47
22.58
18.99
14.89
10.61
6.37
2.21
-2.13
-7.03
-12.81
-19.65
-27.48
-36.05
-44.90
-53.37
-60.61
-65.71
-67.90
-66.74
-62.27
-55.00
-45.65
-34.98
-23.63
-12.15
-1.03
9.21
18.05
25.11
30.29
33.86
36.34
38.32
40.21
42.08
43.62
44.37
43.97
42.39
39.93
37.11
34.39
31.95
29.65
27.20
24.29
20.74
16.48
11.50
5.82
-0.46
-7.10
-13.80
-20.35
-26.83
-33.73
-41.75
-51.38
-62.38
-73.63
-83.25
-89.18
-89.85
-84.73
-74.40
-60.25
-43.99
-27.23
-11.28
2.89
14.60
23.50
29.62
33.51
36.01
37.95
39.73
41.11
41.43
39.96
36.47
31.37
25.51
19.72
14.43
9.53
4.54
-0.86
-6.64
-12.36
-17.43
-21.53
-24.75
-27.65
-31.06
-35.74
-42.18
-50.38
-59.94
-70.18
-80.42
-90.24
-99.44
-108.01
-115.92
-123.07
-129.17
-133.60
-135.08
-131.54
-120.41
-99.34
-67.37
-25.84
21.50
69.28
112.15
146.35
170.45
185.14
192.28
193.77
191.08
185.26
177.40
168.87
161.22
155.92
153.85
155.21
159.35
164.71
168.74
168.01
158.94
139.01
108.09
69.06
27.14
-11.89
-43.76
-67.10
-83.30
-95.14
-105.07
-114.11
-121.95
-127.71
-130.98
-132.02
-131.45
-129.55
-125.90
-119.50
-109.40
-95.28
-77.78
-58.43
-39.21
-21.91
-7.71
3.06
10.83
16.47
20.88
24.71
28.25
31.43
33.99
35.61
36.11
35.52
34.10
32.29
30.50
28.91
27.36
25.45
22.70
18.83
13.98
8.58
3.27
-1.51
-5.67
-9.43
-13.27
-17.63
-22.74
-28.54
-34.74
-40.85
-46.33
-50.72
-53.58
-54.65
-53.82
-51.15
-46.87
-41.31
-34.78
-27.51
-19.67
-11.36
-2.76
5.84
13.97
21.00
26.32
29.50
30.36
29.12
26.36
22.94
19.77
17.52
16.30
15.55
14.22
11.16
5.67
-2.14
-11.34
-20.49
-28.22
-33.76
-37.06
-38.62
-39.20
-39.58
-40.45
-42.65
-47.20
-55.21
-67.49
-84.13
-104.32
-126.42
-148.35
-168.15
-184.37
-196.29
-204.01
-208.38
-210.75
-212.66
-215.52
-220.28
-227.32
-236.59
-247.94
-261.42
-277.38
-296.32
-318.11
-342.65
-370.15
-400.99
-434.99
-470.58
-504.37
-531.50
-546.93
-546.55
-529.28
-497.44
-455.64
-408.53
-359.08
-308.04
-254.67
-197.99
-136.49
-70.15
-0.50
70.20
140.26
208.92
276.02
341.46
405.08
470.12
538.18
607.49
673.04
728.94
770.40
794.66
801.27
792.33
779.61
773.04
776.59
787.78
801.77
814.67
824.03
828.56
828.12
835.55
859.40
898.98
944.60
985.01
1012.88
1025.14
1021.27
1002.09
984.34
978.34
982.74
986.52
980.24
962.86
939.52
915.75
796.29
539.45
172.67
-224.01
-577.44
-851.84
-1041.64
-1156.76
-1213.84
-1231.22
-1209.80
-1156.11
-1077.81
-989.11
-903.99
-830.77
-772.70
-730.04
-701.18
-671.34
-630.07
-576.09
-516.23
-460.20
-414.11
-380.02
-357.41
-344.34
-330.71
-309.50
-279.61
-246.32
-216.18
-193.02
-177.94
-170.39
-169.14
-168.94
-165.92
-158.90
-149.77
-141.20
-134.79
-130.99
-129.50
-129.31
-127.49
-121.32
-109.27
-91.73
-70.30
-46.83
-22.87
0.66
23.61
46.36
69.28
92.37
114.91
135.77
153.88
168.71
180.36
189.37
196.33
201.63
205.28
207.11
206.89
204.60
200.49
194.93
188.34
181.07
173.32
165.07
156.08
145.88
133.76
118.75
99.73
75.62
45.83
10.73
-28.11
-68.05
-106.03
-139.33
-166.29
-186.56
-200.78
-209.94
-214.94
-216.25
-214.17
-208.99
-201.16
-191.29
-179.92
-167.42
-154.03
-139.89
-125.17
-110.16
-95.28
-81.09
-68.20
-57.19
-48.45
-42.06
-37.81
-35.26
-33.98
-33.66
-34.13
-35.33
-37.15
-39.37
-41.75
-44.06
-46.22
-48.23
-50.05
-51.53
-52.29
-51.93
-50.09
-46.76
-42.28
-37.36
-32.82
-29.31
-27.01
-25.42
-23.45
-19.74
-13.11
-3.09
9.97
25.02
40.74
55.99
70.09
82.82
94.38
105.13
115.51
125.86
136.34
146.76
156.53
164.78
170.63
173.55
173.57
171.18
167.05
161.64
155.03
147.00
137.30
125.87
112.98
99.10
84.83
70.76
57.42
45.31
34.83
26.25
19.55
14.42
10.26
6.34
1.87
-3.87
-11.40
-20.96
-32.39
-45.07
-58.03
-70.17
-80.60
-88.80
-94.67
-98.39
-100.18
-100.21
-98.62
-95.64
-91.70
-87.46
-83.73
-81.19
-80.18
-80.58
-81.90
-83.53
-85.08
-86.58
-88.44
-91.12
-94.84
-99.35
-104.08
-108.53
-112.76
-117.55
-124.22
-134.11
-147.95
-165.47
-185.39
-205.75
-224.39
-239.44
-249.44
-253.31
-250.28
-240.08
-223.02
-200.03
-172.35
-140.88
-105.68
-66.04
-21.16
28.86
82.24
135.69
185.23
227.44
260.46
284.16
299.60
308.21
311.11
309.17
303.23
294.41
284.08
273.49
263.58
254.67
246.49
238.42
229.82
220.37
210.36
200.43
191.41
184.10
178.91
175.74
173.96
172.45
170.06
166.02
159.67
150.74
139.51
126.74
113.46
100.75
89.18
79.20
71.28
64.91
59.04
52.57
44.66
35.01
24.03
12.16
0.47
-9.55
-17.94
-25.95
-35.50
-48.75
-67.54
-92.76
-124.31
-159.46
-192.66
-218.44
-232.33
-231.70
-216.60
-189.75
-151.84
-109.26
-73.95
-49.81
-37.54
-37.01
-46.39
-62.39
-80.94
-98.29
-112.47
-122.49
-127.76
-129.31
-128.67
-127.06
-125.34
-124.15
-123.88
-124.99
-126.96
-128.02
-127.00
-123.27
-116.70
-107.66
-96.80
-84.74
-72.18
-59.24
-45.43
-30.84
-16.05
-1.75
11.31
22.57
31.73
38.60
43.34
46.49
48.44
49.52
50.02
50.19
50.10
49.75
48.98
47.74
46.10
44.13
41.81
39.14
36.01
32.31
28.02
23.18
17.95
12.49
6.93
1.15
-5.07
-12.05
-19.96
-28.62
-37.45
-45.48
-51.62
-54.89
-54.66
-50.74
-43.48
-33.60
-22.07
-9.95
1.81
12.47
21.63
29.19
35.26
39.97
43.42
45.64
46.60
46.34
44.96
42.63
39.60
36.14
32.51
28.95
25.63
22.62
19.86
17.17
14.27
10.90
6.89
2.26
-2.80
-8.05
-13.25
-18.42
-23.81
-29.90
-37.16
-45.77
-55.42
-65.19
-73.79
-79.89
-82.48
-81.21
-76.29
-68.39
-58.21
-46.39
-33.38
-19.59
-5.47
8.37
21.27
32.64
42.07
49.42
54.74
58.21
60.05
60.48
59.78
58.24
56.20
53.99
51.82
49.71
47.47
44.78
41.31
36.86
31.43
25.23
18.57
11.78
5.04
-1.58
-8.25
-15.23
-22.91
-31.52
-41.02
-50.90
-60.11
-67.32
-71.22
-70.97
-66.39
-58.00
-46.75
-33.70
-19.73
-5.48
8.58
22.00
34.27
44.84
53.27
59.37
63.20
65.03
65.27
64.29
62.41
59.84
56.83
53.60
50.36
47.20
44.04
40.66
36.76
32.17
26.89
21.11
15.04
8.86
2.61
-3.81
-10.54
-17.74
-25.60
-34.28
-43.87
-54.13
-64.35
-73.31
-79.53
-81.71
-79.16
-72.00
-61.07
-47.56
-32.69
-17.44
-2.55
11.41
24.00
34.85
43.77
50.73
55.88
59.47
61.69
62.70
62.69
61.77
59.95
57.21
53.56
49.13
44.23
39.08
33.79
28.43
23.01
17.54
12.02
6.61
1.49
-3.07
-6.99
-10.51
-13.87
-17.53
-22.25
-28.76
-37.30
-47.39
-57.56
-66.02
-71.21
-71.38
-65.78
-55.22
-41.73
-27.59
-14.72
-3.43
6.61
15.85
26.33
39.43
54.54
69.20
80.64
86.57
87.51
84.99
80.66
78.72
82.43
91.79
103.50
113.42
117.72
116.86
112.71
107.51
107.13
116.76
137.90
168.06
203.06
237.55
269.45
296.80
294.22
247.22
162.35
65.04
-18.49
-65.54
-85.26
-89.11
-85.78
-79.93
-73.89
-65.97
-55.62
-44.89
-36.60
-33.84
-35.35
-39.14
-43.77
-45.75
-43.01
-36.34
-28.83
-23.45
-22.67
-25.30
-29.57
-34.27
-37.16
-37.64
-36.43
-34.68
-33.05
-32.45
-32.72
-34.22
-37.68
-43.01
-51.34
-62.97
-76.67
-90.02
-101.40
-110.27
-117.53
-124.89
-134.23
-149.64
-173.47
-204.45
-237.87
-267.81
-289.03
-297.69
-291.86
-256.03
-188.07
-102.48
-22.40
35.54
67.65
79.19
77.55
70.98
64.42
57.54
49.45
40.69
33.01
30.01
31.99
37.45
44.44
50.87
53.44
50.77
44.30
37.32
32.70
31.12
31.65
32.68
32.48
28.81
21.00
10.44
-0.26
-8.90
-14.96
-19.04
-22.25
-25.80
-31.03
-38.29
-46.71
-54.54
-60.01
-62.07
-60.38
-55.15
-47.05
-37.16
-26.41
-15.41
-4.44
6.30
16.43
25.54
33.28
39.41
43.82
46.65
48.12
48.52
48.16
47.23
45.85
44.03
41.80
39.18
36.27
33.22
30.11
26.93
23.58
19.90
15.77
11.21
6.41
1.68
-2.70
-6.56
-10.02
-13.53
-17.71
-23.23
-30.48
-39.35
-49.11
-58.55
-66.29
-71.15
-72.43
-69.99
-64.19
-55.66
-45.11
-33.22
-20.68
-8.16
3.71
14.39
23.49
30.86
36.55
40.74
43.68
45.60
46.68
46.98
46.54
45.43
43.79
41.90
40.06
38.49
37.12
35.63
33.53
30.33
25.83
20.16
13.75
7.12
0.70
-5.27
-10.86
-16.30
-21.99
-28.31
-35.58
-43.85
-52.81
-61.69
-69.35
-74.52
-76.15
-73.71
-67.37
-57.83
-46.13
-33.28
-20.07
-6.97
5.73
17.79
28.85
38.47
46.22
51.88
55.54
57.56
58.41
58.46
57.88
56.64
54.67
52.04
49.02
45.97
43.14
40.58
37.96
34.86
30.88
25.92
20.21
14.19
8.34
2.91
-2.21
-7.41
-13.22
-20.10
-28.24
-37.46
-47.18
-56.47
-64.22
-69.32
-70.94
-68.69
-62.74
-53.77
-42.79
-30.80
-18.66
-6.92
4.08
14.11
22.92
30.30
36.08
40.20
42.79
44.08
44.36
43.85
42.71
41.04
38.93
36.55
34.05
31.55
29.06
26.46
23.53
20.08
15.98
11.23
5.89
0.04
-6.20
-12.79
-19.81
-27.46
-35.87
-45.01
-54.44
-63.34
-70.53
-74.67
-74.68
-70.09
-61.29
-49.39
-35.89
-22.22
-9.51
1.59
11.05
19.05
25.80
31.25
35.21
37.45
37.90
36.60
33.84
30.46
27.45
25.45
24.41
23.60
22.13
19.28
14.55
8.08
1.19
-4.36
-7.26
-7.43
-5.89
-3.99
-3.08
-4.51
-8.90
-15.11
-21.33
-26.32
-30.43
-35.20
-41.73
-49.86
-58.34
-64.25
-62.97
-50.26
-24.22
13.81
60.41
112.30
166.75
220.50
259.34
268.21
240.61
185.55
121.60
65.51
26.32
7.60
2.09
2.90
6.65
12.62
21.09
31.48
39.67
42.89
40.35
32.96
23.62
16.19
13.43
15.84
21.44
26.84
28.87
26.48
20.50
13.34
7.47
3.97
2.37
1.14
-1.82
-8.75
-19.79
-33.02
-45.38
-54.54
-60.22
-63.64
-66.66
-71.98
-83.48
-102.67
-127.49
-152.71
-171.95
-180.07
-174.22
-154.77
-115.95
-64.06
-14.73
17.11
27.43
23.18
14.98
7.50
4.20
5.00
6.38
5.93
3.66
0.63
0.60
3.24
6.66
9.33
10.12
7.67
2.50
-3.04
-6.44
-6.70
-5.37
-4.80
-6.49
-11.05
-18.59
-27.56
-35.27
-39.20
-38.23
-33.36
-26.45
-19.05
-12.30
-6.97
-2.92
0.71
4.81
9.72
14.86
19.42
22.86
24.92
25.57
25.15
24.20
23.21
22.40
21.59
20.58
19.34
18.00
16.75
15.74
14.89
13.96
12.61
10.56
7.77
4.48
1.01
-2.31
-5.36
-8.23
-11.15
-14.40
-18.19
-22.66
-27.78
-33.36
-38.97
-44.00
-47.67
-49.30
-48.44
-45.07
-39.58
-32.61
-24.89
-17.05
-9.51
-2.47
3.92
9.54
14.29
18.02
20.70
22.36
23.11
23.13
22.57
21.56
20.19
18.59
16.92
15.36
14.05
13.00
12.01
10.76
8.90
6.21
2.68
-1.46
-5.84
-10.05
-13.78
-16.96
-19.72
-22.44
-25.58
-29.51
-34.34
-39.74
-45.00
-49.16
-51.34
-50.99
-48.08
-42.97
-36.33
-28.82
-20.96
-13.07
-5.27
2.34
9.59
16.22
21.93
26.46
29.66
31.57
32.36
32.27
31.56
30.42
28.99
27.42
25.81
24.22
22.67
21.07
19.22
16.91
13.97
10.39
6.29
1.94
-2.38
-6.48
-10.34
-14.08
-17.97
-22.26
-27.16
-32.77
-39.07
-45.78
-52.44
-58.32
-62.60
-64.58
-63.83
-60.36
-54.60
-47.15
-38.59
-29.31
-19.58
-9.58
0.39
9.96
18.72
26.34
32.67
37.71
41.60
44.51
46.61
48.02
48.81
48.99
48.57
47.57
46.11
44.40
42.64
40.88
39.00
36.72
33.77
30.04
25.65
20.90
16.07
11.35
6.71
1.99
-3.02
-8.50
-14.61
-21.47
-29.06
-37.17
-45.27
-52.50
-57.84
-60.42
-59.72
-55.80
-49.23
-40.89
-31.65
-22.14
-12.68
-3.31
5.95
15.00
23.56
31.23
37.68
42.71
46.40
48.95
50.65
51.68
52.15
52.05
51.37
50.10
48.34
46.21
43.82
41.20
38.33
35.13
31.54
27.59
23.35
18.97
14.55
10.13
5.64
0.97
-3.96
-9.24
-14.90
-21.01
-27.61
-34.64
-41.84
-48.62
-54.15
-57.51
-57.95
-55.18
-49.42
-41.35
-31.85
-21.78
-11.79
-2.29
6.52
14.51
21.55
27.49
32.22
35.76
38.26
39.95
41.04
41.66
41.78
41.36
40.41
39.08
37.65
36.32
35.15
33.93
32.31
29.93
26.60
22.40
17.65
12.74
7.99
3.51
-0.80
-5.19
-9.96
-15.36
-21.49
-28.25
-35.35
-42.24
-48.17
-52.32
-53.98
-52.70
-48.49
-41.78
-33.30
-23.87
-14.24
-4.90
3.86
11.91
19.10
25.27
30.20
33.72
35.83
36.70
36.62
35.92
34.81
33.36
31.59
29.54
27.33
25.14
23.10
21.17
19.15
16.78
13.81
10.16
5.94
1.36
-3.35
-8.05
-12.73
-17.48
-22.48
-27.99
-34.22
-41.26
-48.88
-56.47
-63.06
-67.57
-69.09
-67.18
-62.02
-54.29
-44.93
-34.76
-24.43
-14.29
-4.56
4.53
12.76
19.87
25.68
30.16
33.35
35.40
36.47
36.74
36.31
35.29
33.78
31.95
30.00
28.18
26.62
25.27
23.81
21.81
18.91
15.00
10.33
5.35
0.45
-4.17
-8.68
-13.40
-18.73
-24.90
-31.89
-39.46
-47.11
-54.20
-59.95
-63.62
-64.66
-62.86
-58.39
-51.77
-43.60
-34.43
-24.68
-14.65
-4.67
4.95
13.81
21.66
28.35
33.86
38.24
41.53
43.71
44.76
44.74
43.82
42.25
40.33
38.30
36.25
34.13
31.83
29.22
26.27
23.00
19.44
15.60
11.48
7.02
2.22
-2.86
-8.15
-13.65
-19.47
-25.83
-32.91
-40.66
-48.60
-55.88
-61.44
-64.37
-64.14
-60.82
-54.89
-47.12
-38.21
-28.72
-18.99
-9.24
0.26
9.20
17.20
23.96
29.27
33.15
35.75
37.29
38.00
38.06
37.58
36.69
35.55
34.30
33.12
32.02
30.94
29.65
27.88
25.37
22.02
17.91
13.29
8.48
3.74
-0.85
-5.42
-10.27
-15.71
-21.97
-29.02
-36.51
-43.79
-50.01
-54.28
-55.86
-54.37
-49.86
-42.83
-34.04
-24.37
-14.55
-5.04
3.91
12.15
19.52
25.78
30.66
33.98
35.76
36.28
35.93
35.15
34.24
33.32
32.40
31.40
30.24
28.89
27.30
25.37
23.01
20.10
16.61
12.59
8.17
3.51
-1.27
-6.17
-11.30
-16.85
-23.06
-29.97
-37.40
-44.76
-51.16
-55.55
-57.05
-55.24
-50.27
-42.86
-33.99
-24.61
-15.36
-6.49
1.95
10.00
17.52
24.23
29.78
33.93
36.61
37.95
38.20
37.64
36.49
34.97
33.27
31.58
30.09
28.86
27.79
26.58
24.83
22.17
18.44
13.71
8.30
2.64
-2.83
-7.92
-12.80
-17.81
-23.39
-29.86
-37.39
-45.80
-54.42
-62.30
-68.38
-71.92
-72.53
-70.32
-65.71
-59.36
-51.89
-43.63
-34.72
-25.32
-15.91
-6.89
1.36
8.58
14.51
18.90
21.85
23.59
24.27
23.55
21.68
19.27
17.15
15.72
14.99
15.36
17.17
20.34
23.17
24.67
24.31
22.21
18.40
13.04
7.46
3.09
0.48
-2.61
-7.34
-13.87
-21.03
-27.68
-32.75
-33.88
-28.87
-16.68
0.15
20.38
43.65
70.57
100.77
123.78
129.85
115.60
99.56
88.97
86.83
88.98
94.23
101.26
108.57
116.34
125.32
135.55
143.37
145.93
141.01
128.22
108.27
83.56
58.86
38.82
25.76
16.92
8.68
-2.39
-17.68
-36.90
-58.03
-77.51
-92.19
-100.66
-104.70
-106.41
-107.58
-108.87
-110.39
-111.87
-112.66
-112.47
-111.51
-110.89
-110.94
-111.11
-109.86
-105.54
-96.88
-83.31
-65.19
-43.66
-20.34
3.44
26.84
49.46
70.89
90.55
107.71
121.66
132.13
139.46
144.67
149.08
153.77
159.03
164.31
168.53
170.73
170.66
168.92
166.71
165.12
164.44
163.89
161.99
157.16
148.57
136.42
121.72
105.62
88.85
71.34
52.27
30.58
5.30
-23.97
-56.98
-92.76
-129.73
-165.74
-198.33
-225.10
-244.24
-255.05
-257.97
-254.43
-246.24
-235.01
-221.85
-207.34
-191.88
-175.98
-160.42
-146.19
-134.13
-124.62
-117.43
-111.78
-106.69
-101.30
-95.18
-88.33
-81.09
-73.91
-67.19
-61.14
-55.89
-51.43
-47.72
-44.68
-42.23
-40.29
-38.91
-38.28
-38.65
-40.27
-43.17
-47.13
-51.77
-56.74
-61.97
-67.72
-74.33
-81.95
-90.11
-97.60
-102.58
-103.03
-97.35
-85.00
-66.91
-45.67
-25.06
-9.16
-1.15
-2.18
-10.83
-23.38
-34.80
-40.25
-36.31
-21.80
2.16
32.64
65.69
97.32
124.24
144.46
157.46
164.04
165.77
164.38
161.21
156.98
151.87
145.78
138.52
129.99
120.29
109.72
98.84
88.45
79.45
72.57
68.00
65.18
62.84
59.34
53.21
43.73
31.17
16.80
2.50
-9.77
-18.44
-22.64
-22.26
-17.83
-10.29
-0.74
9.63
19.70
28.40
34.79
38.24
38.53
35.90
31.01
24.71
17.72
10.55
3.45
-3.51
-10.28
-16.78
-22.93
-28.67
-33.99
-38.87
-43.16
-46.63
-49.04
-50.31
-50.66
-50.54
-50.49
-50.90
-51.93
-53.44
-55.23
-57.17
-59.38
-62.17
-65.91
-70.75
-76.44
-82.26
-87.13
-89.93
-89.79
-86.32
-79.73
-70.65
-59.88
-48.14
-35.96
-23.75
-11.96
-1.17
7.96
14.88
19.39
21.75
22.60
22.71
22.71
22.92
23.36
23.88
24.34
24.73
25.02
25.18
25.04
24.27
22.60
19.87
16.11
11.56
6.54
1.30
-4.02
-9.49
-15.35
-21.93
-29.45
-37.90
-46.85
-55.45
-62.59
-67.19
-68.51
-66.37
-61.14
-53.61
-44.73
-35.31
-25.93
-16.93
-8.41
-0.48
6.75
13.09
18.30
22.21
24.77
26.12
26.55
26.37
25.85
25.20
24.47
23.74
23.03
22.35
21.65
20.79
19.58
17.79
15.30
12.06
8.11
3.50
-1.83
-8.03
-15.22
-23.35
-32.00
-40.36
-47.34
-51.87
-53.14
-50.88
-45.31
-37.04
-26.77
-15.19
-2.83
9.81
22.22
33.81
43.99
52.25
58.35
62.29
64.32
64.87
64.37
63.23
61.75
60.04
58.16
56.10
53.87
51.48
48.96
46.23
43.19
39.66
35.53
30.80
25.62
20.20
14.74
9.31
3.76
-2.22
-9.01
-16.85
-25.67
-34.92
-43.60
-50.47
-54.37
-54.48
-50.56
-42.90
-32.15
-19.13
-4.77
10.03
24.37
37.35
48.32
56.90
63.04
67.00
69.17
70.00
69.76
68.58
66.46
63.48
59.84
55.88
52.04
48.83
46.62
45.53
45.26
45.13
44.42
42.50
39.02
33.93
27.54
20.47
13.42
6.97
1.54
-2.38
-4.64
-5.60
-5.91
-6.23
-6.39
-5.63
-2.85
3.05
13.32
28.20
46.52
65.94
83.68
98.28
109.25
116.76
121.27
123.98
125.31
124.58
120.45
111.73
99.26
84.61
69.09
53.60
40.10
30.36
25.50
25.50
28.75
33.70
37.72
37.59
23.18
-8.86
-52.71
-95.89
-124.18
-137.69
-140.54
-137.31
-132.36
-128.82
-127.68
-129.59
-135.41
-145.99
-161.66
-180.12
-198.20
-213.12
-223.15
-226.80
-223.78
-214.90
-201.52
-185.07
-165.34
-141.73
-113.86
-82.19
-47.51
-11.49
23.79
56.33
84.67
108.85
129.86
149.56
169.65
191.29
214.11
236.19
254.51
266.08
269.57
266.40
261.06
258.13
260.08
265.42
269.55
266.46
250.98
220.46
175.88
122.20
65.16
9.56
-41.97
-88.18
-127.32
-154.85
-167.73
-172.37
-173.30
-173.86
-173.47
-172.82
-172.20
-171.09
-168.50
-163.96
-157.43
-148.35
-137.18
-125.10
-113.82
-104.34
-96.75
-90.56
-85.32
-80.54
-75.03
-68.30
-60.61
-53.04
-46.46
-41.29
-37.59
-35.34
-34.34
-33.74
-32.98
-31.89
-30.87
-30.46
-31.09
-32.97
-35.96
-39.35
-41.76
-41.90
-39.01
-33.26
-25.57
-17.17
-9.22
-2.46
2.95
7.45
11.52
15.43
18.99
21.69
22.90
22.03
18.61
12.39
3.34
-8.11
-20.78
-32.75
-41.76
-45.97
-44.79
-39.28
-31.82
-25.11
-21.06
-20.20
-21.94
-25.36
-30.05
-36.35
-44.86
-55.53
-67.13
-77.32
-83.49
-83.79
-77.81
-66.67
-52.51
-37.55
-23.30
-10.07
2.91
16.99
33.30
52.19
73.02
94.33
114.58
132.70
148.59
162.92
176.81
191.24
206.76
223.32
240.17
255.57
266.57
269.53
261.24
240.61
209.64
173.25
137.47
106.92
82.96
63.48
44.47
22.37
-4.17
-34.07
-64.80
-93.98
-120.26
-143.14
-162.24
-176.71
-185.18
-186.50
-180.48
-168.15
-151.54
-132.93
-113.97
-95.16
-75.89
-54.90
-31.01
-3.74
26.26
57.33
87.30
114.17
136.73
154.79
169.06
180.61
190.34
198.57
204.93
208.57
208.53
204.03
194.73
180.74
162.75
141.71
118.72
94.65
69.98
44.86
19.24
-6.73
-32.52
-57.18
-79.65
-99.00
-114.70
-126.76
-135.68
-142.52
-148.72
-155.89
-165.32
-177.51
-191.89
-206.91
-220.60
-231.32
-238.29
-241.68
-242.25
-240.74
-237.45
-232.17
-224.44
-213.96
-200.81
-185.51
-168.83
-151.63
-134.76
-119.10
-105.43
-94.22
-85.45
-78.38
-71.72
-64.08
-54.42
-42.61
-29.36
-15.94
-3.53
7.19
16.39
24.89
33.89
44.65
58.19
75.15
95.60
118.92
143.78
168.31
190.40
208.17
220.49
227.13
228.77
226.59
221.86
215.62
208.51
200.88
192.90
184.66
176.08
166.95
156.90
145.45
132.39
117.85
102.34
86.66
71.61
57.66
44.91
33.14
21.93
10.97
0.15
-10.43
-20.49
-29.71
-37.83
-44.48
-49.30
-51.87
-51.85
-49.18
-44.16
-37.53
-30.32
-23.63
-18.40
-15.20
-14.22
-15.23
-17.69
-20.95
-24.53
-28.26
-32.45
-37.72
-44.57
-53.05
-62.40
-71.21
-77.73
-80.41
-78.39
-71.72
-61.33
-48.79
-36.05
-24.96
-17.03
-13.08
-13.06
-16.04
-20.50
-24.68
-27.08
-26.86
-23.98
-19.12
-13.40
-8.04
-4.09
-2.23
-2.70
-5.21
-8.99
-12.81
-15.16
-14.49
-9.52
0.39
15.13
33.78
54.77
76.07
95.53
111.17
121.45
125.61
123.72
116.73
106.04
93.12
79.08
64.42
49.11
32.63
14.21
-6.98
-31.49
-59.16
-88.76
-118.04
-144.27
-165.09
-179.48
-187.99
-192.28
-194.15
-194.52
-193.02
-188.31
-178.80
-163.50
-142.49
-116.96
-88.82
-60.36
-33.79
-10.92
6.94
19.01
24.94
24.66
18.34
6.45
-10.23
-30.49
-52.78
-75.56
-97.49
-117.55
-135.10
-149.76
-161.36
-169.96
-175.67
-178.65
-178.98
-176.78
-172.44
-166.59
-159.95
-152.84
-144.75
-134.10
-118.43
-94.95
-61.45
-17.30
35.81
93.75
150.69
200.54
238.77
263.67
276.57
281.00
280.94
279.15
276.72
273.21
267.86
260.45
251.41
241.39
230.61
218.59
204.36
187.15
166.77
143.93
119.92
96.28
74.34
55.09
39.18
26.99
18.72
14.42
13.91
16.82
22.52
30.26
39.18
48.39
56.98
64.17
69.37
72.36
73.36
72.91
71.64
70.06
68.37
66.45
64.07
61.08
57.56
53.71
49.71
45.59
41.14
36.20
30.81
25.29
20.10
15.49
11.20
6.52
0.56
-7.20
-16.47
-26.08
-34.34
-39.67
-41.18
-38.94
-33.91
-27.53
-21.28
-16.43
-13.90
-14.32
-18.03
-25.08
-35.22
-47.96
-62.78
-79.32
-97.57
-117.78
-140.03
-163.86
-187.94
-210.23
-228.44
-240.72
-246.05
-244.31
-236.01
-221.90
-202.80
-179.62
-153.49
-125.83
-98.10
-71.53
-46.88
-24.39
-3.95
14.72
32.01
48.36
64.28
80.18
96.12
111.67
126.07
138.68
149.41
158.89
168.16
178.10
188.91
199.98
210.08
217.76
221.68
220.75
214.44
203.09
188.27
172.77
160.04
153.22
153.96
161.68
173.76
186.34
195.64
199.01
195.44
185.40
170.29
151.84
131.51
110.38
89.06
67.88
47.08
26.85
7.31
-11.59
-30.08
-48.41
-66.60
-84.36
-100.97
-115.62
-127.64
-136.67
-142.79
-146.38
-147.99
-148.10
-147.12
-145.23
-142.44
-138.69
-133.93
-128.30
-122.21
-116.28
-111.18
-107.49
-105.54
-105.37
-106.84
-109.71
-113.76
-118.62
-123.86
-128.82
-132.71
-134.79
-134.53
-131.74
-126.58
-119.50
-110.99
-101.49
-91.33
-80.70
-69.81
-58.93
-48.40
-38.55
-29.69
-21.96
-15.29
-9.52
-4.39
0.25
4.46
8.17
11.30
13.79
15.65
16.98
17.87
18.34
18.30
17.62
16.15
13.79
10.55
6.50
1.71
-3.69
-9.48
-15.30
-20.61
-24.81
-27.38
-28.03
-26.77
-23.83
-19.58
-14.37
-8.58
-2.67
2.84
7.33
10.37
11.79
11.79
10.82
9.40
7.85
6.32
4.76
3.12
1.42
-0.28
-1.90
-3.44
-4.96
-6.56
-8.21
-9.85
-11.35
-12.70
-14.04
-15.58
-17.52
-19.87
-22.48
-25.05
-27.37
-29.28
-30.66
-31.36
-31.09
-29.49
-26.25
-21.35
-15.13
-8.21
-1.30
5.02
10.40
14.72
17.95
20.05
20.97
20.72
19.45
17.53
15.44
13.67
12.45
11.76
11.33
10.76
9.69
7.93
5.49
2.48
-0.93
-4.61
-8.51
-12.60
-16.93
-21.51
-26.33
-31.31
-36.30
-41.03
-45.22
-48.53
-50.70
-51.55
-51.02
-49.13
-45.97
-41.66
-36.42
-30.60
-24.70
-19.34
-15.16
-12.66
-12.05
-13.31
-16.11
-20.06
-24.77
-30.00
-35.68
-41.97
-49.10
-57.31
-66.68
-76.91
-87.33
-96.84
-104.11
-107.84
-107.06
-101.27
-90.40
-74.64
-54.09
-28.79
1.28
35.77
73.79
113.62
152.98
189.29
220.00
242.92
256.36
259.22
251.17
232.87
206.09
173.47
138.01
102.31
67.97
35.31
3.71
-27.76
-59.67
-91.68
-122.59
-150.86
-175.16
-194.79
-209.66
-219.92
-225.68
-227.01
-224.18
-218.06
-210.04
-201.66
-193.93
-186.98
-180.15
-172.38
-162.83
-151.08
-137.07
-120.75
-101.98
-80.51
-56.35
-30.02
-2.44
25.16
51.66
76.17
98.10
117.12
133.09
146.02
156.07
163.41
168.18
170.45
170.35
168.21
164.61
160.26
155.75
151.32
146.75
141.54
135.18
127.51
118.85
109.87
101.25
93.33
85.90
78.22
69.27
58.07
43.82
26.10
5.03
-18.31
-41.80
-62.46
-77.31
-84.51
-84.32
-79.14
-72.63
-68.25
-67.90
-71.32
-76.61
-81.22
-83.08
-81.21
-75.69
-67.26
-56.84
-45.31
-33.43
-21.93
-11.45
-2.57
4.36
9.29
12.59
14.96
17.22
20.00
23.39
26.92
29.67
30.69
29.35
25.55
19.72
12.59
4.99
-2.34
-8.77
-13.78
-16.88
-17.55
-15.36
-10.03
-1.62
9.42
22.29
35.88
49.07
60.81
70.45
77.69
82.63
85.55
86.77
86.49
84.87
82.01
78.12
73.52
68.58
63.64
58.85
54.22
49.61
44.84
39.74
34.18
28.14
21.63
14.76
7.67
0.48
-6.80
-14.29
-22.19
-30.64
-39.51
-48.29
-56.10
-61.89
-64.69
-63.78
-58.91
-50.30
-38.60
-24.76
-9.90
4.87
18.59
30.62
40.60
48.50
54.44
58.61
61.21
62.40
62.35
61.35
59.73
57.90
56.20
54.79
53.66
52.60
51.30
49.49
46.94
43.56
39.38
34.49
29.01
23.07
16.78
10.17
3.27
-3.94
-11.42
-19.05
-26.52
-33.32
-38.77
-42.04
-42.45
-39.54
-33.33
-24.30
-13.33
-1.47
10.32
21.30
31.07
39.41
46.25
51.49
55.09
57.05
57.51
56.82
55.36
53.54
51.67
49.89
48.23
46.66
45.16
43.69
42.23
40.65
38.70
36.08
32.53
27.97
22.53
16.55
10.40
4.40
-1.32
-6.80
-12.25
-17.91
-23.94
-30.43
-37.25
-44.04
-50.17
-54.89
-57.41
-57.16
-53.92
-47.85
-39.46
-29.44
-18.50
-7.32
3.57
13.71
22.76
30.44
36.62
41.28
44.59
46.77
48.16
49.06
49.74
50.37
51.01
51.65
52.21
52.55
52.58
52.20
51.41
50.33
49.18
48.24
47.75
47.82
48.44
49.44
50.51
51.17
50.79
48.76
44.70
38.78
31.59
23.87
16.08
8.23
0.09
-8.37
-16.70
-24.19
-30.30
-35.14
-39.52
-44.46
-50.51
-57.40
-64.22
-70.00
-74.27
-77.13
-78.87
-79.48
-78.54
-75.58
-70.62
-64.38
-57.89
-52.05
-47.01
-42.31
-37.14
-30.97
-23.82
-16.19
-8.69
-1.77
4.35
9.49
13.17
14.62
12.96
7.67
-1.12
-12.49
-25.07
-37.49
-48.72
-58.31
-66.21
-72.65
-77.89
-82.18
-85.68
-88.63
-91.28
-93.87
-96.52
-99.12
-101.31
-102.53
-102.13
-99.50
-94.17
-85.93
-74.87
-61.34
-45.87
-29.05
-11.42
6.55
24.42
41.65
57.59
71.55
82.83
90.95
95.71
97.26
96.07
92.72
87.90
82.19
76.07
69.85
63.71
57.74
52.00
46.54
41.37
36.44
31.56
26.43
20.71
14.13
6.58
-1.89
-11.14
-20.97
-31.15
-41.43
-51.58
-61.28
-70.18
-77.98
-84.43
-89.42
-92.98
-95.29
-96.52
-96.83
-96.16
-94.30
-90.90
-85.65
-78.44
-69.42
-59.04
-47.95
-36.78
-26.08
-16.18
-7.29
0.43
6.85
11.84
15.38
17.61
18.85
19.54
20.07
20.62
21.13
21.37
21.10
20.22
18.83
17.16
15.46
13.91
12.53
11.22
9.74
7.82
5.26
1.96
-2.05
-6.64
-11.61
-16.87
-22.40
-28.26
-34.51
-41.05
-47.59
-53.63
-58.56
-61.73
-62.63
-60.84
-56.17
-48.72
-38.95
-27.69
-16.04
-5.15
4.18
11.54
16.99
20.84
23.48
25.16
25.98
26.04
25.48
24.54
23.50
22.54
21.67
20.79
19.80
18.66
17.39
16.08
14.73
13.30
11.62
9.51
6.83
3.55
-0.27
-4.45
-8.78
-13.09
-17.34
-21.64
-26.22
-31.34
-37.17
-43.61
-50.30
-56.63
-61.89
-65.45
-66.87
-65.98
-62.81
-57.50
-50.31
-41.55
-31.65
-21.20
-10.84
-1.17
7.43
14.87
21.32
26.97
31.89
35.93
38.77
40.12
39.89
38.30
35.81
32.93
29.98
27.03
23.89
20.33
16.23
11.73
7.17
2.83
-1.36
-5.80
-11.08
-17.78
-26.31
-36.99
-50.12
-65.85
-83.80
-102.66
-120.06
-133.02
-138.80
-135.79
-123.93
-104.39
-78.82
-48.53
-14.20
23.87
65.14
108.39
151.67
192.69
229.39
260.33
284.76
302.52
313.68
318.39
316.90
309.69
297.62
281.98
264.32
246.12
228.45
211.79
196.00
180.52
164.65
147.77
129.59
110.20
90.18
70.48
52.22
36.33
23.16
12.36
3.01
-6.04
-15.66
-26.23
-37.62
-49.42
-61.20
-72.61
-83.19
-92.20
-98.56
-101.14
-99.30
-93.26
-84.10
-73.39
-62.68
-53.03
-44.87
-38.04
-32.17
-26.96
-22.28
-18.03
-14.06
-10.11
-5.96
-1.62
2.69
6.49
9.10
10.01
9.26
7.40
5.27
3.66
2.92
3.30
4.45
5.44
5.12
2.66
-2.04
-8.52
-15.80
-22.98
-28.64
-32.19
-34.34
-36.82
-41.20
-48.00
-56.74
-65.79
-73.37
-76.74
-74.39
-66.95
-56.77
-46.30
-36.64
-27.73
-18.06
-5.98
11.47
35.85
66.09
98.66
129.33
154.83
172.95
183.73
177.12
149.88
108.90
67.52
35.06
11.65
-5.38
-23.65
-46.33
-72.60
-97.55
-117.03
-129.20
-135.15
-138.06
-141.28
-147.72
-158.09
-171.69
-185.38
-196.15
-202.45
-204.59
-203.66
-200.27
-194.56
-185.47
-171.75
-151.58
-124.37
-91.56
-56.47
-22.82
6.96
32.16
54.11
74.76
95.99
118.16
139.94
159.10
173.84
183.87
190.14
194.19
196.87
198.00
196.40
190.40
178.51
159.94
134.70
103.32
66.60
25.47
-18.80
-64.41
-109.06
-150.31
-186.03
-214.81
-236.08
-250.02
-257.20
-258.37
-254.26
-245.51
-232.64
-216.06
-196.09
-173.08
-147.51
-120.00
-91.35
-62.42
-34.03
-6.91
18.31
41.10
60.96
77.46
90.34
99.55
105.29
107.97
108.12
106.25
102.76
97.91
91.91
84.95
77.29
69.25
61.16
53.31
45.89
38.98
32.59
26.70
21.28
16.35
11.93
7.95
4.21
0.34
-4.16
-9.72
-16.44
-23.95
-31.33
-37.34
-40.79
-40.91
-37.53
-31.14
-22.57
-12.76
-2.56
7.44
16.88
25.52
33.21
39.76
44.95
48.58
50.56
51.01
50.28
48.87
47.24
45.71
44.33
43.01
41.56
39.84
37.68
34.91
31.31
26.73
21.20
15.03
8.80
3.10
-1.63
-5.33
-8.37
-11.45
-15.29
-20.36
-26.60
-33.40
-39.71
-44.32
-46.20
-44.75
-39.88
-31.91
-21.48
-9.36
3.57
16.42
28.34
38.64
46.88
52.97
57.09
59.53
60.57
60.39
59.09
56.77
53.66
50.09
46.46
43.09
40.11
37.44
34.85
32.07
28.91
25.30
21.30
17.03
12.65
8.32
4.22
0.48
-2.92
-6.18
-9.70
-13.95
-19.21
-25.38
-31.86
-37.66
-41.63
-42.81
-40.74
-35.50
-27.65
-17.98
-7.26
3.88
14.96
25.56
35.14
43.08
48.83
52.10
52.99
51.98
49.76
46.98
44.13
41.48
39.16
37.25
35.78
34.74
33.96
33.20
32.20
30.78
28.90
26.59
23.95
21.02
17.87
14.51
10.95
7.14
2.91
-1.95
-7.69
-14.32
-21.55
-28.68
-34.73
-38.71
-39.91
-38.08
-33.53
-26.97
-19.26
-11.18
-3.34
3.86
10.06
14.91
18.08
19.36
18.77
16.62
13.43
9.71
5.84
2.01
-1.81
-5.71
-9.70
-13.68
-17.38
-20.55
-23.01
-24.86
-26.42
-28.12
-30.33
-33.17
-36.51
-40.00
-43.27
-46.10
-48.51
-50.76
-53.27
-56.45
-60.56
-65.58
-71.16
-76.62
-81.09
-83.65
-83.61
-80.62
-74.73
-66.34
-56.13
-44.86
-33.28
-22.05
-11.61
-2.29
5.76
12.43
17.69
21.59
24.29
26.00
27.02
27.55
27.72
27.56
27.10
26.40
25.55
24.69
23.89
23.13
22.36
21.47
20.33
18.80
16.72
13.95
10.46
6.35
1.84
-2.81
-7.39
-11.86
-16.28
-20.84
-25.77
-31.28
-37.46
-44.23
-51.21
-57.74
-62.97
-66.08
-66.46
-63.92
-58.66
-51.17
-42.13
-32.23
-22.13
-12.38
-3.45
4.36
10.88
16.14
20.22
23.30
25.52
26.98
27.76
27.95
27.71
27.25
26.84
26.70
26.94
27.52
28.30
29.07
29.63
29.85
29.61
28.84
27.46
25.47
22.90
19.88
16.53
12.91
8.99
4.68
-0.07
-5.17
-10.41
-15.57
-20.53
-25.39
-30.38
-35.76
-41.59
-47.67
-53.46
-58.22
-61.25
-61.96
-60.07
-55.61
-48.92
-40.57
-31.27
-21.76
-12.66
-4.41
2.79
8.87
13.88
17.84
20.74
22.55
23.30
23.13
22.34
21.32
20.44
19.98
20.02
20.43
21.01
21.50
21.68
21.48
20.87
19.94
18.74
17.27
15.43
13.13
10.33
7.13
3.72
0.33
-2.92
-6.04
-9.19
-12.54
-16.22
-20.31
-24.83
-29.84
-35.35
-41.22
-47.03
-52.02
-55.26
-55.94
-53.59
-48.30
-40.62
-31.39
-21.49
-11.67
-2.47
5.76
12.80
18.55
22.98
26.18
28.27
29.42
29.83
29.70
29.22
28.55
27.86
27.25
26.79
26.51
26.37
26.26
26.00
25.41
24.36
22.78
20.74
18.39
15.84
13.15
10.27
7.09
3.47
-0.64
-5.17
-9.94
-14.71
-19.28
-23.55
-27.63
-31.76
-36.31
-41.59
-47.73
-54.55
-61.50
-67.79
-72.58
-75.13
-75.00
-72.06
-66.49
-58.69
-49.22
-38.70
-27.76
-17.01
-6.92
2.13
9.95
16.48
21.71
25.70
28.55
30.42
31.60
32.39
33.05
33.71
34.36
34.91
35.24
35.31
35.12
34.66
33.87
32.69
31.02
28.88
26.41
23.80
21.19
18.63
16.00
13.10
9.75
5.89
1.55
-3.13
-8.00
-12.88
-17.58
-21.95
-25.90
-29.46
-32.90
-36.60
-41.01
-46.37
-52.56
-58.96
-64.57
-68.20
-68.90
-66.20
-60.23
-51.66
-41.40
-30.35
-19.16
-8.26
2.10
11.67
20.17
27.39
33.25
37.81
41.18
43.40
44.41
44.17
42.73
40.40
37.74
35.35
33.64
32.73
32.41
32.32
32.05
31.37
30.20
28.66
26.98
25.45
24.31
23.71
23.60
23.74
23.73
23.09
21.43
18.52
14.42
9.49
4.36
-0.29
-3.98
-6.74
-9.19
-12.41
-17.45
-24.80
-33.98
-43.62
-51.84
-56.99
-58.15
-55.30
-49.09
-40.42
-30.13
-18.79
-6.86
5.21
16.91
27.73
37.28
45.33
51.69
56.11
58.15
57.28
53.16
45.87
36.15
25.33
15.01
6.68
1.27
-1.00
-0.63
1.41
4.06
6.39
7.83
8.11
7.23
5.28
2.40
-1.25
-5.41
-9.74
-13.79
-17.14
-19.49
-20.82
-21.33
-21.37
-21.28
-21.30
-21.58
-22.19
-23.02
-23.75
-23.65
-21.77
-17.25
-9.80
0.06
11.09
21.87
31.32
39.04
45.11
49.66
52.54
53.24
51.33
46.90
40.74
34.15
28.35
24.04
21.22
19.37
17.78
15.75
12.79
8.62
3.26
-2.94
-9.29
-15.08
-19.83
-23.55
-26.79
-30.18
-34.10
-38.40
-42.45
-45.62
-47.57
-48.47
-48.79
-49.03
-49.41
-49.92
-50.55
-51.39
-52.75
-54.86
-57.65
-60.46
-62.23
-61.73
-58.04
-50.79
-40.27
-27.28
-12.80
2.17
16.78
30.42
42.63
53.17
61.91
68.95
74.45
78.66
81.83
84.12
85.62
86.38
86.57
86.49
86.62
87.49
89.51
92.72
96.72
100.75
103.81
105.08
104.09
100.91
96.06
90.46
85.18
81.22
79.22
79.17
80.26
80.95
79.31
73.53
62.62
46.80
27.65
7.64
-10.58
-24.96
-34.48
-39.11
-39.35
-35.87
-29.27
-20.30
-10.15
-0.49
6.81
10.30
9.48
4.91
-2.16
-10.44
-19.14
-28.08
-37.48
-47.49
-57.88
-68.05
-77.13
-84.35
-89.16
-91.35
-91.08
-88.73
-84.85
-79.93
-74.31
-68.09
-61.24
-53.71
-45.55
-36.92
-28.13
-19.54
-11.59
-4.70
0.75
4.60
6.95
8.13
8.61
8.73
8.59
8.07
6.96
5.32
3.60
2.65
3.52
7.14
14.07
24.42
37.71
53.06
69.22
84.85
98.64
109.63
117.24
121.41
122.44
120.78
116.85
110.95
103.27
93.95
83.31
71.71
59.59
47.25
34.76
21.97
8.67
-5.32
-19.99
-35.13
-50.48
-65.74
-80.65
-94.93
-108.25
-120.18
-130.36
-138.56
-144.86
-149.63
-153.34
-156.30
-158.44
-159.21
-157.72
-153.10
-144.78
-132.74
-117.56
-100.18
-81.61
-62.73
-44.03
-25.72
-7.95
9.09
25.04
39.50
52.26
63.46
73.46
82.62
90.97
98.16
103.65
107.13
108.69
108.79
107.72
105.25
100.53
92.62
81.29
67.50
53.34
41.22
32.81
28.28
26.32
24.79
21.71
15.83
6.95
-4.46
-17.54
-31.35
-44.91
-57.15
-67.00
-73.56
-76.34
-75.28
-70.78
-63.50
-54.18
-43.63
-32.62
-21.93
-12.16
-3.62
3.69
10.01
15.62
20.64
24.90
28.10
29.99
30.56
30.10
29.15
28.23
27.66
27.51
27.58
27.62
27.44
27.02
26.42
25.71
24.80
23.45
21.31
18.14
13.90
8.81
3.29
-2.26
-7.59
-12.62
-17.38
-21.80
-25.64
-28.50
-29.98
-29.84
-28.11
-24.98
-20.80
-15.92
-10.69
-5.55
-1.02
2.45
4.60
5.44
5.33
4.76
4.17
3.77
3.50
3.15
2.46
1.31
-0.37
-2.48
-4.86
-7.34
-9.66
-11.59
-12.96
-13.81
-14.32
-14.88
-15.88
-17.60
-20.06
-23.06
-26.28
-29.44
-32.43
-35.33
-38.31
-41.48
-44.88
-48.46
-52.11
-55.64
-58.76
-61.03
-61.85
-60.71
-57.29
-51.71
-44.42
-36.14
-27.48
-18.86
-10.41
-2.19
5.63
12.68
18.49
22.76
25.53
27.27
28.69
30.44
32.91
36.09
39.71
43.37
46.82
49.94
52.77
55.38
57.75
59.72
60.85
60.52
58.02
52.71
44.38
33.42
20.92
8.58
-1.62
-7.94
-9.45
-6.41
-0.29
6.63
11.99
14.07
12.32
7.39
0.79
-5.65
-10.36
-12.38
-11.63
-8.72
-4.72
-0.72
2.55
4.90
6.53
7.75
8.73
9.32
9.23
8.26
6.45
4.00
1.09
-2.25
-6.21
-10.96
-16.49
-22.50
-28.48
-33.92
-38.39
-41.65
-43.61
-44.37
-44.06
-43.00
-41.52
-39.93
-38.42
-37.03
-35.67
-34.22
-32.57
-30.68
-28.64
-26.59
-24.71
-23.11
-21.84
-20.83
-19.84
-18.56
-16.56
-13.27
-7.98
0.09
11.55
26.56
44.66
64.72
85.27
104.75
121.84
135.47
144.66
148.41
145.86
136.66
121.49
102.28
81.86
63.19
48.43
38.48
33.03
31.15
31.83
34.36
38.37
43.51
49.22
54.67
58.94
61.36
61.66
60.02
56.87
52.60
47.40
41.18
33.56
24.14
12.68
-0.78
-15.96
-32.55
-50.22
-68.67
-87.48
-106.09
-123.82
-139.92
-153.80
-165.29
-174.69
-182.43
-188.80
-193.75
-196.98
-198.29
-197.32
-193.86
-188.14
-180.78
-172.46
-163.59
-154.19
-144.06
-133.32
-121.88
-109.89
-97.94
-86.96
-77.76
-70.52
-64.68
-58.96
-51.75
-40.25
-21.44
6.53
43.16
85.37
128.29
166.74
199.54
223.61
237.53
242.99
243.60
242.63
241.04
238.39
233.93
226.88
215.67
199.42
177.70
150.78
119.90
87.29
55.75
27.61
4.10
-15.13
-30.59
-42.65
-51.46
-57.06
-59.49
-58.89
-55.62
-50.25
-43.67
-36.38
-28.78
-21.48
-15.37
-11.43
-10.31
-12.09
-16.30
-22.17
-28.83
-35.64
-42.47
-49.52
-56.99
-64.76
-72.40
-79.35
-85.29
-90.10
-93.89
-96.86
-99.19
-101.00
-102.33
-103.31
-104.11
-104.89
-105.73
-106.59
-107.33
-107.81
-107.99
-107.94
-107.76
-107.59
-107.50
-107.50
-107.62
-107.90
-108.41
-109.21
-110.27
-111.35
-111.91
-111.15
-108.10
-101.88
-91.95
-78.31
-61.51
-42.59
-22.81
-3.36
14.75
30.88
44.69
56.09
65.14
71.97
76.80
79.90
81.60
82.28
82.33
82.05
81.66
81.28
80.96
80.68
80.37
79.92
79.19
78.02
76.28
73.84
70.63
66.61
61.84
56.43
50.57
44.49
38.34
32.23
26.16
20.09
13.99
7.87
1.75
-4.40
-10.61
-16.93
-23.30
-29.47
-34.94
-38.98
-40.83
-39.88
-35.87
-29.02
-19.96
-9.60
1.19
11.73
21.66
30.80
39.06
46.26
52.13
56.48
59.27
60.76
61.35
61.43
61.24
60.86
60.22
59.35
58.34
57.34
56.38
55.34
53.95
51.99
49.43
46.45
43.33
40.25
37.15
33.81
29.97
25.59
20.80
15.84
10.89
5.91
0.69
-5.07
-11.59
-18.95
-27.07
-35.70
-44.42
-52.57
-59.25
-63.49
-64.38
-61.40
-54.58
-44.54
-32.34
-19.16
-6.10
6.01
16.74
25.88
33.43
39.44
43.99
47.13
48.99
49.75
49.64
48.95
47.93
46.71
45.30
43.68
41.80
39.74
37.67
35.75
34.04
32.41
30.56
28.16
25.01
21.09
16.58
11.69
6.58
1.26
-4.37
-10.47
-17.14
-24.36
-31.95
-39.62
-46.86
-53.05
-57.42
-59.22
-57.83
-52.95
-44.75
-33.81
-21.01
-7.36
6.23
19.08
30.68
40.68
48.78
54.73
58.37
59.72
59.06
56.84
53.65
50.04
46.44
43.12
40.18
37.65
35.46
33.51
31.61
29.50
26.91
23.60
19.49
14.69
9.44
4.01
-1.42
-6.77
-12.10
-17.52
-23.17
-29.23
-35.87
-43.23
-51.26
-59.56
-67.33
-73.53
-77.11
-77.31
-73.87
-67.00
-57.25
-45.34
-32.05
-18.19
-4.52
8.30
19.78
29.70
38.01
44.77
50.07
53.92
56.31
57.29
56.95
55.55
53.43
50.92
48.31
45.76
43.30
40.80
38.12
35.06
31.52
27.46
22.93
17.98
12.72
7.27
1.76
-3.63
-8.77
-13.60
-18.21
-22.83
-27.79
-33.39
-39.79
-46.89
-54.24
-61.05
-66.32
-69.04
-68.41
-64.04
-56.05
-45.08
-32.08
-18.16
-4.32
8.60
20.05
29.76
37.64
43.79
48.38
51.58
53.50
54.20
53.74
52.21
49.82
46.85
43.64
40.48
37.54
34.88
32.45
30.13
27.75
25.15
22.15
18.64
14.59
10.06
5.17
0.07
-5.04
-10.04
-14.82
-19.41
-23.95
-28.71
-33.99
-40.01
-46.81
-54.15
-61.48
-68.01
-72.87
-75.26
-74.66
-70.86
-64.03
-54.67
-43.47
-31.24
-18.75
-6.71
4.31
13.86
21.69
27.71
32.02
34.81
36.31
36.80
36.54
35.79
34.76
33.61
32.32
30.80
28.87
26.39
23.31
19.75
15.93
12.09
8.37
4.79
1.28
-2.28
-5.93
-9.57
-12.98
-15.84
-17.86
-18.96
-19.34
-19.48
-20.04
-21.61
-24.54
-28.75
-33.69
-38.48
-42.10
-43.64
-42.48
-38.44
-31.75
-23.04
-13.14
-2.88
7.05
16.18
24.18
30.85
36.04
39.67
41.77
42.49
42.13
41.00
39.38
37.47
35.39
33.23
31.08
29.01
27.08
25.33
23.75
22.27
20.76
18.97
16.64
13.51
9.51
4.77
-0.42
-5.71
-10.83
-15.71
-20.50
-25.48
-30.91
-36.97
-43.54
-50.19
-56.13
-60.38
-61.93
-60.09
-54.72
-46.25
-35.60
-23.86
-12.04
-0.85
9.32
18.27
25.88
32.01
36.55
39.38
40.57
40.30
38.91
36.83
34.44
32.07
29.90
28.06
26.53
25.23
23.98
22.60
20.92
18.82
16.23
13.16
9.65
5.74
1.46
-3.13
-7.92
-12.77
-17.54
-22.17
-26.72
-31.32
-36.21
-41.53
-47.32
-53.41
-59.44
-64.82
-68.87
-70.88
-70.24
-66.62
-59.97
-50.62
-39.16
-26.44
-13.37
-0.82
10.50
20.17
28.04
34.21
38.87
42.20
44.30
45.24
45.11
44.05
42.29
40.08
37.64
35.11
32.58
30.11
27.74
25.53
23.48
21.51
19.43
17.00
13.98
10.26
5.85
0.92
-4.28
-9.50
-14.52
-19.28
-23.81
-28.24
-32.77
-37.59
-42.87
-48.70
-54.99
-61.39
-67.34
-72.06
-74.72
-74.63
-71.42
-65.08
-55.99
-44.80
-32.29
-19.27
-6.52
5.30
15.72
24.46
31.47
36.84
40.74
43.30
44.62
44.77
43.90
42.26
40.18
38.04
36.04
34.24
32.52
30.70
28.66
26.33
23.71
20.71
17.22
13.09
8.31
3.04
-2.35
-7.48
-12.12
-16.28
-20.10
-23.83
-27.57
-31.33
-35.08
-38.90
-42.96
-47.53
-52.74
-58.43
-64.07
-68.83
-71.71
-71.78
-68.47
-61.68
-51.89
-39.91
-26.78
-13.48
-0.79
10.76
20.79
29.04
35.36
39.69
42.11
42.87
42.31
40.84
38.82
36.57
34.36
32.37
30.73
29.44
28.38
27.29
25.82
23.73
20.88
17.33
13.29
9.06
4.83
0.71
-3.35
-7.39
-11.48
-15.61
-19.78
-24.05
-28.61
-33.67
-39.40
-45.79
-52.52
-58.98
-64.30
-67.57
-68.03
-65.21
-59.07
-49.97
-38.60
-25.83
-12.55
0.41
12.40
22.93
31.71
38.58
43.45
46.35
47.40
46.89
45.29
43.15
41.04
39.35
38.20
37.48
36.92
36.27
35.37
34.17
32.64
30.69
28.14
24.77
20.46
15.25
9.39
3.21
-2.94
-8.88
-14.63
-20.43
-26.68
-33.71
-41.62
-50.16
-58.64
-66.06
-71.31
-73.42
-71.82
-66.42
-57.60
-46.06
-32.69
-18.41
-4.04
9.68
22.19
33.08
42.05
48.91
53.62
56.20
56.88
56.02
54.11
51.72
49.33
47.24
45.48
43.84
41.98
39.60
36.58
32.97
29.02
24.93
20.84
16.68
12.26
7.41
2.05
-3.69
-9.57
-15.30
-20.74
-25.97
-31.34
-37.28
-44.18
-52.10
-60.62
-68.90
-75.78
-80.16
-81.19
-78.44
-71.93
-61.99
-49.25
-34.56
-18.92
-3.39
11.06
23.74
34.26
42.60
48.87
53.27
55.94
57.03
56.78
55.57
53.92
52.35
51.23
50.65
50.42
50.12
49.37
47.91
45.73
42.99
39.85
36.41
32.62
28.33
23.46
18.02
12.17
6.12
0.07
-5.87
-11.67
-17.40
-23.19
-29.24
-35.71
-42.69
-50.05
-57.31
-63.74
-68.38
-70.34
-68.97
-64.02
-55.66
-44.49
-31.37
-17.30
-3.24
9.98
21.78
31.87
40.17
46.73
51.63
54.90
56.52
56.53
55.16
52.77
49.86
46.89
44.13
41.62
39.22
36.77
34.19
31.52
28.85
26.22
23.54
20.59
17.14
13.05
8.29
2.97
-2.70
-8.50
-14.21
-19.67
-24.80
-29.66
-34.45
-39.46
-44.90
-50.85
-57.09
-63.12
-68.13
-71.30
-71.83
-69.23
-63.35
-54.39
-42.92
-29.79
-15.98
-2.46
9.93
20.62
29.29
35.89
40.52
43.34
44.56
44.36
42.94
40.55
37.58
34.45
31.54
29.12
27.22
25.63
24.00
22.01
19.49
16.43
12.95
9.18
5.20
1.03
-3.28
-7.62
-11.84
-15.76
-19.36
-22.79
-26.36
-30.45
-35.30
-40.94
-47.03
-52.89
-57.64
-60.37
-60.35
-57.21
-50.95
-42.01
-31.09
-19.00
-6.53
5.64
16.93
26.83
34.97
41.03
44.91
46.71
46.82
45.73
43.95
41.87
39.68
37.44
35.09
32.67
30.25
27.99
25.94
24.09
22.28
20.22
17.66
14.46
10.65
6.47
2.29
-1.57
-4.90
-7.69
-10.22
-12.98
-16.60
-21.66
-28.48
-36.88
-46.09
-54.83
-61.55
-64.93
-64.17
-59.28
-50.94
-40.29
-28.55
-16.72
-5.44
4.95
14.26
22.32
28.91
33.76
36.68
37.66
36.95
34.97
32.27
29.41
26.85
24.90
23.65
22.96
22.51
21.88
20.70
18.73
15.95
12.49
8.54
4.22
-0.37
-5.21
-10.18
-15.13
-19.87
-24.26
-28.33
-32.31
-36.56
-41.40
-46.98
-53.16
-59.47
-65.21
-69.56
-71.83
-71.45
-68.12
-61.78
-52.67
-41.27
-28.34
-14.77
-1.40
11.10
22.32
32.08
40.26
46.75
51.44
54.30
55.45
55.25
54.15
52.59
50.91
49.25
47.61
45.94
44.20
42.35
40.37
38.19
35.78
33.08
30.09
26.83
23.32
19.60
15.67
11.54
7.18
2.56
-2.31
-7.39
-12.57
-17.69
-22.59
-27.21
-31.64
-36.14
-41.06
-46.68
-53.02
-59.70
-65.90
-70.52
-72.48
-70.98
-65.76
-57.12
-45.82
-32.85
-19.22
-5.69
7.20
19.13
29.92
39.41
47.43
53.86
58.68
62.02
64.06
64.99
64.94
63.97
62.13
59.56
56.53
53.31
50.14
47.08
44.01
40.71
37.08
33.12
28.97
24.78
20.62
16.43
12.07
7.41
2.46
-2.70
-7.91
-13.06
-18.04
-22.78
-27.19
-31.17
-34.69
-37.94
-41.22
-44.96
-49.38
-54.44
-59.74
-64.63
-68.37
-70.30
-69.87
-66.75
-60.79
-52.12
-41.15
-28.63
-15.48
-2.62
9.16
19.38
27.79
34.37
39.20
42.40
44.16
44.69
44.35
43.53
42.63
41.94
41.57
41.40
41.20
40.73
39.90
38.84
37.81
37.02
36.47
35.83
34.60
32.24
28.47
23.35
17.28
10.77
4.29
-1.91
-7.80
-13.45
-18.95
-24.28
-29.39
-34.23
-38.89
-43.57
-48.55
-53.96
-59.62
-64.96
-69.02
-70.74
-69.26
-64.25
-56.03
-45.49
-33.80
-22.09
-11.18
-1.47
6.94
14.06
19.92
24.48
27.68
29.51
30.12
29.75
28.75
27.45
26.11
24.83
23.61
22.42
21.16
19.79
18.27
16.52
14.45
12.00
9.17
6.11
3.02
0.07
-2.70
-5.47
-8.53
-12.12
-16.25
-20.70
-25.07
-29.05
-32.59
-35.93
-39.48
-43.65
-48.61
-54.20
-60.02
-65.50
-70.01
-72.90
-73.55
-71.42
-66.22
-58.11
-47.75
-36.19
-24.61
-13.93
-4.65
3.17
9.77
15.39
20.15
23.99
26.77
28.37
28.76
28.07
26.55
24.61
22.64
21.03
20.03
19.70
19.91
20.37
20.78
20.88
20.52
19.66
18.35
16.66
14.64
12.31
9.63
6.54
3.06
-0.75
-4.74
-8.78
-12.78
-16.78
-20.92
-25.39
-30.35
-35.89
-41.95
-48.36
-54.79
-60.78
-65.72
-68.96
-69.85
-67.90
-62.98
-55.29
-45.43
-34.21
-22.48
-10.96
-0.19
9.49
17.87
24.84
30.33
34.29
36.75
37.83
37.77
36.90
35.61
34.22
32.96
31.87
30.90
29.96
29.00
28.06
27.18
26.36
25.46
24.27
22.58
20.27
17.36
13.92
10.02
5.72
1.05
-3.97
-9.22
-14.57
-19.87
-25.01
-30.00
-34.91
-39.89
-45.14
-50.80
-56.84
-63.08
-69.10
-74.24
-77.75
-78.83
-76.87
-71.51
-62.82
-51.27
-37.71
-23.20
-8.81
4.58
16.43
26.47
34.71
41.24
46.18
49.63
51.72
52.65
52.66
52.02
50.98
49.70
48.30
46.80
45.21
43.46
41.51
39.34
36.95
34.37
31.54
28.40
24.78
20.54
15.64
10.18
4.40
-1.38
-6.92
-12.13
-17.12
-22.13
-27.46
-33.38
-39.98
-47.20
-54.71
-61.86
-67.82
-71.60
-72.30
-69.29
-62.47
-52.22
-39.41
-25.15
-10.53
3.57
16.54
28.01
37.70
45.39
50.86
54.04
55.09
54.41
52.62
50.31
47.95
45.79
43.86
42.08
40.36
38.67
37.02
35.36
33.59
31.50
28.92
25.67
21.69
17.02
11.76
6.04
0.03
-6.13
-12.35
-18.63
-25.10
-31.98
-39.41
-47.31
-55.24
-62.40
-67.74
-70.21
-69.05
-63.95
-55.10
-43.14
-29.00
-13.69
1.78
16.56
29.96
41.42
50.54
57.09
61.02
62.53
62.03
60.08
57.26
54.09
50.96
48.11
45.63
43.52
41.70
40.02
38.26
36.25
33.86
31.04
27.81
24.18
20.12
15.54
10.42
4.78
-1.20
-7.28
-13.30
-19.32
-25.59
-32.45
-40.11
-48.46
-56.97
-64.76
-70.79
-74.11
-74.00
-70.15
-62.65
-52.03
-39.09
-24.83
-10.24
3.86
16.87
28.40
38.24
46.30
52.59
57.20
60.27
61.99
62.53
62.05
60.73
58.77
56.43
53.96
51.55
49.24
46.93
44.40
41.45
37.97
33.97
29.54
24.81
19.83
14.64
9.23
3.62
-2.16
-8.09
-14.17
-20.44
-27.00
-33.90
-41.11
-48.48
-55.70
-62.30
-67.67
-71.11
-72.00
-69.86
-64.49
-56.03
-44.95
-31.98
-17.94
-3.67
10.12
22.85
33.99
43.16
50.06
54.56
56.77
57.02
55.78
53.60
50.92
48.09
45.32
42.71
40.32
38.09
35.92
33.67
31.25
28.66
25.98
23.32
20.67
17.91
14.87
11.35
7.27
2.66
-2.34
-7.54
-12.76
-17.83
-22.68
-27.33
-31.97
-36.85
-42.19
-47.98
-53.85
-59.11
-62.87
-64.33
-62.90
-58.43
-51.11
-41.45
-30.13
-17.86
-5.37
6.68
17.70
27.20
34.86
40.51
44.09
45.71
45.60
44.13
41.81
39.19
36.73
34.71
33.10
31.62
29.94
27.79
25.10
22.00
18.65
15.23
11.78
8.33
4.86
1.37
-2.21
-5.91
-9.81
-13.88
-18.04
-22.16
-26.12
-29.99
-33.96
-38.37
-43.40
-48.94
-54.50
-59.33
-62.62
-63.67
-62.11
-57.91
-51.32
-42.66
-32.29
-20.71
-8.69
2.73
12.47
19.73
24.13
25.80
25.53
24.39
23.30
22.51
21.66
20.13
17.49
13.77
9.42
5.52
3.17
2.94
4.26
5.87
6.54
5.83
4.25
2.84
2.96
5.66
11.39
19.98
31.56
46.57
65.60
88.50
110.20
123.30
121.90
106.03
81.07
54.17
29.95
9.98
-6.26
-19.60
-29.88
-35.78
-35.81
-30.57
-22.78
-17.55
-20.18
-34.04
-57.42
-84.45
-106.22
-114.90
-112.11
-101.77
-90.06
-82.60
-82.22
-88.54
-96.29
-100.24
-96.32
-83.02
-60.62
-31.21
2.30
36.63
68.59
92.43
103.96
104.15
98.13
91.91
88.60
88.07
88.91
89.14
88.03
86.15
84.47
83.06
81.17
77.46
71.27
63.32
55.04
47.83
42.48
38.81
35.62
31.58
26.02
19.51
13.68
10.35
10.84
15.56
23.92
34.39
45.16
54.67
62.20
67.81
72.04
75.61
79.08
82.62
85.90
88.08
88.07
84.77
77.25
65.01
48.26
28.01
5.83
-16.62
-38.14
-58.30
-77.30
-95.57
-113.26
-129.95
-144.65
-156.15
-163.56
-166.55
-165.52
-161.43
-155.61
-149.49
-144.45
-141.56
-141.38
-143.85
-148.30
-153.70
-158.94
-163.11
-165.51
-165.66
-163.16
-157.68
-149.11
-137.66
-123.94
-108.81
-93.20
-77.79
-62.92
-48.64
-34.93
-21.90
-9.98
0.12
7.65
12.17
13.86
13.66
13.05
13.57
16.22
21.10
27.39
33.78
39.12
42.92
45.48
47.60
50.03
53.03
56.14
58.53
59.34
58.10
54.89
50.11
44.29
37.78
30.84
23.75
16.94
10.96
6.25
2.81
0.06
-2.93
-7.07
-12.69
-19.21
-25.28
-29.15
-29.40
-25.47
-17.86
-7.99
2.43
11.91
19.65
25.63
30.35
34.44
38.36
42.19
45.70
48.55
50.47
51.29
50.97
49.52
47.08
43.88
40.34
36.94
34.07
31.82
29.98
28.05
25.51
22.02
17.52
12.19
6.31
0.14
-6.19
-12.66
-19.32
-26.21
-33.41
-40.95
-48.75
-56.55
-63.75
-69.44
-72.54
-72.14
-67.77
-59.58
-48.39
-35.35
-21.68
-8.36
4.02
15.18
25.01
33.37
40.06
44.80
47.38
47.79
46.27
43.31
39.51
35.50
31.80
28.73
26.38
24.66
23.26
21.74
19.63
16.49
12.18
6.81
0.78
-5.37
-11.17
-16.47
-21.49
-26.73
-32.85
-40.39
-49.57
-60.05
-70.91
-80.74
-87.89
-90.80
-88.41
-80.43
-67.38
-50.48
-31.27
-11.28
8.23
26.33
42.39
55.95
66.74
74.69
80.01
83.14
84.62
84.97
84.47
83.23
81.18
78.26
74.60
70.46
66.21
62.13
58.26
54.46
50.40
45.75
40.29
34.00
27.01
19.57
11.98
4.52
-2.59
-9.28
-15.73
-22.33
-29.65
-38.19
-48.02
-58.61
-68.75
-76.78
-81.05
-80.38
-74.38
-63.59
-49.24
-32.88
-16.03
0.11
14.78
27.63
38.60
47.75
55.18
60.94
65.06
67.55
68.56
68.31
67.12
65.39
63.41
61.33
59.13
56.59
53.41
49.33
44.19
38.04
31.14
23.90
16.81
10.33
4.75
0.11
-3.87
-7.68
-11.87
-16.92
-23.11
-30.50
-38.89
-47.82
-56.58
-64.17
-69.40
-71.15
-68.68
-61.86
-51.25
-37.92
-23.16
-8.10
6.43
19.95
32.26
43.23
52.73
60.58
66.60
70.71
73.01
73.79
73.43
72.28
70.58
68.43
65.86
62.88
59.60
56.16
52.69
49.20
45.60
41.74
37.43
32.57
27.11
21.05
14.51
7.65
0.67
-6.30
-13.27
-20.43
-28.08
-36.45
-45.46
-54.60
-62.96
-69.37
-72.77
-72.50
-68.42
-60.95
-50.86
-39.10
-26.57
-13.98
-1.92
9.17
18.89
26.88
32.81
36.52
38.05
37.72
36.07
33.73
31.23
28.92
26.91
25.13
23.44
21.68
19.70
17.40
14.64
11.31
7.38
2.91
-1.95
-6.98
-11.98
-16.82
-21.50
-26.14
-30.94
-36.14
-41.94
-48.38
-55.23
-61.96
-67.69
-71.40
-72.08
-69.07
-62.34
-52.49
-40.59
-27.83
-15.24
-3.46
7.12
16.26
23.70
29.17
32.53
33.92
33.78
32.76
31.41
30.09
28.84
27.51
25.94
24.09
22.09
20.12
18.27
16.47
14.44
11.81
8.28
3.78
-1.58
-7.45
-13.45
-19.26
-24.70
-29.75
-34.57
-39.41
-44.58
-50.29
-56.49
-62.75
-68.25
-71.89
-72.63
-69.79
-63.23
-53.43
-41.32
-28.02
-14.62
-2.04
9.15
18.64
26.35
32.31
36.62
39.40
40.78
41.00
40.36
39.22
37.89
36.56
35.29
34.06
32.79
31.41
29.86
28.04
25.85
23.15
19.84
15.92
11.47
6.62
1.53
-3.71
-9.04
-14.52
-20.26
-26.44
-33.22
-40.61
-48.41
-56.08
-62.79
-67.58
-69.54
-68.03
-62.87
-54.37
-43.24
-30.45
-17.02
-3.87
8.27
18.99
28.08
35.50
41.30
45.49
48.09
49.14
48.78
47.26
44.91
42.08
39.04
35.92
32.79
29.63
26.44
23.17
19.69
15.84
11.39
6.22
0.41
-5.82
-12.03
-17.83
-22.98
-27.53
-31.79
-36.22
-41.24
-47.08
-53.70
-60.77
-67.77
-74.05
-78.87
-81.49
-81.26
-77.75
-70.93
-61.18
-49.29
-36.32
-23.32
-11.19
-0.55
8.30
15.26
20.41
23.91
26.04
27.11
27.50
27.55
27.53
27.58
27.74
27.91
27.95
27.76
27.22
26.24
24.73
22.61
19.84
16.42
12.46
8.12
3.60
-0.95
-5.41
-9.78
-14.19
-18.84
-23.97
-29.72
-36.13
-43.04
-50.04
-56.52
-61.71
-64.80
-65.04
-61.90
-55.21
-45.24
-32.73
-18.74
-4.41
9.22
21.38
31.59
39.65
45.50
49.24
51.08
51.43
50.82
49.77
48.66
47.62
46.52
45.10
43.12
40.53
37.48
34.24
31.08
28.06
24.99
21.48
17.14
11.70
5.19
-2.09
-9.67
-17.15
-24.35
-31.33
-38.37
-45.69
-53.29
-60.78
-67.42
-72.20
-74.20
-72.71
-67.47
-58.71
-47.06
-33.47
-18.95
-4.53
8.91
20.67
30.30
37.62
42.65
45.59
46.79
46.66
45.67
44.26
42.80
41.53
40.52
39.65
38.74
37.58
36.05
34.04
31.50
28.33
24.43
19.78
14.50
8.86
3.14
-2.47
-8.10
-14.12
-21.06
-29.33
-38.96
-49.45
-59.81
-68.75
-74.94
-77.32
-75.31
-68.89
-58.62
-45.46
-30.65
-15.45
-1.00
11.88
22.69
31.29
37.82
42.54
45.73
47.62
48.34
48.00
46.73
44.73
42.33
39.88
37.66
35.86
34.44
33.24
31.92
30.13
27.55
24.01
19.51
14.22
8.42
2.36
-3.81
-10.12
-16.79
-24.11
-32.28
-41.24
-50.55
-59.37
-66.59
-71.12
-72.05
-68.96
-61.91
-51.44
-38.43
-23.90
-8.87
5.78
19.30
31.15
40.97
48.63
54.18
57.89
60.15
61.32
61.67
61.30
60.21
58.32
55.70
52.57
49.26
46.11
43.28
40.64
37.85
34.44
30.05
24.59
18.24
11.36
4.32
-2.65
-9.53
-16.51
-23.86
-31.86
-40.64
-50.05
-59.59
-68.39
-75.33
-79.29
-79.41
-75.31
-67.17
-55.65
-41.71
-26.46
-10.95
3.84
17.21
28.63
37.87
44.89
49.82
52.89
54.42
54.76
54.27
53.27
51.97
50.43
48.64
46.58
44.31
41.95
39.62
37.34
34.95
32.19
28.75
24.46
19.32
13.53
7.40
1.20
-4.98
-11.24
-17.91
-25.30
-33.57
-42.51
-51.47
-59.48
-65.42
-68.33
-67.56
-62.95
-54.78
-43.70
-30.66
-16.68
-2.78
10.16
21.45
30.66
37.55
42.18
44.77
45.74
45.61
44.87
43.89
42.82
41.64
40.22
38.48
36.47
34.30
32.07
29.74
27.14
24.02
20.22
15.79
10.96
6.01
1.14
-3.64
-8.47
-13.61
-19.21
-25.33
-31.90
-38.73
-45.53
-51.84
-57.02
-60.25
-60.70
-57.79
-51.36
-41.85
-30.11
-17.28
-4.44
7.52
17.97
26.56
33.09
37.58
40.20
41.33
41.41
40.85
39.93
38.78
37.44
35.98
34.50
33.14
31.95
30.80
29.42
27.48
24.80
21.36
17.39
13.21
9.11
5.24
1.58
-2.03
-5.87
-10.29
-15.65
-22.23
-30.05
-38.79
-47.64
-55.34
-60.45
-61.67
-58.26
-50.29
-38.60
-24.52
-9.52
5.23
18.92
31.07
41.30
49.17
54.15
55.85
54.28
50.03
44.18
38.01
32.62
28.63
26.13
24.76
24.07
23.65
23.30
22.87
22.19
20.97
18.87
15.66
11.34
6.22
0.75
-4.55
-9.37
-13.62
-17.45
-21.19
-25.20
-29.78
-35.08
-41.05
-47.44
-53.74
-59.35
-63.57
-65.76
-65.38
-62.07
-55.63
-46.10
-33.74
-19.08
-3.01
13.26
28.31
40.83
50.01
55.69
58.38
58.87
57.84
55.66
52.40
48.09
42.99
37.59
32.43
27.83
23.71
19.75
15.65
11.40
7.31
3.73
0.83
-1.66
-4.28
-7.60
-11.91
-17.11
-22.80
-28.46
-33.78
-38.72
-43.52
-48.44
-53.62
-58.90
-63.88
-67.91
-70.36
-70.64
-68.42
-63.63
-56.54
-47.68
-37.79
-27.59
-17.71
-8.58
-0.44
6.54
12.29
16.75
19.94
21.99
23.12
23.63
23.77
23.72
23.54
23.16
22.49
21.47
20.08
18.38
16.48
14.46
12.37
10.20
7.86
5.26
2.29
-1.09
-4.82
-8.78
-12.84
-16.90
-20.97
-25.15
-29.50
-33.92
-38.09
-41.47
-43.46
-43.57
-41.60
-37.62
-31.94
-24.99
-17.29
-9.37
-1.78
4.98
10.57
14.81
17.73
19.46
20.18
20.07
19.30
18.10
16.73
15.42
14.26
13.21
12.08
10.68
8.94
6.94
4.82
2.76
0.83
-1.01
-2.93
-5.14
-7.83
-11.16
-15.20
-19.93
-25.23
-30.91
-36.64
-42.08
-46.78
-50.30
-52.16
-51.97
-49.46
-44.56
-37.46
-28.60
-18.59
-8.17
1.85
10.63
17.39
21.59
23.07
22.13
19.50
16.14
12.92
10.42
8.83
8.03
7.69
7.52
7.27
6.79
6.02
4.91
3.45
1.66
-0.42
-2.73
-5.25
-7.96
-10.91
-14.07
-17.43
-20.89
-24.33
-27.64
-30.78
-33.78
-36.75
-39.87
-43.28
-47.03
-50.94
-54.57
-57.26
-58.29
-57.10
-53.47
-47.62
-40.07
-31.55
-22.73
-14.15
-6.23
0.69
6.33
10.51
13.26
14.79
15.47
15.65
15.61
15.48
15.26
14.94
14.51
14.00
13.45
12.84
12.14
11.28
10.19
8.78
6.94
4.54
1.46
-2.36
-6.90
-11.99
-17.41
-22.93
-28.42
-33.89
-39.45
-45.18
-50.96
-56.36
-60.62
-62.85
-62.21
-58.24
-50.99
-41.09
-29.55
-17.50
-5.93
4.44
13.26
20.41
25.92
29.86
32.36
33.60
33.89
33.58
33.03
32.45
31.89
31.27
30.49
29.53
28.48
27.40
26.25
24.80
22.71
19.63
15.41
10.14
4.14
-2.19
-8.48
-14.61
-20.63
-26.81
-33.49
-40.95
-49.30
-58.25
-67.09
-74.73
-79.94
-81.60
-79.04
-72.20
-61.62
-48.27
-33.32
-17.89
-2.90
10.97
23.30
33.83
42.47
49.24
54.24
57.68
59.78
60.76
60.86
60.24
59.05
57.45
55.57
53.54
51.48
49.44
47.44
45.39
43.12
40.37
36.79
32.09
26.11
18.88
10.70
2.08
-6.53
-14.79
-22.64
-30.23
-37.81
-45.54
-53.31
-60.63
-66.62
-70.20
-70.30
-66.27
-58.14
-46.66
-33.17
-19.14
-5.78
6.28
16.97
26.53
35.24
43.14
50.03
55.65
59.81
62.61
64.31
65.18
65.38
64.88
63.62
61.61
59.05
56.30
53.76
51.67
49.97
48.34
46.30
43.41
39.40
34.27
28.19
21.50
14.51
7.51
0.65
-6.05
-12.77
-19.77
-27.35
-35.67
-44.62
-53.70
-62.06
-68.61
-72.22
-72.03
-67.62
-59.14
-47.30
-33.16
-17.93
-2.72
11.64
24.56
35.67
44.69
51.42
55.83
58.02
58.33
57.25
55.31
52.94
50.43
47.93
45.53
43.27
41.14
39.08
36.95
34.54
31.66
28.15
23.97
19.20
13.97
8.48
2.84
-2.89
-8.81
-15.19
-22.28
-30.19
-38.73
-47.34
-55.13
-61.03
-64.07
-63.55
-59.21
-51.24
-40.26
-27.16
-12.92
1.44
15.05
27.17
37.31
45.13
50.57
53.72
54.87
54.46
52.97
50.85
48.43
45.89
43.28
40.62
37.97
35.42
33.05
30.75
28.27
25.21
21.22
16.18
10.23
3.75
-2.86
-9.35
-15.72
-22.13
-28.86
-36.17
-44.14
-52.59
-60.97
-68.36
-73.62
-75.56
-73.35
-66.72
-56.09
-42.50
-27.26
-11.72
3.01
16.19
27.45
36.64
43.79
49.01
52.40
54.11
54.30
53.19
51.09
48.38
45.47
42.67
40.17
37.94
35.80
33.45
30.63
27.17
23.04
18.30
13.07
7.40
1.38
-4.96
-11.52
-18.24
-25.14
-32.34
-40.03
-48.29
-56.96
-65.39
-72.46
-76.81
-77.12
-72.61
-63.21
-49.67
-33.31
-15.70
1.61
17.35
30.52
40.49
46.96
50.11
50.51
49.06
46.79
44.50
42.63
41.24
40.12
38.98
37.68
36.21
34.58
32.83
30.86
28.57
25.84
22.62
18.96
14.90
10.51
5.80
0.80
-4.47
-9.98
-15.66
-21.55
-27.73
-34.33
-41.47
-49.09
-56.94
-64.47
-70.92
-75.43
-77.14
-75.36
-69.76
-60.42
-47.94
-33.34
-17.92
-3.01
10.29
21.34
29.97
36.41
41.10
44.52
46.99
48.65
49.52
49.54
48.68
47.06
44.85
42.34
39.80
37.38
35.07
32.77
30.26
27.41
24.10
20.32
16.08
11.43
6.41
1.14
-4.29
-9.82
-15.49
-21.46
-27.99
-35.15
-42.70
-49.87
-55.57
-58.58
-58.02
-53.57
-45.63
-35.11
-23.22
-11.09
0.40
10.62
19.27
26.24
31.51
35.19
37.42
38.32
37.99
36.58
34.25
31.29
28.08
25.02
22.44
20.49
19.10
17.96
16.63
14.73
12.06
8.67
4.75
0.62
-3.50
-7.53
-11.55
-15.79
-20.49
-25.82
-31.79
-38.13
-44.22
-49.20
-52.09
-52.02
-48.51
-41.65
-32.08
-20.82
-9.05
2.23
12.30
20.73
27.40
32.32
35.59
37.35
37.74
36.90
35.04
32.44
29.41
26.27
23.30
20.67
18.35
16.17
13.83
11.03
7.57
3.39
-1.47
-6.90
-12.88
-19.44
-26.74
-34.98
-44.22
-54.32
-64.82
-74.88
-83.40
-89.12
-90.87
-87.86
-79.87
-67.40
-51.52
-33.72
-15.62
1.39
16.25
28.47
38.02
45.28
50.82
55.15
58.52
60.86
61.88
61.27
58.95
55.13
50.31
45.08
39.93
35.14
30.77
26.79
23.11
19.64
16.28
12.88
9.19
5.00
0.13
-5.39
-11.31
-17.26
-22.89
-28.09
-33.08
-38.30
-44.16
-50.76
-57.75
-64.32
-69.47
-72.26
-72.05
-68.65
-62.22
-53.20
-42.22
-30.04
-17.41
-5.09
6.34
16.50
25.22
32.47
38.27
42.66
45.69
47.48
48.26
48.30
47.85
47.03
45.82
44.12
41.90
39.25
36.34
33.37
30.39
27.29
23.85
19.87
15.25
10.05
4.48
-1.26
-6.99
-12.64
-18.24
-23.88
-29.70
-35.84
-42.37
-49.23
-56.07
-62.33
-67.26
-70.10
-70.25
-67.38
-61.54
-53.06
-42.52
-30.61
-18.05
-5.53
6.34
17.06
26.20
33.47
38.74
42.10
43.86
44.45
44.34
43.88
43.24
42.46
41.48
40.23
38.68
36.85
34.76
32.44
29.93
27.26
24.39
21.25
17.73
13.74
9.30
4.58
-0.17
-4.71
-8.97
-13.10
-17.41
-22.25
-27.84
-34.19
-41.04
-47.87
-54.00
-58.63
-60.96
-60.36
-56.54
-49.66
-40.30
-29.33
-17.63
-5.98
5.09
15.19
23.99
31.22
36.68
40.34
42.36
43.07
42.85
42.05
40.93
39.64
38.24
36.80
35.31
33.72
31.98
30.00
27.71
25.08
22.04
18.52
14.44
9.76
4.55
-1.03
-6.70
-12.21
-17.37
-22.29
-27.25
-32.72
-39.13
-46.66
-55.06
-63.65
-71.47
-77.53
-81.09
-81.85
-80.07
-76.40
-71.67
-66.49
-60.92
-54.43
-46.02
-34.67
-19.89
-2.09
17.41
36.65
53.66
66.94
75.70
79.91
80.07
77.07
72.07
66.38
61.27
57.61
55.63
54.76
53.98
52.18
48.68
43.45
37.02
30.21
23.70
17.87
12.69
7.88
3.07
-2.04
-7.61
-13.59
-19.81
-26.07
-32.17
-38.05
-43.76
-49.44
-55.27
-61.32
-67.50
-73.44
-78.47
-81.69
-82.23
-79.39
-72.96
-63.26
-51.10
-37.55
-23.69
-10.42
1.70
12.37
21.47
28.99
34.97
39.45
42.53
44.37
45.18
45.16
44.48
43.29
41.78
40.14
38.55
37.08
35.64
33.99
31.91
29.35
26.40
23.29
20.17
17.04
13.70
9.88
5.44
0.44
-4.90
-10.27
-15.45
-20.31
-24.87
-29.24
-33.62
-38.23
-43.35
-49.15
-55.65
-62.54
-69.21
-74.82
-78.46
-79.36
-77.06
-71.51
-63.02
-52.23
-39.95
-27.07
-14.35
-2.41
8.35
17.72
25.63
32.09
37.15
40.87
43.38
44.86
45.56
45.74
45.62
45.34
44.95
44.43
43.76
42.89
41.84
40.64
39.26
37.63
35.56
32.81
29.19
24.64
19.31
13.53
7.72
2.17
-2.97
-7.75
-12.34
-16.93
-21.68
-26.74
-32.25
-38.36
-45.12
-52.37
-59.59
-65.95
-70.42
-72.09
-70.44
-65.51
-57.81
-48.21
-37.58
-26.67
-16.00
-5.93
3.30
11.50
18.52
24.28
28.82
32.28
34.95
37.21
39.47
42.12
45.39
49.18
53.07
56.30
58.00
57.43
54.25
48.56
40.89
32.03
22.83
13.99
6.01
-0.90
-6.78
-11.85
-16.46
-20.96
-25.58
-30.49
-35.71
-41.34
-47.49
-54.28
-61.70
-69.44
-76.85
-82.96
-86.80
-87.55
-84.78
-78.47
-68.98
-56.98
-43.28
-28.74
-14.17
-0.30
12.34
23.35
32.46
39.53
44.55
47.70
49.30
49.83
49.72
49.32
48.77
48.08
47.16
45.93
44.33
42.33
39.95
37.21
34.19
30.94
27.47
23.72
19.52
14.67
9.04
2.66
-4.27
-11.38
-18.38
-25.05
-31.43
-37.74
-44.29
-51.40
-59.13
-67.26
-75.19
-82.00
-86.66
-88.24
-86.05
-79.90
-70.06
-57.26
-42.49
-26.80
-11.19
3.57
16.95
28.59
38.29
45.96
51.65
55.52
57.86
59.00
59.23
58.74
57.66
56.08
54.12
51.95
49.75
47.59
45.48
43.25
40.69
37.56
33.70
29.00
23.50
17.31
10.63
3.72
-3.17
-9.85
-16.25
-22.44
-28.67
-35.26
-42.50
-50.48
-58.92
-67.16
-74.22
-78.96
-80.38
-77.78
-70.99
-60.39
-46.82
-31.46
-15.53
-0.13
13.92
26.14
36.33
44.49
50.70
55.07
57.74
58.84
58.61
57.32
55.31
52.91
50.42
48.00
45.73
43.51
41.19
38.57
35.48
31.78
27.39
22.30
16.57
10.40
4.06
-2.19
-8.20
-14.02
-19.93
-26.30
-33.39
-41.14
-49.01
-55.98
-60.80
-62.26
-59.54
-52.43
-41.41
-27.56
-12.34
2.70
16.22
27.33
35.70
41.48
45.15
47.23
48.13
48.09
47.25
45.75
43.77
41.55
39.29
37.10
35.04
33.11
31.30
29.58
27.88
26.01
23.78
20.98
17.45
13.16
8.17
2.65
-3.19
-9.16
-15.17
-21.25
-27.58
-34.42
-41.96
-50.22
-58.88
-67.32
-74.55
-79.45
-80.97
-78.33
-71.33
-60.37
-46.40
-30.70
-14.61
0.80
14.82
27.10
37.51
46.01
52.57
57.17
59.88
60.89
60.49
59.02
56.80
54.10
51.13
48.10
45.18
42.47
39.97
37.49
34.76
31.47
27.40
22.42
16.61
10.14
3.30
-3.59
-10.27
-16.65
-22.84
-29.16
-36.06
-43.93
-52.90
-62.64
-72.31
-80.69
-86.39
-88.25
-85.58
-78.35
-67.18
-53.13
-37.43
-21.20
-5.36
9.44
22.78
34.34
43.96
51.59
57.29
61.22
63.58
64.57
64.33
63.06
60.98
58.37
55.53
52.64
49.75
46.81
43.75
40.51
37.08
33.42
29.39
24.76
19.28
12.85
5.61
-2.08
-9.75
-17.04
-23.84
-30.33
-36.90
-43.94
-51.62
-59.74
-67.70
-74.57
-79.27
-80.79
-78.38
-71.79
-61.32
-47.82
-32.51
-16.68
-1.44
12.44
24.57
34.83
43.17
49.56
53.98
56.46
57.19
56.52
54.88
52.71
50.37
48.08
45.92
43.86
41.75
39.45
36.85
33.90
30.67
27.20
23.49
19.42
14.78
9.37
3.12
-3.86
-11.27
-18.73
-25.92
-32.70
-39.17
-45.63
-52.42
-59.70
-67.26
-74.43
-80.11
-83.06
-82.20
-76.96
-67.44
-54.38
-38.91
-22.32
-5.79
9.66
23.23
34.31
42.58
48.04
51.06
52.34
52.65
52.72
53.06
53.85
55.15
56.88
58.89
60.89
62.41
62.74
61.14
57.04
50.28
41.16
30.39
18.80
7.21
-3.75
-13.62
-22.12
-29.15
-34.83
-39.53
-43.91
-48.68
-54.40
-61.21
-68.64
-75.67
-81.03
-83.45
-82.05
-76.52
-67.18
-54.92
-40.85
-26.13
-11.74
1.67
13.63
23.93
32.40
38.91
43.39
45.84
46.48
45.73
44.17
42.37
40.74
39.40
38.18
36.74
34.80
32.25
29.19
25.86
22.47
19.08
15.58
11.74
7.37
2.39
-3.08
-8.82
-14.56
-20.12
-25.49
-30.79
-36.32
-42.36
-48.99
-56.00
-62.81
-68.55
-72.24
-73.04
-70.46
-64.43
-55.31
-43.82
-30.86
-17.35
-4.05
8.43
19.69
29.42
37.44
43.68
48.20
51.21
53.00
53.86
54.01
53.60
52.71
51.45
49.91
48.12
46.06
43.65
40.80
37.54
34.00
30.30
26.48
22.41
17.90
12.83
7.26
1.38
-4.60
-10.54
-16.47
-22.49
-28.66
-34.99
-41.43
-48.00
-54.68
-61.40
-67.86
-73.43
-77.33
-78.72
-77.04
-72.06
-63.95
-53.22
-40.54
-26.70
-12.50
1.28
13.98
25.08
34.25
41.38
46.53
49.93
51.88
52.73
52.82
52.34
51.36
49.91
47.96
45.58
42.90
40.13
37.45
34.94
32.53
30.02
27.11
23.57
19.29
14.32
8.82
2.93
-3.25
-9.65
-16.22
-22.85
-29.37
-35.64
-41.64
-47.45
-53.22
-58.99
-64.60
-69.67
-73.65
-75.94
-76.09
-73.81
-69.05
-61.94
-52.80
-42.06
-30.19
-17.60
-4.59
8.60
21.65
34.03
44.94
53.41
58.61
60.19
58.42
54.24
48.92
43.63
39.20
35.87
33.49
31.71
30.19
28.74
27.25
25.64
23.76
21.44
18.48
14.83
10.60
6.04
1.41
-3.15
-7.62
-12.07
-16.53
-21.00
-25.44
-29.93
-34.62
-39.80
-45.66
-52.15
-58.88
-65.10
-69.92
-72.47
-72.14
-68.67
-62.15
-53.01
-41.94
-29.80
-17.40
-5.48
5.46
15.03
23.01
29.24
33.66
36.34
37.54
37.68
37.23
36.62
36.11
35.77
35.45
34.90
33.94
32.45
30.51
28.27
25.92
23.54
21.08
18.34
15.12
11.28
6.81
1.85
-3.42
-8.87
-14.40
-20.00
-25.67
-31.49
-37.54
-43.93
-50.71
-57.78
-64.80
-71.18
-76.11
-78.74
-78.30
-74.38
-66.99
-56.63
-44.18
-30.71
-17.20
-4.44
7.13
17.31
26.07
33.43
39.40
43.95
47.05
48.76
49.22
48.76
47.77
46.72
45.92
45.45
45.13
44.55
43.33
41.21
38.21
34.62
30.79
27.05
23.48
19.90
15.93
11.15
5.29
-1.65
-9.38
-17.47
-25.50
-33.28
-40.93
-48.84
-57.47
-67.14
-77.78
-88.72
-98.71
-106.01
-108.84
-105.82
-96.51
-81.65
-63.04
-43.07
-24.10
-7.77
5.29
15.40
23.52
30.61
37.28
43.52
48.84
52.55
54.20
53.76
51.66
48.55
45.04
41.54
38.19
35.00
32.03
29.44
27.43
26.05
25.17
24.37
23.13
21.03
17.85
13.67
8.73
3.32
-2.40
-8.31
-14.37
-20.48
-26.50
-32.35
-38.17
-44.24
-50.90
-58.32
-66.25
-73.99
-80.52
-84.76
-85.90
-83.50
-77.55
-68.41
-56.67
-43.09
-28.55
-13.90
0.09
12.83
23.97
33.27
40.62
45.94
49.24
50.73
50.80
49.97
48.79
47.58
46.46
45.32
44.02
42.53
40.92
39.35
37.85
36.30
34.41
31.85
28.38
23.97
18.80
13.14
7.26
1.29
-4.73
-10.92
-17.47
-24.55
-32.28
-40.60
-49.14
-57.23
-63.88
-67.96
-68.51
-64.95
-57.32
-46.25
-32.82
-18.25
-3.59
10.33
23.00
34.03
43.14
50.10
54.80
57.40
58.31
58.07
57.16
55.93
54.45
52.68
50.58
48.21
45.79
43.50
41.45
39.49
37.34
34.62
31.02
26.39
20.78
14.45
7.73
0.96
-5.67
-12.08
-18.39
-24.85
-31.81
-39.60
-48.34
-57.79
-67.18
-75.32
-80.79
-82.38
-79.37
-71.74
-60.18
-45.80
-29.86
-13.49
2.35
16.92
29.71
40.39
48.84
55.16
59.56
62.30
63.61
63.67
62.64
60.72
58.17
55.35
52.53
49.89
47.44
44.99
42.34
39.31
35.77
31.70
27.03
21.64
15.35
7.93
-0.75
-10.70
-21.78
-33.71
-46.08
-58.32
-69.75
-79.60
-87.08
-91.47
-92.29
-89.33
-82.79
-73.15
-61.18
-47.79
-33.84
-20.03
-6.83
5.53
17.03
27.75
37.77
47.09
55.63
63.14
69.30
73.75
76.22
76.64
75.19
72.31
68.54
64.41
60.28
56.26
52.29
48.23
44.00
39.61
35.19
30.88
26.72
22.63
18.45
13.98
9.08
3.69
-2.22
-8.61
-15.35
-22.25
-29.07
-35.66
-42.10
-48.65
-55.67
-63.40
-71.64
-79.73
-86.59
-91.02
-91.98
-88.84
-81.47
-70.23
-55.93
-39.66
-22.72
-6.39
8.27
20.58
30.24
37.37
42.34
45.59
47.60
48.70
49.15
49.09
48.55
47.51
45.89
43.71
41.05
38.11
35.15
32.36
29.76
27.19
24.33
20.88
16.64
11.61
5.96
-0.03
-6.12
-12.17
-18.19
-24.33
-30.80
-37.81
-45.38
-53.25
-60.82
-67.14
-71.09
-71.66
-68.25
-60.86
-50.09
-37.05
-22.92
-8.75
4.72
17.05
27.92
37.05
44.16
49.08
51.82
52.69
52.17
50.82
49.07
47.19
45.25
43.19
40.92
38.32
35.41
32.26
29.02
25.77
22.50
19.05
15.16
10.57
5.15
-1.01
-7.64
-14.40
-21.02
-27.40
-33.60
-39.84
-46.38
-53.42
-60.90
-68.40
-75.13
-80.01
-81.90
-79.91
-73.63
-63.29
-49.66
-33.94
-17.42
-1.30
13.55
26.54
37.41
46.07
52.54
56.95
59.49
60.40
60.01
58.63
56.58
54.16
51.65
49.34
47.53
46.44
46.14
46.42
46.82
46.66
45.22
41.89
36.26
28.20
17.93
5.99
-6.88
-19.81
-31.99
-42.82
-52.07
-59.89
-66.71
-73.08
-79.33
-85.47
-90.99
-95.01
-96.53
-94.70
-89.03
-79.56
-66.78
-51.55
-34.92
-18.00
-1.81
12.84
25.41
35.65
43.60
49.42
53.37
55.76
56.86
56.93
56.17
54.73
52.66
50.04
47.02
43.80
40.63
37.67
34.91
32.16
29.11
25.46
20.97
15.62
9.53
2.96
-3.81
-10.50
-16.92
-23.00
-28.88
-34.88
-41.45
-48.99
-57.58
-66.79
-75.70
-83.07
-87.64
-88.52
-85.32
-78.22
-67.81
-54.93
-40.48
-25.39
-10.52
3.35
15.69
26.19
34.80
41.59
46.64
50.02
51.77
52.02
51.07
49.31
47.16
44.93
42.75
40.63
38.47
36.18
33.66
30.85
27.62
23.82
19.31
14.03
8.08
1.73
-4.64
-10.76
-16.50
-22.01
-27.57
-33.51
-40.05
-47.14
-54.42
-61.20
-66.62
-69.70
-69.58
-65.70
-57.98
-46.90
-33.42
-18.78
-4.27
9.10
20.64
30.04
37.27
42.45
45.75
47.37
47.49
46.36
44.23
41.41
38.20
34.91
31.82
29.13
26.93
25.13
23.47
21.58
19.07
15.66
11.27
6.07
0.36
-5.53
-11.39
-17.17
-23.02
-29.19
-35.93
-43.34
-51.26
-59.22
-66.36
-71.59
-73.74
-71.91
-65.73
-55.52
-42.29
-27.39
-12.22
2.17
15.14
26.36
35.64
42.80
47.65
50.22
50.83
50.10
48.79
47.46
46.34
45.32
44.13
42.55
40.62
38.53
36.41
34.27
31.87
28.95
25.35
21.07
16.24
10.92
5.07
-1.44
-8.66
-16.49
-24.71
-33.21
-42.10
-51.70
-62.22
-73.39
-84.20
-93.10
-98.35
-98.67
-93.59
-83.59
-69.82
-53.73
-36.70
-19.78
-3.69
11.10
24.24
35.37
44.15
50.33
53.89
55.17
54.81
53.61
52.28
51.20
50.34
49.38
47.95
45.88
43.21
40.17
36.91
33.43
29.53
24.91
19.35
12.84
5.62
-1.94
-9.44
-16.69
-23.71
-30.82
-38.42
-46.84
-56.11
-65.72
-74.70
-81.74
-85.53
-85.14
-80.18
-70.90
-58.03
-42.58
-25.64
-8.25
8.65
24.25
37.95
49.36
58.38
65.09
69.72
72.48
73.60
73.31
71.85
69.55
66.74
63.69
60.53
57.30
54.00
50.66
47.32
44.01
40.62
36.85
32.38
26.94
20.51
13.33
5.79
-1.70
-8.90
-15.79
-22.50
-29.26
-36.34
-43.93
-52.08
-60.61
-68.97
-76.27
-81.35
-83.09
-80.66
-73.77
-62.79
-48.62
-32.49
-15.64
0.85
16.20
29.88
41.53
50.92
57.88
62.40
64.65
64.98
63.97
62.22
60.26
58.40
56.70
54.99
53.02
50.60
47.64
44.24
40.57
36.80
32.99
29.04
24.77
20.02
14.76
9.12
3.33
-2.36
-7.83
-13.14
-18.49
-24.13
-30.30
-37.06
-44.28
-51.59
-58.40
-63.90
-67.25
-67.65
-64.55
-57.81
-47.63
-34.67
-19.83
-4.22
11.11
25.20
37.40
47.30
54.79
59.96
63.03
64.31
64.13
62.79
60.46
57.16
52.74
47.06
40.09
32.12
23.73
15.65
8.54
2.75
-1.74
-5.28
-8.40
-11.56
-15.10
-19.10
-23.50
-28.15
-32.89
-37.66
-42.46
-47.46
-52.79
-58.51
-64.44
-70.12
-74.84
-77.75
-78.02
-75.08
-68.76
-59.34
-47.48
-34.12
-20.27
-6.81
5.51
16.21
24.99
31.77
36.61
39.72
41.37
41.89
41.55
40.54
39.00
37.03
34.73
32.22
29.64
27.11
24.73
22.53
20.40
18.15
15.46
12.10
8.02
3.38
-1.49
-6.27
-10.79
-15.08
-19.33
-23.76
-28.51
-33.64
-39.15
-45.09
-51.42
-57.99
-64.32
-69.68
-73.14
-73.82
-71.13
-64.93
-55.62
-43.95
-30.92
-17.51
-4.50
7.53
18.26
27.54
35.28
41.39
45.91
48.87
50.48
51.01
50.79
50.15
49.34
48.43
47.32
45.80
43.64
40.69
37.02
32.90
28.68
24.64
20.86
17.15
13.19
8.68
3.52
-2.21
-8.25
-14.32
-20.26
-25.96
-31.46
-36.81
-42.16
-47.65
-53.44
-59.55
-65.69
-71.29
-75.49
-77.40
-76.34
-72.05
-64.70
-54.87
-43.33
-30.93
-18.43
-6.48
4.42
13.99
22.08
28.67
33.81
37.54
39.96
41.21
41.50
41.10
40.30
39.31
38.25
37.07
35.63
33.78
31.48
28.87
26.21
23.78
21.64
19.59
17.19
13.95
9.66
4.46
-1.13
-6.47
-11.06
-14.72
-17.63
-20.21
-22.98
-26.35
-30.55
-35.50
-40.78
-45.60
-48.92
-49.67
-47.01
-40.69
-31.25
-19.91
-8.39
1.63
8.87
12.84
13.82
12.68
10.47
8.04
5.90
4.14
2.71
1.57
0.79
0.56
0.97
1.95
3.21
4.39
5.17
5.43
5.26
4.86
4.41
3.86
2.92
1.22
-1.61
-5.63
-10.58
-16.00
-21.42
-26.63
-31.81
-37.41
-43.87
-51.30
-59.32
-67.07
-73.49
-77.64
-78.88
-77.03
-72.20
-64.70
-54.96
-43.47
-30.77
-17.46
-4.24
8.15
19.05
27.93
34.55
38.96
41.45
42.47
42.43
41.72
40.62
39.35
38.10
37.01
36.07
35.10
33.80
31.89
29.26
26.02
22.43
18.72
14.93
10.90
6.29
0.82
-5.57
-12.65
-19.98
-27.16
-34.01
-40.71
-47.74
-55.54
-64.26
-73.47
-82.13
-88.87
-92.36
-91.68
-86.56
-77.37
-64.96
-50.40
-34.74
-18.90
-3.60
10.61
23.35
34.33
43.38
50.41
55.41
58.52
60.02
60.29
59.74
58.77
57.60
56.26
54.63
52.50
49.70
46.25
42.34
38.26
34.28
30.50
26.75
22.67
17.87
12.12
5.48
-1.77
-9.24
-16.70
-24.19
-31.92
-40.17
-49.08
-58.46
-67.83
-76.43
-83.36
-87.67
-88.48
-85.16
-77.50
-65.74
-50.70
-33.52
-15.53
2.09
18.30
32.36
43.79
52.42
58.39
62.13
64.24
65.27
65.58
65.24
64.15
62.18
59.36
55.92
52.20
48.51
45.03
41.67
38.14
34.00
28.84
22.43
14.87
6.63
-1.53
-8.75
-14.38
-18.17
-20.40
-21.84
-23.49
-26.31
-30.84
-37.00
-44.06
-50.73
-55.48
-56.80
-53.72
-46.04
-34.39
-20.12
-4.84
10.01
23.43
34.97
44.50
51.99
57.32
60.35
61.06
59.81
57.20
53.96
50.68
47.62
44.75
41.89
38.90
35.74
32.47
29.15
25.80
22.36
18.68
14.59
9.96
4.78
-0.86
-6.76
-12.73
-18.69
-24.79
-31.30
-38.59
-46.80
-55.75
-64.76
-72.79
-78.56
-80.87
-78.88
-72.34
-61.63
-47.64
-31.63
-14.85
1.58
16.81
30.23
41.38
49.92
55.67
58.65
59.19
57.88
55.44
52.51
49.55
46.73
44.04
41.41
38.74
36.04
33.24
30.22
26.74
22.52
17.37
11.30
4.59
-2.34
-9.08
-15.41
-21.43
-27.54
-34.21
-41.80
-50.38
-59.60
-68.71
-76.66
-82.20
-84.13
-81.58
-74.23
-62.49
-47.38
-30.27
-12.52
4.76
20.83
35.18
47.42
57.24
64.43
69.04
71.41
72.07
71.62
70.46
68.79
66.61
63.91
60.72
57.19
53.50
49.78
46.01
42.08
37.76
32.91
27.46
21.46
15.08
8.51
1.92
-4.64
-11.26
-18.18
-25.74
-34.19
-43.61
-53.69
-63.75
-72.74
-79.48
-82.81
-81.90
-76.38
-66.45
-52.82
-36.60
-19.09
-1.56
14.87
29.38
41.47
51.01
58.05
62.84
65.62
66.66
66.24
64.67
62.39
59.80
57.21
54.70
52.09
49.12
45.68
41.84
37.93
34.21
30.71
27.11
22.85
17.49
10.98
3.74
-3.53
-10.23
-16.10
-21.34
-26.52
-32.20
-38.78
-46.32
-54.47
-62.53
-69.55
-74.46
-76.27
-74.29
-68.34
-58.80
-46.43
-32.14
-16.73
-0.75
15.47
31.64
47.26
61.51
73.32
81.49
85.12
83.91
78.32
69.55
59.22
48.93
39.89
32.66
27.28
23.46
20.76
18.79
17.14
15.38
13.03
9.71
5.26
-0.19
-6.25
-12.46
-18.43
-23.96
-29.08
-33.93
-38.70
-43.59
-48.75
-54.24
-59.97
-65.59
-70.42
-73.55
-74.01
-71.08
-64.51
-54.67
-42.38
-28.69
-14.63
-1.03
11.54
22.66
32.04
39.44
44.73
47.94
49.28
49.11
47.90
46.10
44.01
41.77
39.37
36.74
33.86
30.79
27.71
24.77
22.02
19.31
16.32
12.64
7.98
2.31
-4.10
-10.73
-17.02
-22.54
-27.23
-31.34
-35.42
-40.05
-45.64
-52.17
-59.17
-65.83
-71.10
-74.00
-73.80
-70.14
-63.13
-53.25
-41.26
-28.11
-14.73
-1.91
9.81
20.08
28.77
35.86
41.40
45.48
48.20
49.74
50.30
50.12
49.43
48.43
47.23
45.93
44.52
42.95
41.11
38.89
36.19
33.00
29.34
25.22
20.64
15.60
10.16
4.45
-1.34
-7.04
-12.60
-18.03
-23.41
-28.74
-33.99
-39.17
-44.38
-49.87
-55.92
-62.59
-69.53
-75.95
-80.76
-82.92
-81.69
-76.84
-68.64
-57.76
-45.02
-31.34
-17.50
-4.16
8.20
19.24
28.74
36.50
42.36
46.31
48.37
48.75
47.74
45.60
42.55
38.71
34.21
29.25
24.20
19.58
15.94
13.76
13.35
14.78
17.88
22.27
27.34
32.32
36.28
38.33
37.85
34.68
29.18
22.15
14.54
7.14
0.33
-5.89
-11.78
-17.70
-23.90
-30.56
-37.82
-45.78
-54.57
-64.09
-73.99
-83.51
-91.59
-97.07
-98.91
-96.55
-90.05
-80.13
-67.99
-54.93
-42.03
-29.88
-18.66
-8.29
1.22
9.69
16.74
22.06
25.55
27.44
28.21
28.39
28.42
28.54
28.80
29.10
29.30
29.28
28.93
28.27
27.30
26.07
24.52
22.55
20.03
16.86
13.08
8.81
4.20
-0.63
-5.65
-10.84
-16.18
-21.59
-27.00
-32.36
-37.74
-43.33
-49.37
-56.05
-63.37
-71.00
-78.21
-83.91
-86.88
-86.09
-80.99
-71.71
-59.07
-44.29
-28.72
-13.46
0.69
13.27
24.00
32.75
39.50
44.37
47.64
49.65
50.72
51.08
50.81
50.01
48.80
47.35
45.85
44.41
43.00
41.55
40.00
38.35
36.63
34.78
32.59
29.68
25.69
20.39
13.85
6.45
-1.27
-8.78
-15.74
-22.11
-28.11
-34.13
-40.59
-47.76
-55.66
-63.98
-72.06
-78.98
-83.71
-85.31
-83.11
-76.87
-66.83
-53.65
-38.32
-21.96
-5.67
9.63
23.27
34.84
44.14
51.16
56.02
58.95
60.27
60.42
59.86
59.01
58.13
57.37
56.70
56.01
55.20
54.20
52.96
51.39
49.32
46.57
42.98
38.52
33.31
27.51
21.30
14.74
7.81
0.56
-6.94
-14.49
-21.91
-29.15
-36.31
-43.55
-50.99
-58.61
-66.21
-73.46
-79.95
-85.12
-88.22
-88.38
-84.70
-76.60
-64.06
-47.69
-28.72
-8.71
10.72
28.14
42.47
53.05
59.77
63.04
63.72
62.85
61.40
60.03
58.97
58.20
57.55
56.84
55.96
54.79
53.22
51.13
48.45
45.30
41.87
38.37
34.87
31.28
27.38
22.94
17.84
12.06
5.69
-1.11
-8.23
-15.52
-22.85
-30.08
-37.17
-44.16
-51.22
-58.60
-66.52
-75.05
-83.98
-92.71
-100.32
-105.66
-107.57
-105.11
-97.84
-85.93
-70.17
-51.82
-32.33
-13.12
4.68
20.35
33.52
44.19
52.56
58.89
63.47
66.54
68.31
69.02
68.84
67.92
66.36
64.16
61.39
58.14
54.67
51.31
48.33
45.74
43.33
40.60
37.02
32.27
26.27
19.22
11.43
3.31
-4.85
-12.79
-20.34
-27.49
-34.35
-41.23
-48.47
-56.28
-64.43
-72.22
-78.48
-81.92
-81.41
-76.37
-66.96
-54.00
-38.72
-22.43
-6.30
8.86
22.51
34.30
43.91
51.12
55.82
58.17
58.55
57.55
55.80
53.72
51.53
49.24
46.75
44.02
41.09
38.07
35.06
32.05
28.91
25.42
21.39
16.70
11.42
5.72
-0.16
-6.00
-11.73
-17.41
-23.28
-29.66
-36.77
-44.63
-52.80
-60.39
-66.19
-68.97
-67.76
-62.23
-52.72
-40.15
-25.78
-10.84
3.64
16.91
28.42
37.80
44.84
49.47
51.85
52.31
51.31
49.29
46.61
43.51
40.21
36.90
33.89
31.44
29.74
28.70
27.94
26.86
24.86
21.53
16.88
11.32
5.57
0.31
-4.10
-7.80
-11.52
-16.33
-23.29
-33.06
-45.58
-59.93
-74.39
-86.84
-95.22
-98.00
-94.60
-85.40
-71.65
-55.08
-37.50
-20.47
-5.19
7.61
17.62
25.00
30.23
33.95
36.73
38.85
40.27
40.80
40.31
38.91
36.97
34.92
33.08
31.50
29.99
28.23
25.87
22.65
18.44
13.25
7.25
0.73
-6.00
-12.68
-19.25
-25.83
-32.69
-40.08
-48.13
-56.73
-65.46
-73.55
-79.95
-83.50
-83.19
-78.43
-69.23
-56.28
-40.74
-23.98
-7.30
8.27
22.05
33.68
43.04
50.20
55.33
58.70
60.64
61.54
61.75
61.49
60.79
59.57
57.68
55.08
51.91
48.48
45.11
41.96
38.94
35.73
31.93
27.25
21.63
15.23
8.34
1.27
-5.74
-12.61
-19.36
-26.13
-33.10
-40.47
-48.26
-56.23
-63.73
-69.77
-73.21
-73.03
-68.68
-60.24
-48.39
-34.28
-19.18
-4.25
9.67
22.13
32.94
42.05
49.46
55.11
59.00
61.18
61.87
61.42
60.18
58.42
56.31
53.90
51.22
48.38
45.51
42.74
40.09
37.45
34.60
31.32
27.43
22.88
17.66
11.88
5.67
-0.75
-7.10
-13.12
-18.72
-23.96
-29.12
-34.54
-40.50
-47.02
-53.83
-60.35
-65.70
-68.90
-69.02
-65.42
-57.92
-46.93
-33.28
-18.09
-2.47
12.62
26.47
38.53
48.34
55.49
59.61
60.46
58.02
52.66
45.11
36.38
27.61
19.70
13.22
8.30
4.73
2.25
0.66
-0.19
-0.48
-0.51
-0.79
-1.81
-3.87
-7.00
-10.92
-15.17
-19.33
-23.11
-26.44
-29.49
-32.52
-35.87
-39.83
-44.52
-49.81
-55.34
-60.47
-64.40
-66.37
-65.70
-62.03
-55.37
-46.07
-34.83
-22.50
-9.90
2.26
13.47
23.35
31.63
38.06
42.51
44.99
45.70
45.07
43.67
42.01
40.45
39.10
37.90
36.65
35.19
33.41
31.33
29.05
26.69
24.37
22.16
20.01
17.73
15.02
11.59
7.27
2.11
-3.61
-9.49
-15.16
-20.46
-25.43
-30.28
-35.28
-40.61
-46.40
-52.53
-58.70
-64.33
-68.63
-70.72
-69.85
-65.61
-58.02
-47.57
-35.09
-21.56
-7.99
4.81
16.23
25.95
33.93
40.31
45.30
49.11
51.85
53.54
54.22
53.95
52.92
51.32
49.44
47.43
45.40
43.36
41.26
39.05
36.70
34.14
31.27
27.98
24.18
19.87
15.16
10.26
5.33
0.45
-4.44
-9.48
-14.72
-20.17
-25.71
-31.22
-36.61
-41.92
-47.29
-52.93
-59.06
-65.72
-72.65
-79.23
-84.46
-87.26
-86.73
-82.44
-74.57
-63.84
-51.24
-37.84
-24.48
-11.79
-0.14
10.26
19.28
26.83
32.83
37.20
39.95
41.18
41.19
40.38
39.22
38.03
36.87
35.47
33.41
30.31
26.11
21.21
16.34
12.38
10.00
9.52
10.93
13.99
18.34
23.44
28.51
32.52
34.31
32.98
28.30
20.88
11.92
2.84
-5.34
-12.30
-18.34
-24.20
-30.58
-37.96
-46.40
-55.69
-65.33
-74.56
-82.47
-88.00
-90.22
-88.44
-82.51
-72.87
-60.51
-46.74
-32.84
-19.84
-8.33
1.52
9.75
16.53
21.98
26.16
29.12
30.95
31.81
31.95
31.63
31.12
30.57
30.03
29.48
28.80
27.90
26.72
25.24
23.46
21.32
18.72
15.53
11.70
7.29
2.48
-2.46
-7.31
-11.91
-16.28
-20.57
-24.98
-29.71
-34.88
-40.56
-46.77
-53.51
-60.61
-67.73
-74.16
-79.02
-81.32
-80.34
-75.80
-67.90
-57.26
-44.73
-31.15
-17.26
-3.66
9.15
20.71
30.60
38.48
44.12
47.51
48.84
48.57
47.33
45.76
44.40
43.46
42.93
42.58
42.13
41.42
40.37
38.99
37.23
34.95
31.91
27.92
22.90
17.01
10.55
3.90
-2.58
-8.71
-14.41
-19.77
-24.98
-30.32
-36.16
-42.84
-50.61
-59.33
-68.49
-77.10
-83.89
-87.58
-87.25
-82.54
-73.74
-61.73
-47.67
-32.74
-17.91
-3.80
9.28
21.16
31.74
40.86
48.33
54.03
58.00
60.41
61.58
61.92
61.74
61.27
60.54
59.47
57.90
55.70
52.90
49.72
46.48
43.44
40.61
37.73
34.32
29.95
24.44
18.00
11.10
4.27
-2.12
-7.98
-13.48
-18.97
-24.83
-31.47
-39.16
-47.90
-57.22
-66.11
-73.05
-76.48
-75.20
-68.87
-58.19
-44.71
-30.35
-16.79
-5.07
4.59
12.56
19.45
25.71
31.47
36.55
40.72
43.85
45.98
47.35
48.18
48.59
48.60
48.14
47.18
45.74
43.96
42.01
40.07
38.25
36.53
34.72
32.47
29.44
25.39
20.30
14.36
7.87
1.11
-5.74
-12.61
-19.45
-26.22
-32.91
-39.57
-46.43
-53.75
-61.69
-70.07
-78.19
-84.87
-88.72
-88.55
-83.72
-74.35
-61.22
-45.51
-28.51
-11.37
5.02
19.96
32.95
43.61
51.76
57.45
60.93
62.65
63.06
62.57
61.44
59.82
57.78
55.38
52.73
49.93
47.11
44.37
41.73
39.10
36.28
32.97
28.88
23.83
17.88
11.29
4.47
-2.20
-8.49
-14.47
-20.45
-26.87
-34.06
-42.09
-50.54
-58.58
-65.08
-68.82
-68.83
-64.61
-56.28
-44.48
-30.31
-14.95
0.43
14.91
27.78
38.59
47.02
52.97
56.55
58.08
58.03
56.92
55.17
53.01
50.47
47.55
44.29
40.90
37.67
34.88
32.57
30.54
28.40
25.68
22.00
17.23
11.45
4.95
-1.86
-8.61
-15.10
-21.35
-27.60
-34.22
-41.52
-49.53
-57.91
-65.81
-72.07
-75.43
-74.88
-69.93
-60.78
-48.26
-33.61
-18.14
-2.93
11.25
23.97
34.97
44.03
50.91
55.47
57.77
58.11
57.04
55.14
52.88
50.56
48.27
46.04
43.86
41.75
39.66
37.52
35.15
32.40
29.15
25.42
21.26
16.77
12.02
7.00
1.69
-3.96
-9.95
-16.32
-23.09
-30.32
-38.03
-46.13
-54.34
-62.10
-68.65
-73.17
-74.92
-73.49
-68.90
-61.57
-52.16
-41.36
-29.78
-17.90
-6.15
5.07
15.24
23.88
30.58
35.16
37.67
38.42
37.93
36.81
35.61
34.71
34.21
33.93
33.51
32.59
30.90
28.45
25.37
21.84
17.93
13.64
8.91
3.80
-1.55
-6.92
-12.10
-17.03
-21.75
-26.48
-31.44
-36.84
-42.79
-49.25
-55.97
-62.52
-68.20
-72.16
-73.49
-71.53
-65.99
-57.14
-45.70
-32.71
-19.22
-6.10
6.08
16.99
26.43
34.28
40.46
44.98
47.96
49.66
50.37
50.34
49.77
48.77
47.43
45.77
43.82
41.54
38.92
35.93
32.70
29.42
26.24
23.21
20.14
16.69
12.58
7.76
2.52
-2.68
-7.39
-11.44
-15.08
-18.80
-23.18
-28.58
-35.01
-42.09
-49.14
-55.33
-59.77
-61.64
-60.35
-55.67
-47.85
-37.57
-25.81
-13.61
-1.80
9.05
18.63
26.81
33.46
38.52
41.96
43.91
44.65
44.54
43.93
43.13
42.28
41.43
40.51
39.37
37.85
35.81
33.22
30.20
26.91
23.48
19.95
16.19
12.10
7.61
2.80
-2.11
-6.83
-11.18
-15.08
-18.67
-22.20
-26.02
-30.41
-35.57
-41.46
-47.71
-53.65
-58.32
-60.75
-60.10
-56.00
-48.62
-38.63
-27.02
-14.82
-2.88
8.18
18.00
26.38
33.15
38.24
41.64
43.49
44.01
43.50
42.24
40.50
38.53
36.60
34.93
33.63
32.64
31.69
30.42
28.52
25.87
22.55
18.73
14.48
9.71
4.12
-2.50
-10.10
-18.25
-26.15
-32.96
-38.07
-41.28
-42.79
-43.05
-42.59
-41.94
-41.59
-41.97
-43.40
-45.86
-48.89
-51.52
-52.52
-50.78
-45.70
-37.46
-26.91
-15.26
-3.71
6.89
16.11
23.85
30.11
34.91
38.21
40.02
40.44
39.75
38.31
36.49
34.61
32.89
31.52
30.55
29.89
29.33
28.50
27.02
24.63
21.30
17.20
12.69
8.09
3.62
-0.70
-4.96
-9.31
-13.89
-18.77
-23.90
-29.19
-34.41
-39.36
-43.89
-48.03
-52.01
-56.26
-61.20
-67.07
-73.73
-80.58
-86.66
-90.86
-92.17
-89.96
-84.14
-75.10
-63.66
-50.80
-37.41
-24.19
-11.53
0.38
11.43
21.45
30.17
37.28
42.56
45.98
47.73
48.23
47.98
47.41
46.85
46.39
46.00
45.49
44.66
43.36
41.54
39.25
36.57
33.60
30.37
26.87
23.12
19.12
14.92
10.57
6.07
1.39
-3.46
-8.45
-13.47
-18.41
-23.15
-27.70
-32.12
-36.60
-41.32
-46.46
-52.12
-58.31
-64.86
-71.40
-77.32
-81.85
-84.17
-83.57
-79.64
-72.40
-62.29
-50.09
-36.80
-23.35
-10.53
1.17
11.56
20.67
28.59
35.39
41.06
45.46
48.49
50.19
50.78
50.61
50.05
49.40
48.78
48.21
47.65
47.10
46.55
45.99
45.29
44.26
42.75
40.66
38.08
35.15
32.06
29.01
26.18
23.75
21.83
20.31
18.83
16.83
13.72
9.12
2.93
-4.71
-13.60
-23.63
-34.87
-47.38
-60.94
-74.90
-88.15
-99.41
-107.49
-111.57
-111.35
-107.02
-99.03
-88.07
-74.87
-60.28
-45.10
-30.16
-16.17
-3.63
7.14
16.03
23.07
28.36
32.11
34.58
36.12
37.12
37.91
38.66
39.39
39.97
40.21
40.01
39.35
38.28
36.88
35.21
33.26
30.99
28.39
25.40
22.01
18.16
13.77
8.81
3.30
-2.58
-8.56
-14.34
-19.71
-24.68
-29.46
-34.43
-39.90
-45.98
-52.41
-58.53
-63.37
-65.83
-64.95
-60.20
-51.66
-39.99
-26.31
-11.91
2.12
15.00
26.29
35.77
43.33
48.85
52.32
53.91
54.00
53.10
51.71
50.20
48.71
47.28
45.84
44.39
42.95
41.51
40.02
38.34
36.26
33.58
30.14
25.84
20.72
14.91
8.62
2.11
-4.45
-10.96
-17.43
-23.89
-30.38
-36.91
-43.52
-50.33
-57.48
-65.00
-72.64
-79.66
-84.99
-87.38
-85.81
-79.82
-69.69
-56.29
-40.87
-24.71
-8.85
5.99
19.36
30.98
40.65
48.25
53.81
57.53
59.73
60.79
60.98
60.44
59.24
57.44
55.25
52.97
50.87
49.04
47.39
45.64
43.51
40.84
37.62
33.89
29.65
24.83
19.33
13.08
6.22
-1.03
-8.37
-15.57
-22.53
-29.30
-36.07
-43.09
-50.56
-58.59
-67.06
-75.53
-83.20
-88.99
-91.68
-90.20
-83.95
-73.01
-58.22
-41.02
-23.15
-6.23
8.56
20.67
30.13
37.35
42.80
46.96
50.11
52.47
54.19
55.41
56.24
56.82
57.32
57.91
58.75
59.84
60.95
61.58
61.17
59.29
55.83
51.11
45.69
40.10
34.58
29.04
23.18
16.63
9.24
1.02
-7.83
-17.08
-26.54
-36.12
-45.78
-55.52
-65.32
-75.04
-84.37
-92.68
-99.14
-102.77
-102.68
-98.34
-89.74
-77.37
-62.17
-45.30
-27.97
-11.30
3.82
16.77
27.29
35.38
41.32
45.50
48.30
50.08
51.09
51.48
51.35
50.72
49.59
47.96
45.92
43.66
41.42
39.37
37.56
35.83
33.82
31.12
27.42
22.58
16.80
10.44
3.94
-2.35
-8.28
-13.96
-19.67
-25.80
-32.62
-40.16
-48.10
-55.74
-62.10
-66.11
-66.91
-63.98
-57.34
-47.43
-34.97
-20.87
-6.01
8.71
22.44
34.43
44.11
51.19
55.74
58.11
58.77
58.19
56.72
54.60
52.01
49.13
46.16
43.25
40.47
37.83
35.30
32.79
30.20
27.28
23.78
19.42
14.11
8.05
1.69
-4.43
-9.95
-14.88
-19.65
-24.94
-31.40
-39.37
-48.64
-58.43
-67.41
-73.94
-76.41
-73.71
-65.52
-52.48
-36.09
-18.22
-0.62
15.40
29.14
40.39
49.22
55.76
60.19
62.73
63.65
63.29
61.91
59.77
57.03
53.85
50.44
47.00
43.72
40.67
37.81
34.93
31.75
28.00
23.46
18.08
11.94
5.20
-1.92
-9.24
-16.64
-24.05
-31.47
-38.88
-46.33
-53.95
-61.86
-70.11
-78.47
-86.29
-92.52
-95.94
-95.54
-90.91
-82.42
-71.18
-58.63
-46.17
-34.79
-24.90
-16.38
-8.58
-0.42
9.41
22.18
38.48
57.79
78.22
96.95
111.05
118.55
119.13
114.05
105.56
95.97
86.87
78.89
71.92
65.49
59.18
52.69
45.79
38.23
29.73
20.15
9.60
-1.47
-12.41
-22.60
-31.72
-39.95
-47.84
-56.02
-64.80
-73.95
-82.54
-89.23
-92.67
-91.83
-86.38
-76.72
-63.90
-49.31
-34.37
-20.21
-7.46
3.69
13.35
21.69
28.76
34.44
38.52
40.92
41.75
41.35
40.18
38.69
37.24
35.99
34.94
33.94
32.76
31.24
29.29
27.00
24.49
21.82
18.93
15.60
11.62
6.89
1.55
-4.04
-9.47
-14.42
-18.81
-22.77
-26.63
-30.77
-35.55
-41.10
-47.31
-53.67
-59.35
-63.28
-64.41
-62.01
-55.83
-46.29
-34.29
-21.01
-7.65
4.89
15.98
25.35
32.96
38.90
43.30
46.26
47.92
48.36
47.74
46.23
44.07
41.55
38.94
36.45
34.18
32.13
30.23
28.39
26.51
24.47
22.07
19.09
15.31
10.64
5.24
-0.56
-6.28
-11.50
-16.02
-19.96
-23.69
-27.75
-32.59
-38.37
-44.87
-51.47
-57.22
-61.07
-62.18
-60.05
-54.65
-46.43
-36.11
-24.53
-12.54
-0.80
10.15
19.85
27.96
34.21
38.48
40.86
41.66
41.34
40.42
39.36
38.41
37.63
36.86
35.90
34.64
33.10
31.41
29.74
28.11
26.44
24.50
22.13
19.29
16.11
12.84
9.68
6.68
3.79
0.84
-2.34
-5.96
-10.28
-15.58
-22.09
-29.84
-38.52
-47.46
-55.76
-62.41
-66.63
-67.96
-66.31
-61.95
-55.36
-47.14
-37.87
-28.07
-18.15
-8.46
0.65
8.81
15.62
20.79
24.26
26.23
27.12
27.47
27.69
28.03
28.53
29.07
29.48
29.61
29.26
28.27
26.58
24.18
21.22
17.91
14.41
10.80
6.96
2.71
-2.08
-7.45
-13.22
-19.12
-24.83
-30.11
-34.85
-39.10
-43.09
-47.12
-51.54
-56.54
-62.06
-67.62
-72.38
-75.30
-75.40
-72.06
-65.20
-55.33
-43.39
-30.44
-17.49
-5.29
5.64
15.00
22.65
28.60
33.02
36.25
38.70
40.73
42.53
44.03
44.96
45.09
44.28
42.66
40.49
38.11
35.75
33.50
31.31
29.04
26.52
23.62
20.23
16.31
11.81
6.75
1.11
-5.10
-11.91
-19.22
-26.86
-34.43
-41.45
-47.43
-52.12
-55.62
-58.35
-60.95
-63.86
-67.11
-70.15
-72.04
-71.73
-68.45
-62.01
-52.78
-41.57
-29.36
-16.98
-5.05
6.08
16.20
25.17
32.87
39.09
43.68
46.53
47.65
47.22
45.51
42.90
39.77
36.45
33.23
30.22
27.47
24.86
22.28
19.58
16.72
13.68
10.50
7.20
3.73
0.02
-4.05
-8.55
-13.43
-18.56
-23.67
-28.51
-32.89
-36.85
-40.63
-44.69
-49.43
-54.99
-61.04
-66.80
-71.23
-73.30
-72.36
-68.22
-61.12
-51.57
-40.19
-27.64
-14.60
-1.82
9.99
20.25
28.66
35.15
39.87
43.03
44.83
45.49
45.28
44.58
43.70
42.84
42.00
41.01
39.75
38.23
36.66
35.28
34.23
33.35
32.21
30.24
26.95
22.14
15.95
8.82
1.37
-5.84
-12.51
-18.70
-24.89
-31.78
-40.05
-50.02
-61.46
-73.53
-84.96
-94.28
-100.16
-101.66
-98.42
-90.71
-79.37
-65.58
-50.61
-35.60
-21.40
-8.55
2.63
11.94
19.32
24.86
28.77
31.47
33.47
35.24
37.10
39.12
41.18
43.04
44.43
45.18
45.17
44.34
42.61
39.88
36.02
30.99
24.86
17.88
10.43
2.89
-4.46
-11.53
-18.33
-25.04
-31.95
-39.48
-48.10
-58.18
-69.68
-81.93
-93.60
-102.95
-108.31
-108.53
-103.28
-93.02
-78.79
-61.83
-43.38
-24.51
-6.14
10.96
26.22
39.27
49.98
58.39
64.64
68.96
71.60
72.84
72.98
72.29
71.00
69.23
67.06
64.52
61.67
58.57
55.27
51.79
48.07
44.01
39.49
34.40
28.74
22.63
16.24
9.80
3.41
-2.94
-9.40
-16.17
-23.40
-31.10
-39.16
-47.39
-55.46
-62.98
-69.40
-73.96
-75.87
-74.34
-68.86
-59.28
-45.86
-29.19
-10.19
10.01
30.10
48.69
64.47
76.45
84.20
87.92
88.39
86.76
84.16
81.47
79.10
77.12
75.34
73.52
71.52
69.27
66.82
64.22
61.52
58.75
55.90
52.85
49.37
45.15
39.92
33.56
26.19
18.17
9.98
2.05
-5.32
-12.08
-18.37
-24.55
-31.09
-38.47
-46.92
-56.14
-65.16
-72.40
-76.03
-74.55
-67.28
-54.60
-37.86
-19.01
-0.07
17.20
31.58
42.34
49.27
52.54
52.68
50.46
46.73
42.27
37.61
33.07
28.81
24.97
21.70
19.16
17.37
16.20
15.36
14.47
13.19
11.31
8.73
5.44
1.50
-2.96
-7.74
-12.51
-17.00
-20.99
-24.54
-27.93
-31.63
-36.11
-41.69
-48.31
-55.49
-62.28
-67.49
-69.89
-68.59
-63.24
-54.03
-41.67
-27.09
-11.31
4.69
20.01
33.80
45.34
54.04
59.67
62.30
62.34
60.37
57.06
53.02
48.70
44.44
40.38
36.61
33.11
29.84
26.66
23.40
19.83
15.74
11.00
5.60
-0.31
-6.52
-12.79
-18.92
-24.89
-30.83
-37.05
-43.88
-51.53
-59.85
-68.28
-75.82
-81.25
-83.45
-81.57
-75.33
-65.01
-51.38
-35.60
-18.98
-2.83
11.83
24.33
34.43
42.20
47.84
51.57
53.54
53.93
52.99
51.12
48.72
46.13
43.45
40.64
37.55
34.12
30.44
26.69
22.93
19.08
14.87
10.02
4.39
-1.89
-8.55
-15.28
-21.98
-28.74
-35.81
-43.38
-51.46
-59.71
-67.47
-73.82
-77.69
-78.12
-74.44
-66.57
-55.07
-41.05
-25.86
-10.77
3.32
15.94
26.89
36.14
43.58
49.14
52.80
54.68
55.04
54.19
52.42
49.96
47.00
43.76
40.47
37.36
34.50
31.80
29.00
25.80
21.89
17.10
11.36
4.70
-2.65
-10.34
-17.87
-24.78
-30.82
-36.07
-40.94
-45.96
-51.51
-57.62
-63.91
-69.68
-74.12
-76.46
-76.08
-72.62
-65.99
-56.43
-44.55
-31.22
-17.45
-4.14
8.03
18.68
27.66
34.88
40.31
43.96
45.89
46.29
45.49
43.91
41.90
39.76
37.63
35.55
33.47
31.32
29.00
26.39
23.35
19.68
15.21
9.84
3.61
-3.23
-10.35
-17.41
-24.19
-30.73
-37.24
-44.07
-51.51
-59.55
-67.83
-75.59
-81.82
-85.45
-85.59
-81.72
-73.84
-62.48
-48.57
-33.25
-17.60
-2.49
11.48
23.92
34.55
43.19
49.73
54.18
56.69
57.59
57.28
56.16
54.56
52.66
50.52
48.16
45.52
42.64
39.59
36.51
33.47
30.47
27.35
23.87
19.84
15.19
10.02
4.52
-1.14
-6.93
-12.97
-19.45
-26.56
-34.35
-42.66
-51.09
-59.00
-65.52
-69.64
-70.43
-67.27
-60.06
-49.29
-35.97
-21.34
-6.66
7.07
19.16
29.24
37.17
42.98
46.82
48.91
49.56
49.11
47.88
46.17
44.20
42.08
39.87
37.60
35.30
33.01
30.79
28.68
26.56
24.19
21.29
17.62
13.18
8.20
3.05
-1.98
-6.82
-11.71
-17.08
-23.28
-30.39
-38.05
-45.54
-51.88
-56.06
-57.21
-54.76
-48.47
-38.56
-25.61
-10.53
5.59
21.62
36.60
49.79
60.77
69.45
76.05
80.93
84.56
87.36
89.60
91.39
92.77
93.71
94.33
94.92
95.97
97.96
101.15
105.24
109.19
111.35
109.88
103.50
92.15
77.21
61.26
47.23
37.41
32.68
32.25
34.00
35.26
33.52
27.15
15.79
0.48
-16.53
-32.27
-43.84
-49.33
-48.57
-43.39
-37.14
-33.68
-36.41
-47.51
-67.66
-95.95
-130.02
-166.28
-200.23
-227.16
-243.05
-245.24
-232.67
-205.62
-165.58
-115.24
-58.70
-1.50
50.06
90.40
116.09
126.95
125.70
116.76
104.66
92.69
82.59
74.88
69.60
66.89
66.92
69.31
72.55
73.77
69.27
55.69
31.27
-3.12
-44.10
-86.89
-126.94
-161.16
-188.30
-208.36
-221.64
-228.14
-227.75
-220.83
-208.73
-193.79
-178.58
-164.99
-153.57
-143.45
-132.86
-119.93
-103.29
-82.49
-58.22
-32.61
-9.23
7.53
13.81
8.02
-7.89
-28.72
-47.72
-59.27
-61.00
-54.33
-43.10
-31.44
-21.89
-14.87
-9.50
-4.84
-0.70
2.34
3.58
2.95
1.11
-0.84
-1.96
-1.93
-1.19
-0.75
-1.63
-4.35
-8.56
-13.09
-16.27
-16.63
-13.42
-6.93
1.71
10.98
19.62
26.99
33.19
38.68
43.99
49.30
54.36
58.68
61.72
63.18
63.07
61.66
59.37
56.62
53.77
51.04
48.56
46.36
44.40
42.58
40.78
38.84
36.65
34.13
31.25
27.97
24.32
20.33
16.11
11.81
7.56
3.42
-0.74
-5.21
-10.28
-16.08
-22.37
-28.48
-33.50
-36.52
-37.01
-34.91
-30.58
-24.57
-17.30
-8.98
0.27
10.24
20.44
30.12
38.48
44.94
49.34
51.91
53.13
53.42
53.05
52.08
50.52
48.46
46.08
43.60
41.18
38.83
36.44
33.82
30.84
27.49
23.85
20.05
16.18
12.26
8.20
3.95
-0.55
-5.29
-10.27
-15.49
-20.99
-26.78
-32.71
-38.41
-43.33
-46.80
-48.21
-47.14
-43.42
-37.14
-28.61
-18.31
-6.79
5.30
17.28
28.49
38.34
46.40
52.46
56.59
59.05
60.22
60.43
59.89
58.67
56.80
54.38
51.65
48.93
46.42
44.20
42.06
39.65
36.66
32.87
28.30
23.15
17.71
12.28
7.05
2.11
-2.64
-7.41
-12.50
-18.19
-24.64
-31.81
-39.35
-46.66
-52.97
-57.48
-59.51
-58.64
-54.79
-48.22
-39.35
-28.76
-17.04
-4.76
7.53
19.26
29.90
39.01
46.32
51.74
55.41
57.53
58.33
57.99
56.70
54.63
52.05
49.27
46.53
44.02
41.74
39.55
37.28
34.81
32.12
29.29
26.36
23.31
19.97
16.11
11.58
6.36
0.55
-5.75
-12.50
-19.81
-27.82
-36.53
-45.64
-54.48
-62.08
-67.40
-69.66
-68.48
-63.95
-56.55
-46.97
-35.92
-24.12
-12.24
-0.96
9.04
17.19
23.10
26.69
28.22
28.19
27.19
25.74
24.14
22.47
20.58
18.25
15.29
11.65
7.42
2.80
-1.88
-6.15
-9.47
-11.36
-11.66
-10.79
-9.74
-9.81
-12.03
-16.69
-23.12
-29.94
-35.56
-38.83
-39.38
-37.53
-33.95
-29.19
-23.45
-16.45
-7.61
3.84
18.78
38.04
62.17
91.06
123.55
157.31
189.04
215.18
232.72
239.89
236.45
223.40
202.51
175.73
144.93
111.90
78.44
46.33
17.21
-7.70
-27.85
-43.23
-54.23
-61.33
-64.94
-65.53
-64.01
-62.03
-61.81
-65.37
-73.63
-85.70
-99.09
-110.76
-118.40
-121.43
-120.97
-119.02
-117.25
-116.18
-115.16
-112.94
-108.55
-101.70
-92.80
-82.52
-71.41
-59.70
-47.50
-34.98
-22.57
-11.00
-1.03
6.75
12.22
15.76
18.03
19.74
21.33
22.88
24.18
24.92
24.93
24.26
23.17
21.95
20.82
19.82
18.74
17.31
15.26
12.49
9.14
5.49
1.83
-1.71
-5.26
-9.20
-13.97
-19.76
-26.40
-33.25
-39.40
-43.88
-45.98
-45.33
-41.98
-36.22
-28.46
-19.17
-8.84
2.00
12.72
22.71
31.45
38.47
43.48
46.19
46.44
44.19
39.75
33.69
26.79
19.80
13.23
7.31
2.15
-2.09
-5.12
-6.64
-6.61
-5.43
-3.91
-3.03
-3.54
-5.71
-9.27
-13.67
-18.30
-22.81
-27.13
-31.46
-36.12
-41.38
-47.32
-53.69
-59.89
-64.99
-67.99
-67.99
-64.49
-57.42
-47.08
-33.97
-18.62
-1.60
16.41
34.52
51.60
66.48
78.17
86.16
90.45
91.57
90.22
87.14
82.89
77.85
72.24
66.29
60.23
54.37
49.00
44.33
40.38
36.91
33.58
29.95
25.71
20.74
15.14
9.21
3.24
-2.49
-7.85
-12.78
-17.31
-21.47
-25.26
-28.71
-31.91
-35.08
-38.49
-42.32
-46.54
-50.80
-54.52
-56.98
-57.53
-55.66
-51.15
-44.05
-34.76
-23.92
-12.39
-1.02
9.54
18.85
26.76
33.16
37.98
41.07
42.32
41.77
39.68
36.53
32.90
29.34
26.22
23.67
21.66
19.98
18.34
16.50
14.29
11.65
8.61
5.23
1.58
-2.25
-6.14
-9.97
-13.67
-17.25
-20.88
-24.78
-29.22
-34.28
-39.85
-45.58
-50.92
-55.27
-58.01
-58.62
-56.71
-52.14
-45.04
-35.85
-25.26
-14.06
-3.00
7.32
16.48
24.25
30.52
35.26
38.53
40.40
41.02
40.54
39.13
36.96
34.21
31.14
28.05
25.23
22.88
21.00
19.37
17.62
15.32
12.19
8.18
3.52
-1.41
-6.26
-10.87
-15.29
-19.75
-24.47
-29.60
-35.13
-41.00
-47.05
-53.06
-58.66
-63.27
-66.19
-66.78
-64.67
-59.91
-52.94
-44.39
-34.86
-24.80
-14.50
-4.20
5.80
15.15
23.43
30.31
35.59
39.26
41.42
42.28
42.11
41.17
39.74
38.01
36.17
34.32
32.52
30.81
29.20
27.64
26.00
24.14
21.86
19.02
15.56
11.47
6.84
1.77
-3.63
-9.29
-15.11
-20.96
-26.69
-32.14
-37.25
-42.07
-46.70
-51.23
-55.59
-59.45
-62.35
-63.75
-63.16
-60.27
-54.96
-47.29
-37.57
-26.29
-14.14
-1.87
9.83
20.47
29.79
37.68
44.08
48.91
52.09
53.59
53.51
52.16
49.94
47.32
44.69
42.26
40.08
37.97
35.65
32.80
29.25
24.98
20.17
15.00
9.60
3.96
-2.00
-8.31
-14.85
-21.40
-27.74
-33.77
-39.57
-45.37
-51.42
-57.85
-64.70
-71.85
-79.04
-85.82
-91.46
-94.96
-95.24
-91.40
-83.04
-70.45
-54.53
-36.58
-17.88
0.46
17.66
33.14
46.39
56.91
64.30
68.41
69.36
67.61
63.86
58.94
53.78
49.26
46.09
44.61
44.66
45.64
46.70
47.05
46.31
44.49
41.90
38.82
35.32
31.25
26.40
20.68
14.24
7.39
0.49
-6.21
-12.62
-18.77
-24.71
-30.50
-36.14
-41.62
-46.96
-52.15
-57.19
-62.01
-66.40
-69.98
-72.20
-72.42
-70.00
-64.57
-56.17
-45.27
-32.74
-19.58
-6.73
5.12
15.52
24.27
31.22
36.29
39.42
40.64
40.22
38.59
36.36
34.15
32.45
31.53
31.38
31.78
32.38
32.85
32.91
32.40
31.21
29.32
26.72
23.45
19.64
15.46
11.04
6.47
1.75
-3.20
-8.43
-13.98
-19.80
-25.85
-32.05
-38.31
-44.47
-50.19
-54.96
-58.09
-58.88
-56.77
-51.50
-43.20
-32.41
-20.00
-6.98
5.66
17.14
26.97
34.92
40.95
45.10
47.45
48.07
47.13
44.91
41.85
38.41
35.00
31.90
29.20
26.82
24.63
22.44
20.10
17.48
14.46
10.94
6.81
2.05
-3.25
-8.86
-14.42
-19.62
-24.30
-28.50
-32.49
-36.66
-41.32
-46.61
-52.41
-58.30
-63.67
-67.79
-69.97
-69.66
-66.53
-60.52
-51.79
-40.70
-27.83
-13.88
0.31
13.83
25.87
35.80
43.32
48.43
51.38
52.51
52.16
50.61
48.12
45.01
41.58
38.21
35.13
32.46
30.10
27.91
25.75
23.62
21.64
19.83
18.10
16.12
13.54
10.10
5.77
0.78
-4.57
-10.03
-15.54
-21.22
-27.24
-33.75
-40.79
-48.29
-56.03
-63.65
-70.66
-76.45
-80.34
-81.71
-80.06
-75.07
-66.70
-55.15
-40.99
-25.03
-8.31
8.05
23.07
36.06
46.62
54.70
60.47
64.27
66.41
67.18
66.82
65.49
63.34
60.54
57.29
53.76
50.06
46.24
42.31
38.26
34.12
29.92
25.64
21.22
16.56
11.56
6.22
0.64
-5.07
-10.81
-16.59
-22.42
-28.28
-34.07
-39.63
-44.87
-49.84
-54.74
-59.86
-65.29
-70.85
-75.98
-79.84
-81.55
-80.44
-76.13
-68.71
-58.58
-46.36
-32.83
-18.79
-5.04
7.65
18.59
27.27
33.38
36.92
38.20
37.83
36.54
35.08
34.02
33.70
34.23
35.58
37.62
40.17
43.03
46.00
48.87
51.46
53.57
54.90
55.03
53.47
49.79
43.81
35.72
26.13
15.86
5.71
-3.74
-12.23
-19.78
-26.57
-32.86
-38.86
-44.64
-50.00
-54.49
-57.47
-58.22
-56.18
-51.13
-43.26
-33.11
-21.42
-8.95
3.64
15.75
26.79
36.22
43.55
48.53
51.28
52.17
51.64
50.11
47.86
45.12
42.12
39.06
36.09
33.42
30.98
28.52
25.64
22.00
17.53
12.40
6.83
0.91
-5.35
-12.20
-20.15
-29.51
-40.13
-51.21
-61.69
-70.71
-78.17
-83.98
-88.78
-93.65
-99.52
-106.39
-113.01
-117.48
-118.08
-114.11
-104.68
-90.53
-74.14
-59.05
-48.43
-44.12
-46.42
-54.15
-64.68
-71.72
-69.42
-54.83
-29.04
4.20
40.91
78.63
117.04
157.30
203.92
259.06
320.42
381.58
435.33
476.95
505.43
522.84
512.89
468.90
398.02
318.56
246.92
189.22
143.71
106.86
76.81
53.54
41.50
39.71
43.74
47.15
44.90
35.63
21.23
4.58
-12.68
-29.05
-42.15
-52.79
-63.64
-76.83
-92.48
-108.99
-124.52
-138.07
-148.17
-154.53
-158.07
-160.04
-160.87
-159.76
-155.41
-147.09
-135.30
-120.85
-105.26
-90.66
-79.07
-71.77
-69.12
-70.66
-75.57
-82.91
-91.51
-100.36
-108.90
-116.88
-124.15
-130.57
-136.00
-140.34
-143.70
-146.27
-148.21
-149.71
-150.88
-151.71
-152.14
-151.91
-150.56
-147.46
-141.96
-133.66
-122.61
-109.28
-94.31
-78.29
-61.59
-44.39
-26.88
-9.43
7.35
22.69
35.82
46.10
53.17
56.98
57.86
56.49
53.77
50.63
47.84
45.85
44.82
44.74
45.54
47.15
49.43
52.02
54.31
55.48
54.69
51.17
44.39
34.10
20.65
5.14
-10.63
-24.60
-35.17
-41.88
-45.64
-48.23
-51.47
-56.40
-62.88
-69.89
-76.14
-80.57
-82.59
-81.85
-78.08
-71.04
-60.73
-47.62
-32.79
-17.59
-3.25
9.48
20.50
30.15
38.95
47.23
54.96
61.83
67.42
71.47
73.98
75.30
76.02
76.76
78.00
79.84
81.94
83.61
84.00
82.28
77.90
70.63
60.52
47.87
33.11
16.82
-0.40
-18.04
-35.78
-53.55
-71.51
-89.75
-108.19
-126.44
-143.80
-159.52
-172.80
-182.96
-189.32
-191.24
-188.22
-180.07
-167.09
-150.12
-130.38
-109.20
-87.74
-66.84
-47.02
-28.65
-12.09
2.27
14.04
22.94
28.96
32.28
33.32
32.73
31.30
29.89
29.33
30.17
32.58
36.22
40.43
44.39
47.39
48.97
48.98
47.47
44.68
40.88
36.36
31.37
26.02
20.25
13.77
6.24
-2.56
-12.45
-22.73
-32.21
-39.44
-43.13
-42.49
-37.43
-28.57
-16.98
-3.86
9.73
22.96
35.20
45.99
54.96
61.83
66.53
69.22
70.31
70.37
70.01
69.72
69.77
70.15
70.68
71.12
71.19
70.70
69.49
67.42
64.40
60.33
55.21
49.15
42.40
35.30
28.18
21.23
14.47
7.67
0.46
-7.58
-16.69
-26.82
-37.43
-47.54
-55.78
-60.75
-61.32
-56.93
-47.78
-34.70
-19.04
-2.15
14.71
30.65
45.09
57.73
68.40
77.09
83.81
88.58
91.44
92.42
91.64
89.42
86.17
82.38
78.40
74.40
70.33
66.08
61.68
57.29
53.16
49.45
46.00
42.35
37.91
32.23
25.25
17.30
9.02
1.04
-6.24
-12.67
-18.37
-23.60
-28.72
-34.16
-40.35
-47.59
-55.73
-64.06
-71.26
-75.76
-76.21
-71.98
-63.35
-51.36
-37.43
-22.85
-8.56
4.93
17.34
28.48
38.12
46.06
52.17
56.48
59.08
60.10
59.69
58.03
55.41
52.28
49.13
46.48
44.63
43.63
43.26
43.08
42.60
41.37
39.04
35.46
30.66
24.83
18.29
11.32
4.15
-3.13
-10.47
-17.87
-25.23
-32.47
-39.63
-46.87
-54.59
-63.17
-72.78
-83.13
-93.37
-102.15
-107.92
-109.31
-105.51
-96.47
-82.97
-66.39
-48.33
-30.25
-13.20
2.25
15.88
27.66
37.60
45.71
51.98
56.47
59.25
60.54
60.59
59.75
58.37
56.71
54.93
53.02
50.92
48.60
46.11
43.51
40.88
38.16
35.21
31.85
28.02
23.76
19.16
14.35
9.39
4.34
-0.76
-5.83
-10.83
-15.79
-20.84
-26.19
-32.07
-38.67
-46.11
-54.30
-62.87
-71.12
-78.03
-82.51
-83.58
-80.76
-74.04
-63.92
-51.18
-36.72
-21.46
-6.32
7.80
20.13
30.14
37.69
43.00
46.53
48.76
50.01
50.51
50.35
49.73
48.90
48.07
47.31
46.51
45.42
43.83
41.68
39.09
36.25
33.27
30.09
26.52
22.33
17.38
11.76
5.68
-0.51
-6.53
-12.14
-17.24
-21.90
-26.30
-30.75
-35.64
-41.29
-47.87
-55.24
-62.88
-69.94
-75.34
-77.98
-77.05
-72.17
-63.60
-52.11
-38.85
-25.01
-11.57
0.83
11.91
21.56
29.71
36.29
41.19
44.40
46.03
46.34
45.68
44.43
42.88
41.22
39.57
37.98
36.43
34.85
33.09
30.92
28.06
24.29
19.44
13.52
6.75
-0.56
-7.97
-15.17
-22.00
-28.49
-34.86
-41.45
-48.55
-56.38
-64.92
-73.87
-82.60
-90.17
-95.52
-97.67
-95.93
-90.09
-80.46
-67.80
-53.16
-37.63
-22.23
-7.71
5.42
16.91
26.70
34.79
41.21
45.97
49.15
50.88
51.41
51.08
50.21
49.01
47.59
45.96
44.15
42.24
40.43
38.88
37.55
36.15
34.10
30.76
25.67
18.78
10.49
1.49
-7.50
-15.96
-23.64
-30.63
-37.18
-43.62
-50.33
-57.69
-65.98
-75.24
-85.10
-94.68
-102.67
-107.60
-108.15
-103.58
-93.89
-79.79
-62.56
-43.63
-24.31
-5.57
11.92
27.73
41.52
53.07
62.24
69.09
73.87
76.91
78.56
79.07
78.63
77.39
75.57
73.35
70.89
68.17
65.06
61.38
57.05
52.15
46.84
41.25
35.38
29.04
21.86
13.52
3.84
-7.10
-18.88
-31.00
-43.00
-54.64
-66.03
-77.48
-89.30
-101.55
-113.84
-125.36
-134.90
-141.11
-142.74
-139.01
-129.69
-115.33
-97.10
-76.60
-55.46
-35.03
-16.15
0.82
15.87
29.09
40.51
50.02
57.48
62.77
65.89
67.10
66.79
65.48
63.72
61.85
60.03
58.23
56.25
53.93
51.13
47.76
43.67
38.66
32.47
24.96
16.22
6.64
-3.14
-12.49
-20.96
-28.42
-35.07
-41.44
-48.18
-55.88
-64.85
-74.92
-85.30
-94.69
-101.46
-104.15
-101.75
-94.01
-81.35
-64.71
-45.27
-24.28
-3.00
17.34
35.66
51.05
63.01
71.46
76.76
79.50
80.36
79.92
78.55
76.49
73.92
71.04
68.08
65.27
62.64
60.00
56.97
53.09
47.97
41.48
33.76
25.23
16.44
7.87
-0.22
-7.86
-15.32
-23.05
-31.51
-41.03
-51.61
-62.86
-73.84
-83.20
-89.33
-90.78
-86.67
-76.96
-62.58
-45.12
-26.38
-7.91
9.20
24.44
37.62
48.68
57.55
64.15
68.44
70.57
70.86
69.74
67.64
64.92
61.80
58.42
54.88
51.22
47.45
43.54
39.31
34.58
29.14
22.86
15.76
8.00
-0.16
-8.41
-16.63
-24.87
-33.45
-42.78
-53.20
-64.67
-76.62
-87.87
-96.91
-102.17
-102.46
-97.23
-86.79
-72.09
-54.55
-35.72
-16.93
0.79
16.79
30.68
42.19
51.14
57.45
61.26
62.84
62.66
61.25
59.08
56.53
53.83
51.10
48.34
45.48
42.36
38.85
34.84
30.27
25.12
19.42
13.17
6.37
-0.96
-8.82
-17.29
-26.47
-36.52
-47.46
-58.98
-70.30
-80.20
-87.22
-89.96
-87.45
-79.44
-66.43
-49.61
-30.55
-10.94
7.79
24.54
38.66
49.90
58.24
63.84
66.95
67.88
67.00
64.78
61.69
58.15
54.46
50.79
47.10
43.27
39.10
34.42
29.14
23.30
17.04
10.52
3.86
-2.96
-10.02
-17.56
-25.82
-35.05
-45.35
-56.50
-67.87
-78.33
-86.40
-90.58
-89.73
-83.46
-72.20
-57.16
-39.85
-21.78
-4.20
12.01
26.18
37.79
46.48
52.11
54.86
55.23
53.95
51.77
49.23
46.60
43.96
41.24
38.39
35.42
32.33
29.08
25.57
21.67
17.33
12.53
7.30
1.68
-4.41
-11.10
-18.63
-27.25
-37.13
-48.15
-59.67
-70.45
-78.78
-82.82
-81.15
-73.24
-59.66
-41.94
-22.06
-1.90
17.20
34.43
49.31
61.40
70.19
75.21
76.35
74.02
69.21
63.16
57.08
51.74
47.38
43.81
40.61
37.42
34.00
30.23
26.10
21.53
16.43
10.71
4.38
-2.45
-9.57
-16.92
-24.57
-32.81
-41.97
-52.13
-62.89
-73.26
-81.80
-86.99
-87.57
-82.98
-73.33
-59.43
-42.53
-24.03
-5.33
12.40
28.21
41.46
51.85
59.39
64.37
67.27
68.56
68.61
67.60
65.60
62.69
59.03
54.88
50.57
46.36
42.32
38.33
34.13
29.39
23.88
17.50
10.38
2.75
-5.09
-12.93
-20.72
-28.60
-36.89
-45.95
-55.91
-66.56
-77.13
-86.38
-92.78
-94.91
-91.84
-83.40
-70.31
-53.85
-35.63
-17.09
0.68
17.03
31.61
44.22
54.72
63.02
69.02
72.78
74.43
74.20
72.44
69.53
65.91
62.01
58.15
54.50
51.07
47.73
44.31
40.61
36.44
31.64
26.07
19.70
12.64
5.13
-2.51
-10.01
-17.26
-24.33
-31.48
-39.05
-47.35
-56.54
-66.43
-76.38
-85.33
-91.93
-94.91
-93.41
-87.24
-76.83
-63.12
-47.27
-30.35
-13.31
3.15
18.46
32.17
43.94
53.50
60.75
65.75
68.70
69.90
69.72
68.52
66.63
64.30
61.74
59.05
56.26
53.30
50.06
46.51
42.70
38.75
34.72
30.53
25.93
20.62
14.44
7.50
0.15
-7.12
-13.94
-20.20
-26.05
-31.77
-37.69
-44.02
-50.85
-58.22
-66.04
-74.12
-82.04
-89.13
-94.49
-97.19
-96.45
-91.83
-83.31
-71.17
-55.96
-38.36
-19.33
-0.02
18.16
33.80
45.78
53.56
57.36
57.99
56.56
54.06
51.13
48.11
45.11
42.28
39.82
37.93
36.68
35.83
34.97
33.63
31.54
28.74
25.53
22.26
19.13
16.09
12.86
9.11
4.62
-0.61
-6.37
-12.33
-18.18
-23.75
-29.07
-34.38
-40.10
-46.61
-54.11
-62.41
-70.92
-78.69
-84.69
-88.00
-88.00
-84.44
-77.40
-67.19
-54.35
-39.66
-24.06
-8.61
5.65
17.89
27.60
34.63
39.15
41.54
42.34
42.11
41.35
40.45
39.67
39.05
38.47
37.72
36.61
35.06
33.12
30.93
28.57
25.98
22.99
19.29
14.67
9.09
2.72
-4.05
-10.82
-17.25
-23.22
-28.81
-34.29
-39.96
-46.08
-52.76
-59.91
-67.31
-74.54
-81.10
-86.27
-89.20
-89.01
-84.95
-76.73
-64.67
-49.70
-33.19
-16.57
-0.97
12.93
24.93
35.07
43.41
49.93
54.56
57.33
58.43
58.27
57.38
56.18
54.89
53.52
51.88
49.87
47.42
44.55
41.36
37.89
34.15
30.16
25.91
21.37
16.43
10.91
4.69
-2.25
-9.72
-17.34
-24.71
-31.61
-38.09
-44.44
-51.08
-58.35
-66.37
-74.95
-83.54
-91.22
-96.89
-99.41
-97.96
-92.21
-82.44
-69.37
-54.02
-37.42
-20.51
-4.13
11.03
24.39
35.54
44.35
50.95
55.65
58.86
60.90
62.00
62.25
61.69
60.42
58.59
56.43
54.11
51.75
49.34
46.83
44.21
41.50
38.58
35.08
30.35
23.73
14.98
4.56
-6.35
-16.34
-24.37
-30.29
-34.81
-39.12
-44.26
-50.65
-58.14
-66.26
-74.60
-82.85
-90.65
-97.32
-101.74
-102.62
-98.94
-90.41
-77.58
-61.65
-44.13
-26.33
-9.20
6.66
20.91
33.29
43.61
51.76
57.74
61.70
63.83
64.36
63.53
61.60
58.89
55.76
52.52
49.41
46.49
43.74
41.07
38.36
35.49
32.33
28.67
24.28
19.02
12.88
6.09
-1.00
-7.97
-14.51
-20.59
-26.42
-32.45
-39.15
-46.81
-55.41
-64.45
-73.03
-80.04
-84.34
-85.04
-81.68
-74.30
-63.44
-49.96
-34.91
-19.36
-4.24
9.66
21.73
31.52
38.78
43.50
45.94
46.57
45.89
44.31
42.12
39.49
36.60
33.67
30.98
28.70
26.78
24.98
22.91
20.24
16.76
12.45
7.45
1.94
-3.83
-9.64
-15.30
-20.73
-26.07
-31.65
-37.88
-44.99
-52.77
-60.51
-67.07
-71.20
-71.91
-68.71
-61.64
-51.22
-38.13
-23.20
-7.24
8.83
24.05
37.45
48.26
56.08
60.98
63.42
63.98
63.19
61.36
58.66
55.23
51.34
47.37
43.71
40.62
38.00
35.47
32.45
28.45
23.17
16.66
9.21
1.26
-6.83
-14.83
-22.70
-30.60
-38.77
-47.54
-57.10
-67.41
-78.10
-88.33
-96.93
-102.64
-104.35
-101.36
-93.56
-81.42
-65.84
-48.03
-29.33
-11.07
5.52
19.39
29.77
36.22
38.75
37.83
34.49
30.26
26.87
25.91
28.36
34.42
43.40
54.11
65.10
75.02
82.76
87.49
88.76
86.48
81.04
73.24
64.11
54.60
45.28
36.18
26.82
16.47
4.45
-9.52
-25.21
-41.88
-58.35
-73.18
-84.90
-92.22
-94.20
-90.44
-81.21
-67.44
-50.53
-32.15
-13.83
3.32
18.64
31.96
43.33
52.83
60.48
66.24
70.09
72.11
72.54
71.70
69.98
67.63
64.85
61.75
58.40
54.89
51.31
47.66
43.91
39.89
35.36
30.10
23.94
16.88
9.14
1.11
-6.82
-14.38
-21.56
-28.67
-36.11
-44.31
-53.40
-63.18
-73.04
-82.06
-89.10
-93.01
-92.80
-87.90
-78.28
-64.53
-47.73
-29.25
-10.55
7.12
22.82
35.99
46.44
54.28
59.82
63.36
65.13
65.27
63.92
61.35
58.02
54.49
51.24
48.55
46.37
44.43
42.36
39.85
36.69
32.77
28.05
22.56
16.38
9.66
2.69
-4.25
-10.93
-17.36
-23.77
-30.58
-38.19
-46.74
-55.83
-64.51
-71.36
-74.82
-73.67
-67.38
-56.34
-41.72
-25.16
-8.33
7.45
21.39
33.20
42.88
50.58
56.35
60.23
62.25
62.52
61.31
59.00
56.01
52.63
49.05
45.30
41.33
37.11
32.63
27.95
23.11
18.13
12.99
7.59
1.86
-4.32
-10.98
-18.08
-25.55
-33.34
-41.43
-49.79
-58.32
-66.68
-74.22
-80.06
-83.24
-82.98
-78.88
-71.00
-59.86
-46.29
-31.37
-16.13
-1.53
11.65
22.91
31.94
38.59
42.88
45.01
45.39
44.65
43.52
42.56
42.06
41.95
41.88
41.37
40.09
37.93
34.97
31.41
27.31
22.57
16.80
9.50
0.25
-11.07
-24.11
-38.15
-52.31
-65.70
-77.64
-87.50
-94.62
-98.25
-97.69
-92.56
-83.04
-69.92
-54.49
-38.14
-22.07
-7.12
6.28
17.90
27.64
35.36
40.96
44.38
45.66
45.04
42.95
39.95
36.63
33.48
30.74
28.44
26.36
24.15
21.48
18.14
14.14
9.67
5.02
0.39
-4.18
-8.88
-14.07
-20.18
-27.50
-36.03
-45.38
-54.71
-62.86
-68.52
-70.58
-68.34
-61.83
-51.75
-39.30
-25.89
-12.71
-0.56
10.20
19.48
27.27
33.48
38.02
40.86
42.13
42.12
41.21
39.66
37.62
35.08
32.05
28.57
24.82
21.02
17.28
13.56
9.72
5.55
0.92
-4.15
-9.57
-15.29
-21.43
-28.26
-36.05
-44.85
-54.21
-63.12
-70.14
-73.86
-73.21
-67.90
-58.43
-45.94
-31.82
-17.38
-3.56
9.19
20.70
30.92
39.70
46.74
51.69
54.33
54.78
53.45
50.97
47.96
44.79
41.60
38.35
34.88
31.10
26.93
22.29
17.12
11.40
5.15
-1.49
-8.34
-15.28
-22.34
-29.73
-37.75
-46.54
-55.93
-65.24
-73.30
-78.73
-80.23
-77.00
-68.98
-56.89
-41.97
-25.63
-9.10
6.70
21.22
34.09
45.03
53.77
60.15
64.20
66.13
66.33
65.23
63.19
60.43
57.06
53.16
48.85
44.26
39.56
34.83
30.08
25.19
19.96
14.14
7.54
0.11
-8.03
-16.59
-25.20
-33.56
-41.53
-49.13
-56.54
-63.85
-70.94
-77.37
-82.42
-85.18
-84.77
-80.59
-72.46
-60.72
-46.20
-30.06
-13.58
2.07
16.03
27.85
37.46
45.09
51.08
55.74
59.22
61.60
62.87
63.13
62.57
61.42
59.84
57.85
55.36
52.31
48.80
45.09
41.47
38.12
34.93
31.57
27.58
22.58
16.42
9.19
1.25
-6.93
-14.86
-22.21
-28.91
-35.22
-41.72
-49.00
-57.51
-67.26
-77.68
-87.71
-95.94
-100.94
-101.50
-96.96
-87.29
-73.16
-55.75
-36.48
-16.77
2.31
20.05
36.14
50.47
63.03
73.69
82.29
88.64
92.69
94.59
94.66
93.33
91.00
88.03
84.64
80.97
77.14
73.19
69.08
64.74
60.05
54.93
49.36
43.34
36.87
29.95
22.56
14.71
6.46
-2.02
-10.56
-18.95
-27.04
-34.76
-42.12
-49.30
-56.65
-64.50
-73.01
-81.91
-90.37
-97.02
-100.38
-99.20
-92.94
-81.88
-67.05
-49.87
-31.73
-13.81
3.08
18.42
31.89
43.32
52.67
60.03
65.58
69.55
72.07
73.24
73.14
71.93
69.88
67.35
64.62
61.89
59.19
56.42
53.52
50.34
46.80
42.78
38.19
33.05
27.46
21.64
15.74
9.81
3.78
-2.51
-9.11
-15.90
-22.68
-29.24
-35.51
-41.60
-47.80
-54.40
-61.54
-69.11
-76.63
-83.32
-88.18
-90.16
-88.50
-82.82
-73.41
-61.03
-46.86
-32.06
-17.66
-4.38
7.36
17.38
25.59
32.07
36.97
40.49
42.85
44.24
44.76
44.50
43.62
42.37
41.07
40.01
39.30
38.83
38.30
37.28
35.45
32.61
28.75
23.96
18.44
12.50
6.54
1.02
-3.62
-7.14
-9.53
-11.01
-11.92
-12.49
-12.75
-12.67
-12.39
-12.44
-13.75
-17.37
-24.08
-33.89
-45.90
-58.50
-69.76
-77.97
-82.01
-81.47
-76.59
-68.06
-56.86
-44.07
-30.84
-18.19
-6.98
2.25
9.33
14.41
17.92
20.41
22.41
24.27
26.09
27.79
29.08
29.72
29.57
28.69
27.36
25.92
24.66
23.69
22.88
21.93
20.50
18.41
15.65
12.44
9.03
5.63
2.29
-1.09
-4.69
-8.65
-13.02
-17.72
-22.59
-27.52
-32.44
-37.34
-42.24
-47.17
-52.14
-57.19
-62.25
-67.11
-71.42
-74.58
-75.94
-74.91
-71.20
-64.84
-56.20
-45.89
-34.59
-23.05
-11.93
-1.85
6.78
13.75
19.13
23.11
25.98
27.94
29.06
29.41
29.07
28.28
27.36
26.59
26.12
25.94
25.94
25.99
26.00
25.88
25.51
24.68
23.17
20.78
17.51
13.50
8.97
4.19
-0.68
-5.52
-10.23
-14.77
-19.10
-23.26
-27.36
-31.60
-36.17
-41.24
-46.89
-53.06
-59.52
-65.87
-71.52
-75.80
-78.06
-77.77
-74.67
-68.76
-60.31
-49.84
-38.03
-25.72
-13.73
-2.74
6.81
14.75
21.11
26.02
29.55
31.75
32.72
32.67
31.98
31.12
30.47
30.24
30.35
30.54
30.48
29.91
28.72
26.91
24.55
21.76
18.67
15.44
12.19
9.05
6.00
2.91
-0.47
-4.41
-9.12
-14.73
-21.18
-28.35
-36.08
-44.26
-52.95
-62.25
-72.29
-82.93
-93.64
-103.37
-110.82
-114.65
-113.94
-108.39
-98.35
-84.72
-68.63
-51.32
-33.95
-17.58
-3.05
9.09
18.69
25.97
31.40
35.52
38.72
41.26
43.23
44.73
45.89
46.85
47.72
48.51
49.10
49.35
49.10
48.30
46.89
44.82
42.00
38.40
34.01
29.00
23.57
17.90
12.04
5.89
-0.72
-7.82
-15.32
-23.00
-30.67
-38.34
-46.22
-54.45
-62.91
-70.94
-77.45
-81.16
-80.99
-76.36
-67.30
-54.39
-38.54
-20.88
-2.55
15.31
31.65
45.68
56.89
65.16
70.68
73.87
75.20
75.19
74.28
72.83
71.13
69.31
67.40
65.38
63.23
60.97
58.68
56.40
54.06
51.45
48.26
44.16
38.94
32.57
25.23
17.27
9.05
0.87
-7.04
-14.69
-22.23
-29.98
-38.27
-47.32
-56.96
-66.56
-75.06
-81.11
-83.48
-81.35
-74.51
-63.33
-48.69
-31.68
-13.50
4.73
21.96
37.25
49.85
59.30
65.49
68.68
69.47
68.60
66.81
64.62
62.34
60.08
57.85
55.65
53.55
51.64
49.93
48.37
46.70
44.60
41.74
37.86
32.91
26.98
20.33
13.28
6.12
-0.93
-7.83
-14.70
-21.89
-29.79
-38.67
-48.44
-58.49
-67.73
-74.75
-78.18
-77.05
-70.99
-60.33
-45.94
-29.02
-10.87
7.22
24.13
39.00
51.26
60.66
67.27
71.35
73.27
73.35
71.89
69.18
65.61
61.70
57.99
54.83
52.14
49.38
45.71
40.32
32.83
23.45
12.95
2.32
-7.56
-16.15
-23.28
-29.08
-33.82
-37.91
-41.85
-46.24
-51.57
-58.02
-65.22
-72.12
-77.23
-78.96
-76.11
-68.29
-55.98
-40.42
-23.25
-6.10
9.74
23.43
34.59
43.13
49.19
52.99
54.79
54.88
53.59
51.30
48.37
45.20
42.11
39.36
37.01
34.97
32.95
30.55
27.42
23.32
18.24
12.35
5.95
-0.62
-7.14
-13.49
-19.72
-26.07
-32.84
-40.30
-48.46
-56.95
-65.01
-71.54
-75.41
-75.65
-71.70
-63.53
-51.60
-36.83
-20.41
-3.63
12.30
26.40
38.07
47.09
53.54
57.68
59.79
60.20
59.26
57.39
55.03
52.59
50.31
48.26
46.27
44.15
41.69
38.81
35.48
31.75
27.57
22.88
17.61
11.76
5.46
-1.08
-7.70
-14.38
-21.31
-28.79
-37.03
-45.85
-54.62
-62.23
-67.44
-69.11
-66.64
-59.99
-49.72
-36.72
-22.04
-6.74
8.19
21.90
33.70
43.20
50.28
55.11
58.00
59.28
59.20
57.96
55.77
52.85
49.52
46.08
42.73
39.53
36.37
33.07
29.47
25.48
21.11
16.46
11.65
6.76
1.81
-3.22
-8.44
-13.98
-19.93
-26.38
-33.34
-40.72
-48.25
-55.40
-61.45
-65.52
-66.78
-64.64
-58.89
-49.83
-38.17
-24.96
-11.31
1.76
13.44
23.25
31.01
36.77
40.79
43.39
44.86
45.42
45.24
44.40
43.01
41.22
39.21
37.23
35.52
34.29
33.61
33.46
33.66
33.94
33.92
33.18
31.35
28.25
23.94
18.69
12.76
6.21
-1.20
-9.95
-20.48
-32.77
-46.20
-59.40
-70.68
-78.45
-81.62
-79.91
-73.78
-64.15
-52.20
-39.10
-25.92
-13.55
-2.71
6.15
12.95
17.87
21.38
23.98
26.02
27.62
28.72
29.18
28.93
28.04
26.68
25.08
23.42
21.84
20.35
18.89
17.31
15.39
12.98
10.00
6.48
2.52
-1.77
-6.31
-11.08
-16.06
-21.17
-26.38
-31.68
-37.22
-43.13
-49.48
-55.97
-61.99
-66.59
-68.82
-67.97
-63.81
-56.60
-47.02
-35.97
-24.38
-13.12
-2.84
6.00
13.18
18.71
22.82
25.77
27.88
29.37
30.38
31.01
31.27
31.19
30.75
29.99
28.92
27.64
26.23
24.73
23.12
21.28
19.08
16.45
13.44
10.17
6.72
3.12
-0.68
-4.71
-8.97
-13.32
-17.64
-21.85
-26.03
-30.32
-34.88
-39.77
-44.94
-50.26
-55.52
-60.46
-64.69
-67.63
-68.57
-66.83
-62.04
-54.27
-44.09
-32.38
-20.16
-8.24
2.76
12.49
20.78
27.55
32.82
36.67
39.29
40.90
41.71
41.92
41.67
41.11
40.36
39.44
38.32
36.87
34.97
32.65
30.05
27.41
24.87
22.39
19.71
16.50
12.54
7.91
2.95
-1.85
-6.15
-9.89
-13.32
-16.81
-20.72
-25.14
-29.98
-35.01
-39.95
-44.60
-48.84
-52.65
-56.05
-59.13
-61.98
-64.63
-66.95
-68.49
-68.50
-66.02
-60.20
-50.70
-37.95
-23.27
-8.58
4.06
13.07
17.77
18.47
16.25
12.51
8.53
5.18
2.95
1.98
2.24
3.56
5.69
8.27
10.87
13.12
14.75
15.74
16.30
16.71
17.26
18.05
18.92
19.54
19.50
18.48
