1702898547.00
64.000000
-0.00
-0.00
-0.00
-0.00
-0.00
-0.00
-0.00
-0.00
-0.00
-0.00
0.00
0.01
0.01
-0.00
-0.03
-0.05
-0.05
0.00
0.13
0.36
0.66
1.01
1.37
1.72
2.06
2.40
2.79
3.24
3.80
4.42
5.06
5.66
6.20
6.68
7.15
7.68
8.31
9.14
10.09
11.04
11.88
12.56
13.14
13.76
14.65
15.96
17.91
20.32
22.90
25.38
27.58
29.57
31.68
34.32
37.81
42.54
48.15
54.10
59.83
64.97
69.58
74.14
79.34
85.71
93.76
103.00
112.62
121.73
129.77
136.75
143.30
150.75
157.77
166.64
177.95
191.79
206.97
220.57
228.25
225.36
208.53
176.87
132.76
80.05
23.07
-34.95
-92.44
-149.16
-205.23
-260.37
-313.73
-363.86
-409.80
-450.86
-486.43
-515.64
-537.09
-549.04
-549.73
-538.08
-513.87
-478.27
-433.41
-381.92
-326.42
-269.17
-211.89
-155.84
-102.05
-51.39
-4.83
36.76
72.71
102.75
127.03
146.05
160.52
171.15
178.57
183.17
185.24
185.01
182.75
178.82
173.61
167.54
160.97
154.13
147.16
140.15
133.13
126.14
119.25
112.53
106.05
99.86
94.01
88.49
83.32
78.52
74.08
70.02
66.35
63.08
60.21
57.75
55.67
53.96
52.56
51.40
50.38
49.37
48.21
46.71
44.72
42.07
38.67
34.46
29.48
23.77
17.50
10.89
4.17
-2.37
-8.46
-13.88
-18.43
-22.01
-24.55
-26.06
-26.62
-26.35
-25.38
-23.88
-21.99
-19.83
-17.51
-15.10
-12.62
-10.11
-7.60
-5.07
-2.53
0.03
2.64
5.30
8.03
10.86
13.76
16.71
19.69
22.72
25.80
28.97
32.26
35.72
39.40
43.23
47.17
51.21
55.35
59.62
64.05
68.70
73.62
78.93
84.46
90.12
95.86
101.62
107.37
113.07
118.73
124.37
130.03
135.45
140.43
144.79
148.33
150.77
151.80
150.92
147.46
142.71
137.12
130.97
124.47
117.72
110.84
103.92
97.08
90.43
84.12
78.04
72.10
66.31
60.67
55.21
49.98
45.04
40.48
36.41
32.72
29.32
26.21
23.36
20.77
18.42
16.34
14.54
13.04
11.74
10.53
9.38
8.23
7.06
5.87
4.66
3.48
2.36
1.30
0.28
-0.66
-1.51
-2.27
-2.91
-3.44
-3.86
-4.17
-4.40
-4.58
-4.72
-4.83
-4.92
-4.98
-5.04
-5.08
-5.11
-5.15
-5.18
-5.23
-5.30
-5.39
-5.52
-5.66
-5.82
-5.96
-6.09
-6.17
-6.19
-6.15
-6.03
-5.84
-5.59
-5.30
-5.00
-4.72
-4.47
-4.28
-4.16
-4.14
-4.25
-4.52
-4.99
-5.65
-6.47
-7.38
-8.30
-9.16
-9.92
-10.58
-11.17
-11.72
-12.27
-12.82
-13.32
-13.75
-14.09
-14.37
-14.69
-15.19
-15.99
-17.16
-18.66
-20.37
-22.11
-23.74
-25.22
-26.70
-28.42
-30.61
-33.41
-36.73
-40.27
-43.63
-46.55
-49.01
-51.39
-54.27
-58.26
-63.72
-70.52
-78.15
-85.88
-93.16
-99.89
-106.61
-114.19
-123.55
-135.14
-148.73
-163.52
-178.44
-192.63
-205.84
-218.41
-231.22
-245.42
-262.41
-283.46
-309.28
-339.15
-370.19
-397.51
-415.23
-418.56
-405.59
-378.18
-341.26
-300.84
-261.95
-227.36
-197.65
-172.27
-150.61
-132.46
-117.72
-105.83
-95.51
-85.14
-73.49
-60.31
-46.43
-33.37
-22.51
-14.48
-8.97
-4.94
-1.19
3.03
7.74
12.29
15.73
17.32
16.86
14.76
11.78
8.75
6.14
3.93
1.72
-1.18
-5.40
-11.27
-18.73
-27.16
-35.39
-41.80
-44.61
-42.46
-34.84
-22.42
-6.87
9.72
25.43
39.02
50.04
58.56
64.79
68.83
70.74
70.66
69.05
66.62
64.11
62.09
60.72
59.79
58.96
57.89
56.41
54.56
52.47
50.25
47.97
45.62
43.10
40.21
36.74
32.47
27.37
21.63
15.66
9.99
4.99
0.78
-2.93
-6.68
-11.13
-16.80
-24.03
-32.82
-42.77
-53.01
-62.19
-68.58
-70.54
-66.97
-57.83
-44.18
-27.86
-10.90
5.10
19.21
31.25
41.27
49.37
55.41
59.25
60.87
60.69
59.43
57.93
56.79
56.24
56.12
56.06
55.72
54.90
53.61
51.89
49.84
47.52
44.94
42.15
39.17
35.95
32.35
28.26
23.63
18.54
13.20
7.88
2.82
-1.94
-6.53
-11.22
-16.41
-22.49
-29.79
-38.39
-47.98
-57.66
-65.98
-71.16
-71.56
-66.23
-55.21
-39.73
-21.75
-3.48
13.31
27.52
38.79
47.27
53.17
56.73
58.14
57.72
56.00
53.69
51.52
49.96
49.13
48.85
48.80
48.77
48.70
48.64
48.57
48.28
47.46
45.74
42.94
39.19
34.83
30.27
25.84
21.55
17.25
12.66
7.63
2.13
-3.61
-9.28
-14.62
-19.50
-23.97
-28.32
-32.99
-38.49
-45.21
-53.11
-61.55
-69.20
-74.31
-75.14
-70.57
-60.54
-46.07
-28.99
-11.31
5.27
19.65
31.32
40.15
46.16
49.49
50.43
49.56
47.64
45.52
43.89
43.07
42.99
43.30
43.60
43.66
43.42
42.96
42.34
41.54
40.40
38.69
36.30
33.26
29.76
26.04
22.25
18.39
14.35
9.95
5.22
0.31
-4.58
-9.26
-13.73
-18.19
-22.93
-28.28
-34.47
-41.60
-49.56
-57.87
-65.61
-71.36
-73.52
-70.71
-62.45
-49.33
-33.03
-15.75
0.46
14.30
25.33
33.75
39.94
44.10
46.22
46.31
44.63
41.89
39.02
36.83
35.74
35.64
36.07
36.50
36.62
36.36
35.83
35.08
34.06
32.58
30.48
27.77
24.60
21.23
17.79
14.25
10.43
6.11
1.34
-3.67
-8.55
-12.99
-16.94
-20.70
-24.79
-29.80
-36.27
-44.38
-53.80
-63.55
-72.07
-77.43
-77.94
-72.66
-61.81
-46.69
-29.33
-11.79
4.25
17.81
28.45
36.07
40.74
42.69
42.40
40.61
38.16
35.87
34.26
33.50
33.50
33.95
34.55
35.02
35.16
34.85
34.03
32.76
31.16
29.36
27.45
25.39
23.03
20.22
16.83
12.87
8.47
3.84
-0.89
-5.65
-10.52
-15.66
-21.21
-27.28
-33.98
-41.38
-49.55
-58.22
-66.70
-73.72
-77.67
-76.99
-70.84
-59.42
-44.08
-26.85
-9.85
5.37
18.04
28.10
35.80
41.36
44.86
46.27
45.75
43.75
41.00
38.28
36.23
35.03
34.54
34.33
33.94
33.06
31.62
29.73
27.60
25.37
23.02
20.47
17.56
14.22
10.44
6.34
2.06
-2.24
-6.48
-10.61
-14.65
-18.71
-23.02
-27.91
-33.79
-40.96
-49.40
-58.60
-67.47
-74.44
-77.81
-76.32
-69.54
-58.10
-43.50
-27.64
-12.27
1.37
12.66
21.45
27.81
31.87
33.74
33.74
32.33
30.21
28.07
26.44
25.50
25.09
24.82
24.23
23.06
21.25
19.01
16.61
14.27
12.02
9.77
7.33
4.69
2.04
-0.20
-1.52
-1.68
-0.89
0.15
0.44
-1.08
-5.12
-11.90
-21.11
-31.95
-43.28
-53.67
-61.48
-65.21
-63.72
-56.76
-45.06
-30.32
-14.64
0.03
12.43
22.06
29.07
33.80
36.64
37.87
37.89
37.23
36.53
36.34
36.91
38.01
39.01
39.21
38.11
35.62
32.11
28.21
24.49
21.25
18.37
15.43
11.92
7.51
2.22
-3.60
-9.49
-15.13
-20.47
-25.76
-31.42
-37.88
-45.35
-53.79
-62.79
-71.52
-78.72
-82.82
-82.42
-76.65
-65.65
-50.59
-33.40
-16.07
-0.18
13.48
24.78
33.88
40.96
45.97
48.87
49.80
49.22
47.76
46.06
44.50
43.14
41.81
40.34
38.69
36.99
35.49
34.30
33.40
32.54
31.35
29.47
26.59
22.57
17.50
11.73
5.76
0.13
-4.78
-8.93
-12.67
-16.61
-21.50
-27.94
-36.14
-45.77
-55.82
-64.78
-70.89
-72.57
-68.98
-60.22
-47.40
-32.27
-16.64
-1.94
11.07
22.21
31.61
39.36
45.39
49.46
51.47
51.55
50.23
48.23
46.29
44.88
44.08
43.64
43.12
42.15
40.57
38.46
36.09
33.70
31.41
29.12
26.63
23.65
20.08
15.95
11.45
6.88
2.51
-1.56
-5.31
-8.88
-12.48
-16.32
-20.62
-25.59
-31.42
-38.26
-46.04
-54.36
-62.36
-68.85
-72.50
-72.26
-67.78
-59.52
-48.60
-36.50
-24.50
-13.54
-4.12
3.45
8.85
11.61
11.25
7.52
0.60
-8.94
-20.56
-34.21
-50.56
-70.80
-95.87
-125.73
-158.94
-192.98
-225.12
-253.38
-277.10
-296.77
-313.36
-327.60
-339.54
-348.52
-353.31
-352.28
-343.57
-325.42
-296.65
-257.32
-208.88
-153.86
-94.99
-34.32
27.06
88.62
149.57
208.39
262.91
311.09
351.83
385.34
412.75
435.45
454.52
470.64
484.41
496.51
507.52
517.12
523.42
522.97
511.91
487.74
450.98
405.66
358.27
315.52
282.03
258.98
244.41
234.67
226.18
216.60
204.94
191.13
175.39
158.10
139.73
120.90
102.20
83.83
65.54
46.95
28.28
10.74
-3.85
-13.85
-18.85
-20.04
-19.41
-18.49
-17.32
-14.39
-7.79
3.17
16.96
30.10
38.80
40.82
36.74
29.54
22.83
18.81
16.95
14.28
7.01
-7.18
-27.79
-51.40
-73.33
-89.87
-99.98
-105.80
-111.39
-120.82
-136.28
-157.34
-181.25
-204.04
-221.64
-230.73
-229.42
-217.61
-197.19
-171.77
-146.04
-124.50
-110.25
-104.24
-105.38
-111.25
-119.08
-126.35
-131.06
-131.71
-127.32
-117.63
-103.34
-86.04
-67.87
-50.83
-36.31
-24.73
-15.80
-8.72
-2.70
2.85
8.11
12.91
16.82
19.28
19.95
18.68
15.71
11.54
6.61
1.19
-4.78
-11.51
-19.05
-26.98
-34.40
-40.11
-43.11
-43.07
-40.51
-36.81
-33.79
-33.17
-36.06
-42.64
-51.95
-62.18
-71.15
-76.92
-78.45
-75.91
-70.45
-63.66
-56.89
-50.70
-44.85
-38.76
-31.99
-24.68
-17.53
-11.35
-6.65
-3.37
-1.00
0.92
2.55
3.62
3.71
2.64
0.67
-1.63
-3.58
-4.79
-5.30
-5.42
-5.42
-5.30
-4.82
-3.60
-1.38
1.81
5.65
9.75
13.85
17.94
22.20
26.83
31.82
36.89
41.49
45.06
47.04
47.07
44.95
40.64
34.34
26.53
18.01
9.86
3.09
-1.67
-4.40
-5.67
-6.36
-7.25
-8.70
-10.61
-12.55
-14.07
-14.96
-15.36
-15.58
-15.93
-16.58
-17.47
-18.55
-19.86
-21.59
-24.04
-27.41
-31.61
-36.31
-41.06
-45.61
-50.04
-54.65
-59.68
-64.87
-69.29
-71.51
-70.12
-64.24
-53.82
-39.82
-23.74
-7.27
8.21
21.76
32.92
41.52
47.56
51.14
52.49
51.98
50.20
47.83
45.51
43.65
42.28
41.15
39.84
37.89
35.07
31.35
26.95
22.22
17.53
13.14
9.09
5.34
1.74
-1.80
-5.33
-8.77
-12.07
-15.18
-18.13
-21.01
-23.88
-26.75
-29.62
-32.49
-35.34
-38.14
-40.81
-43.25
-45.32
-46.82
-47.50
-46.98
-44.82
-40.61
-34.09
-25.26
-14.46
-2.35
10.19
22.19
32.72
41.07
46.84
50.02
50.95
50.21
48.45
46.29
44.22
42.56
41.46
41.00
41.11
41.61
42.27
42.74
42.65
41.67
39.61
36.52
32.64
28.40
24.20
20.29
16.69
13.20
9.52
5.46
1.02
-3.54
-7.92
-11.90
-15.46
-18.75
-22.05
-25.55
-29.37
-33.43
-37.49
-41.12
-43.69
-44.45
-42.66
-37.84
-29.95
-19.50
-7.49
4.92
16.52
26.41
33.94
38.86
41.19
41.26
39.58
36.84
33.69
30.56
27.68
24.97
22.21
19.22
15.92
12.43
8.99
5.88
3.22
1.02
-0.84
-2.43
-3.83
-5.06
-6.13
-7.24
-8.66
-10.70
-13.45
-16.75
-20.24
-23.48
-26.19
-28.31
-29.97
-31.36
-32.63
-33.86
-35.23
-36.89
-39.03
-41.58
-44.03
-45.46
-44.81
-41.24
-34.56
-25.37
-14.93
-4.67
4.19
10.98
15.62
18.46
19.98
20.61
20.57
19.97
18.86
17.29
15.36
13.23
10.99
8.71
6.44
4.17
1.91
-0.34
-2.73
-5.38
-8.41
-11.70
-14.98
-17.85
-20.09
-21.76
-23.18
-24.76
-26.78
-29.19
-31.75
-34.20
-36.47
-38.66
-41.00
-43.57
-46.37
-49.23
-51.92
-54.15
-55.42
-55.04
-52.27
-46.48
-37.66
-26.46
-14.15
-2.23
8.03
15.88
21.17
24.16
25.30
25.05
23.82
21.99
20.03
18.38
17.52
17.76
19.15
21.52
24.43
27.40
29.93
31.72
32.54
32.28
30.89
28.36
24.84
20.64
16.19
11.89
7.93
4.28
0.69
-3.08
-7.19
-11.73
-16.68
-22.04
-27.72
-33.38
-38.38
-41.74
-42.39
-39.49
-32.76
-22.61
-10.03
3.67
17.23
29.65
40.29
48.79
54.92
58.58
59.75
58.66
55.90
52.33
48.95
46.56
45.52
45.61
46.19
46.46
45.77
43.92
41.16
38.09
35.30
33.13
31.44
29.69
27.11
23.13
17.69
11.31
4.91
-0.51
-4.29
-6.40
-7.65
-9.46
-13.52
-21.22
-32.90
-47.46
-62.54
-75.28
-83.77
-88.31
-91.73
-98.82
-114.85
-144.13
-188.53
-246.59
-313.18
-380.05
-437.30
-475.83
-489.95
-479.16
-448.25
-405.41
-359.37
-316.66
-280.51
-251.35
-228.26
-210.32
-196.94
-187.40
-180.32
-173.61
-165.20
-153.94
-140.06
-124.95
-110.61
-98.52
-89.15
-81.81
-75.16
-67.84
-59.16
-49.30
-39.23
-30.10
-22.70
-17.06
-12.45
-7.75
-1.94
5.42
14.07
23.13
31.55
38.61
44.22
48.91
53.54
58.98
65.63
73.33
81.48
89.36
96.55
103.18
109.91
117.66
127.17
138.67
151.77
165.71
179.61
192.97
205.80
218.56
232.03
247.14
264.84
285.95
310.61
337.72
364.62
387.42
401.99
405.47
397.30
379.41
355.29
328.66
302.11
276.75
252.69
229.84
208.65
190.02
174.86
163.46
155.20
148.80
142.95
136.82
130.28
123.87
118.19
113.51
109.54
105.50
100.52
94.15
86.56
78.51
70.99
64.65
59.57
55.22
50.76
45.44
38.91
31.30
23.13
15.04
7.58
1.12
-4.17
-8.27
-11.28
-13.43
-15.02
-16.33
-17.47
-18.47
-19.21
-19.59
-19.68
-19.72
-20.03
-20.84
-22.15
-23.67
-25.00
-25.82
-26.03
-25.75
-25.23
-24.70
-24.29
-24.03
-23.86
-23.70
-23.55
-23.40
-23.32
-23.39
-23.73
-24.43
-25.47
-26.65
-27.61
-27.89
-27.22
-25.62
-23.58
-21.81
-20.95
-21.15
-21.79
-21.58
-18.93
-12.57
-2.06
11.95
27.93
43.89
58.00
68.92
76.08
79.69
80.56
79.97
79.34
79.84
82.02
85.51
89.12
91.44
91.60
89.91
88.04
88.26
92.23
99.90
109.11
116.48
118.89
114.98
105.63
93.16
79.79
66.39
52.30
36.39
18.31
-0.90
-19.29
-35.26
-48.48
-60.06
-71.58
-83.90
-96.59
-108.22
-117.38
-123.39
-126.55
-127.66
-127.39
-125.92
-123.16
-119.11
-114.06
-108.56
-103.10
-97.95
-93.11
-88.48
-83.95
-79.47
-75.08
-70.81
-66.74
-63.00
-59.70
-56.87
-54.36
-51.84
-48.90
-45.21
-40.63
-35.19
-29.06
-22.44
-15.57
-8.75
-2.47
2.67
6.17
7.91
8.23
7.92
7.84
8.67
10.58
13.35
16.46
19.46
22.05
24.12
25.60
26.34
26.17
24.95
22.76
19.87
16.72
13.70
11.03
8.72
6.60
4.51
2.32
0.07
-2.14
-4.17
-5.89
-7.21
-8.13
-8.74
-9.18
-9.60
-10.00
-10.27
-10.24
-9.77
-8.88
-7.78
-6.69
-5.76
-4.98
-4.24
-3.45
-2.74
-2.29
-2.29
-2.74
-3.47
-4.28
-5.07
-5.99
-7.27
-9.02
-11.09
-13.13
-14.72
-15.62
-15.80
-15.48
-14.91
-14.37
-14.00
-13.78
-13.57
-13.16
-12.46
-11.49
-10.48
-9.76
-9.57
-9.90
-10.44
-10.82
-10.84
-10.57
-10.37
-10.66
-11.58
-12.95
-14.31
-15.12
-15.03
-13.99
-12.18
-9.92
-7.56
-5.34
-3.34
-1.59
-0.11
1.10
2.00
2.56
2.75
2.59
2.18
1.63
1.01
0.36
-0.32
-1.06
-1.92
-2.84
-3.75
-4.53
-5.08
-5.33
-5.31
-5.08
-4.81
-4.62
-4.57
-4.71
-5.03
-5.53
-6.18
-6.98
-7.90
-8.88
-9.82
-10.70
-11.54
-12.43
-13.46
-14.61
-15.82
-16.96
-17.81
-18.23
-18.10
-17.39
-16.10
-14.28
-12.09
-9.73
-7.45
-5.45
-3.83
-2.52
-1.39
-0.28
0.81
1.83
2.63
3.13
3.39
3.56
3.77
4.01
4.16
4.03
3.51
2.71
1.83
1.06
0.44
-0.15
-0.86
-1.76
-2.77
-3.71
-4.45
-5.08
-5.79
-6.75
-7.97
-9.20
-10.00
-10.08
-9.36
-8.10
-6.70
-5.55
-4.88
-4.82
-5.40
-6.67
-8.60
-10.98
-13.46
-15.57
-16.99
-17.70
-18.09
-18.65
-19.78
-21.49
-23.38
-24.81
-25.10
-23.73
-20.43
-15.14
-8.04
0.41
9.59
18.93
28.07
36.97
45.89
55.05
64.53
74.18
83.72
92.92
101.58
109.52
116.35
121.59
124.84
125.99
125.16
122.17
116.30
106.18
90.48
68.88
42.63
14.51
-12.32
-35.32
-53.51
-67.34
-77.89
-85.98
-91.70
-94.71
-94.86
-92.76
-89.67
-87.03
-85.64
-85.47
-85.79
-85.70
-84.77
-83.19
-81.56
-80.31
-79.36
-77.98
-75.18
-70.26
-63.12
-54.34
-44.86
-35.62
-27.22
-19.91
-13.66
-8.44
-4.23
-1.01
1.37
3.15
4.67
6.24
7.97
9.78
11.40
12.45
12.68
12.04
10.64
8.78
6.74
4.72
2.78
0.83
-1.26
-3.60
-6.26
-9.36
-12.98
-17.16
-21.80
-26.50
-30.60
-33.31
-33.94
-32.02
-27.49
-20.64
-12.07
-2.54
7.14
16.19
23.95
29.96
34.07
36.41
37.32
37.23
36.43
35.14
33.46
31.50
29.47
27.70
26.50
25.93
25.82
25.74
25.32
24.31
22.76
20.86
18.79
16.67
14.49
12.20
9.74
7.15
4.43
1.60
-1.37
-4.51
-7.87
-11.40
-15.01
-18.65
-22.23
-25.69
-28.91
-31.70
-33.80
-34.87
-34.57
-32.62
-28.91
-23.50
-16.70
-8.96
-0.78
7.31
14.74
20.93
25.39
27.81
28.16
26.73
24.12
21.10
18.39
16.52
15.75
16.01
17.02
18.32
19.42
19.96
19.78
18.88
17.47
15.79
14.03
12.33
10.68
9.06
7.40
5.61
3.63
1.49
-0.73
-2.92
-4.99
-6.94
-8.82
-10.61
-12.24
-13.63
-14.74
-15.71
-16.88
-18.60
-21.05
-24.07
-27.19
-29.76
-31.14
-30.91
-28.96
-25.42
-20.62
-15.04
-9.17
-3.48
1.62
5.84
8.99
11.00
11.99
12.20
12.05
11.90
11.93
12.00
11.83
11.03
9.41
7.09
4.49
2.01
-0.05
-1.69
-3.06
-4.30
-5.37
-6.06
-6.22
-5.91
-5.49
-5.46
-6.27
-8.06
-10.60
-13.41
-15.98
-17.94
-19.15
-19.74
-19.90
-19.97
-20.26
-21.08
-22.62
-24.84
-27.32
-29.32
-29.95
-28.39
-24.24
-17.66
-9.59
-1.45
5.18
9.06
9.71
7.51
3.51
-1.01
-5.09
-8.38
-11.21
-14.20
-17.88
-22.35
-27.09
-31.12
-33.15
-31.74
-25.71
-14.51
1.26
19.71
37.92
53.06
63.53
69.76
74.11
79.71
88.72
101.25
115.17
127.35
135.09
137.20
133.91
126.19
115.04
101.27
85.98
70.79
57.47
46.95
38.51
29.88
18.48
3.04
-15.35
-33.63
-48.38
-57.60
-61.51
-62.07
-61.55
-61.20
-60.98
-60.19
-58.37
-55.86
-53.70
-52.88
-53.59
-55.17
-56.44
-56.25
-54.19
-50.57
-46.33
-42.47
-39.65
-38.00
-37.13
-36.42
-35.23
-33.19
-30.23
-26.58
-22.65
-18.89
-15.63
-12.97
-10.80
-8.87
-6.99
-5.11
-3.35
-2.02
-1.28
-1.22
-1.71
-2.50
-3.39
-4.27
-5.10
-5.88
-6.56
-6.97
-7.03
-6.73
-6.20
-5.69
-5.40
-5.41
-5.68
-6.01
-6.14
-5.88
-5.16
-4.11
-2.89
-1.74
-0.76
0.05
0.77
1.48
2.13
2.60
2.83
2.80
2.72
2.87
3.54
4.83
6.61
8.46
9.90
10.53
10.15
8.85
7.05
5.33
4.19
3.81
3.99
4.26
4.09
3.17
1.57
-0.30
-1.91
-3.00
-3.57
-3.94
-4.49
-5.47
-6.81
-8.16
-9.13
-9.43
-9.04
-8.16
-7.05
-5.91
-4.77
-3.52
-2.08
-0.44
1.21
2.60
3.47
3.69
3.32
2.57
1.75
1.10
0.72
0.56
0.51
0.51
0.53
0.65
0.85
1.03
1.01
0.60
-0.25
-1.39
-2.55
-3.49
-4.15
-4.65
-5.24
-6.08
-7.17
-8.33
-9.33
-10.05
-10.51
-10.92
-11.47
-12.28
-13.28
-14.36
-15.38
-16.32
-17.24
-18.27
-19.48
-20.84
-22.18
-23.23
-23.75
-23.49
-22.34
-20.23
-17.22
-13.42
-9.14
-4.78
-0.75
2.56
4.95
6.47
7.38
8.01
8.57
9.14
9.57
9.72
9.55
9.15
8.74
8.46
8.30
8.08
7.50
6.35
4.46
1.82
-1.54
-5.57
-10.15
-15.08
-20.06
-24.91
-29.56
-34.13
-38.91
-44.04
-49.47
-54.95
-60.18
-65.10
-70.06
-75.70
-82.52
-90.65
-99.64
-108.42
-115.72
-120.31
-121.19
-117.69
-109.60
-97.33
-82.16
-66.24
-52.16
-42.28
-37.89
-38.81
-43.79
-51.15
-59.61
-68.71
-78.40
-88.49
-98.19
-106.08
-110.84
-111.95
-110.22
-107.49
-105.93
-107.12
-111.65
-119.13
-128.42
-138.27
-147.57
-155.44
-161.15
-163.96
-163.16
-158.30
-149.40
-137.19
-123.05
-108.72
-95.81
-85.50
-78.34
-74.47
-73.82
-76.14
-80.75
-86.31
-90.71
-91.48
-86.72
-75.80
-59.82
-41.00
-21.69
-3.32
14.01
31.23
49.47
69.17
89.90
110.68
130.61
149.43
167.70
186.49
207.14
230.95
258.93
291.50
327.92
365.79
401.02
428.59
443.98
444.74
431.28
406.58
374.77
339.55
303.00
265.50
226.36
184.74
140.31
93.33
44.37
-5.99
-57.17
-108.46
-158.78
-206.54
-249.90
-287.05
-316.74
-338.56
-352.84
-360.35
-361.79
-357.38
-346.92
-330.12
-307.16
-278.99
-247.35
-214.39
-182.09
-151.87
-124.41
-99.64
-77.02
-55.70
-34.71
-13.13
9.76
34.24
59.87
85.46
109.08
128.59
142.24
149.34
150.44
147.14
141.41
134.87
128.35
121.88
115.08
107.54
99.15
89.95
80.05
69.33
57.34
43.49
27.22
8.35
-12.61
-34.17
-53.99
-69.26
-77.45
-77.09
-68.19
-52.16
-31.31
-7.99
15.89
39.10
60.84
80.44
97.20
110.53
120.24
126.74
130.93
133.79
135.97
137.48
137.85
136.57
133.40
128.74
123.48
118.65
114.97
112.66
111.51
111.12
111.17
111.51
112.07
112.75
113.35
113.61
113.11
111.46
108.09
102.34
93.48
80.95
64.50
44.41
21.58
-2.49
-25.77
-45.93
-60.61
-67.92
-66.81
-57.42
-41.05
-19.76
4.03
28.04
50.33
69.40
84.20
94.18
99.38
100.35
98.07
93.55
87.65
80.92
73.60
65.97
58.24
50.75
43.76
37.37
31.46
25.80
20.11
14.19
7.98
1.55
-4.95
-11.47
-18.07
-24.92
-32.34
-40.68
-50.24
-61.18
-73.37
-86.24
-98.66
-108.98
-115.33
-116.05
-110.20
-97.92
-80.39
-59.49
-37.21
-15.22
5.23
23.36
38.62
50.65
59.40
65.13
68.47
70.31
71.45
72.50
73.75
75.26
77.05
79.20
81.81
84.83
87.96
90.57
91.84
90.94
87.25
80.60
71.33
60.16
48.01
35.73
23.93
12.94
2.78
-6.80
-16.31
-26.32
-37.23
-48.87
-60.17
-69.24
-73.75
-71.74
-62.36
-46.12
-24.75
-0.53
24.19
47.34
67.08
81.88
90.65
93.03
89.72
82.28
72.74
62.97
54.22
46.97
41.33
37.29
34.93
34.47
36.03
39.67
45.30
52.79
61.83
71.93
82.26
91.78
99.51
104.87
107.87
109.01
109.06
108.63
108.06
107.35
106.29
104.62
102.17
98.93
95.09
91.01
87.10
83.59
80.41
77.24
73.64
69.27
64.00
57.89
51.05
43.58
35.68
27.75
20.63
15.41
12.98
13.51
16.14
19.08
20.14
17.52
10.46
-0.61
-14.13
-28.03
-40.25
-49.38
-54.89
-57.15
-57.07
-55.71
-53.77
-51.52
-48.79
-45.25
-40.67
-34.94
-28.04
-20.00
-11.04
-1.79
6.63
12.82
15.68
15.03
11.87
8.13
5.88
6.58
10.62
17.61
27.01
38.69
52.95
70.15
89.95
110.89
130.28
144.77
151.08
146.78
130.66
102.83
64.57
18.19
-33.04
-85.10
-133.61
-174.52
-204.96
-223.88
-232.12
-231.95
-226.16
-217.12
-206.46
-195.07
-183.59
-172.69
-163.07
-155.08
-148.45
-142.38
-135.95
-128.64
-120.60
-112.56
-105.31
-99.19
-94.04
-89.34
-84.69
-80.06
-75.86
-72.60
-70.57
-69.67
-69.38
-68.95
-67.52
-64.32
-58.79
-50.75
-40.53
-28.86
-16.72
-5.04
5.49
14.48
21.72
27.12
30.66
32.48
32.98
32.73
32.30
32.06
31.99
31.85
31.32
30.23
28.62
26.75
24.85
23.10
21.58
20.28
19.15
18.14
17.17
16.17
15.02
13.63
11.90
9.82
7.45
5.00
2.75
0.95
-0.28
-1.16
-2.10
-3.67
-6.38
-10.40
-15.49
-20.99
-25.97
-29.49
-30.89
-29.93
-26.92
-22.56
-17.65
-12.87
-8.53
-4.59
-0.85
2.80
6.23
9.09
11.00
11.77
11.50
10.50
9.16
7.78
6.45
5.14
3.80
2.47
1.34
0.62
0.43
0.68
1.06
1.10
0.44
-1.05
-3.20
-5.61
-7.83
-9.49
-10.52
-11.10
-11.57
-12.23
-13.28
-14.69
-16.27
-17.83
-19.24
-20.57
-21.94
-23.56
-25.41
-27.32
-28.93
-29.83
-29.66
-28.27
-25.70
-22.19
-18.09
-13.74
-9.45
-5.35
-1.45
2.24
5.71
8.80
11.26
12.95
13.86
14.19
14.20
14.09
13.91
13.59
13.04
12.23
11.26
10.25
9.27
8.30
7.26
6.08
4.78
3.42
2.11
0.84
-0.45
-1.88
-3.57
-5.53
-7.63
-9.63
-11.28
-12.42
-13.02
-13.31
-13.54
-13.95
-14.65
-15.60
-16.73
-17.98
-19.31
-20.68
-21.92
-22.75
-22.87
-22.13
-20.59
-18.54
-16.30
-14.10
-11.95
-9.83
-7.75
-5.87
-4.40
-3.53
-3.21
-3.16
-3.07
-2.68
-2.01
-1.16
-0.39
0.08
0.07
-0.58
-2.01
-4.34
-7.60
-11.69
-16.39
-21.43
-26.52
-31.36
-35.74
-39.47
-42.46
-44.75
-46.54
-48.17
-49.92
-52.02
-54.44
-57.02
-59.50
-61.62
-63.13
-63.79
-63.40
-61.78
-58.91
-54.91
-50.06
-44.57
-38.50
-31.64
-23.56
-13.72
-1.71
12.61
29.13
47.56
67.55
88.70
110.65
132.89
154.81
175.68
194.71
211.16
224.47
234.31
240.53
243.34
243.18
240.76
236.99
232.63
228.09
223.11
216.73
207.56
194.24
175.89
152.40
124.40
92.92
59.22
24.55
-9.75
-42.15
-71.09
-95.23
-113.87
-127.22
-136.28
-142.41
-146.73
-149.82
-151.75
-152.32
-151.45
-149.41
-146.66
-143.70
-140.83
-137.99
-134.95
-131.36
-127.00
-121.78
-115.78
-109.09
-101.84
-94.22
-86.43
-78.75
-71.46
-64.78
-58.83
-53.59
-48.96
-44.74
-40.79
-36.97
-33.30
-29.80
-26.57
-23.65
-21.09
-18.82
-16.75
-14.81
-12.92
-11.14
-9.56
-8.28
-7.39
-6.84
-6.55
-6.36
-6.17
-5.92
-5.72
-5.71
-6.01
-6.66
-7.53
-8.43
-9.16
-9.56
-9.53
-9.06
-8.15
-6.95
-5.70
-4.65
-4.01
-3.76
-3.69
-3.50
-2.96
-2.13
-1.27
-0.78
-0.83
-1.33
-1.93
-2.25
-2.22
-2.02
-2.00
-2.39
-3.18
-4.08
-4.74
-4.87
-4.38
-3.40
-2.14
-0.87
0.24
1.07
1.61
1.91
2.05
2.16
2.23
2.24
2.12
1.84
1.41
0.89
0.33
-0.30
-1.06
-1.99
-3.10
-4.30
-5.49
-6.59
-7.56
-8.43
-9.21
-9.91
-10.50
-10.84
-10.79
-10.24
-9.21
-7.85
-6.41
-5.18
-4.30
-3.75
-3.29
-2.63
-1.66
-0.42
0.82
1.75
2.16
2.07
1.67
1.27
1.02
0.93
0.85
0.65
0.29
-0.10
-0.28
-0.16
0.20
0.49
0.32
-0.55
-2.05
-3.87
-5.56
-6.80
-7.57
-8.08
-8.66
-9.56
-10.79
-12.16
-13.42
-14.43
-15.12
-15.57
-15.81
-15.83
-15.58
-15.03
-14.22
-13.25
-12.22
-11.22
-10.22
-9.08
-7.58
-5.54
-2.83
0.52
4.26
8.00
11.29
13.73
15.14
15.58
15.29
14.52
13.47
12.22
10.80
9.25
7.65
6.07
4.53
2.98
1.29
-0.66
-2.97
-5.62
-8.47
-11.35
-14.07
-16.51
-18.76
-21.16
-24.15
-28.10
-33.00
-38.31
-43.16
-46.64
-48.18
-47.86
-46.27
-44.25
-42.40
-40.93
-39.57
-37.84
-35.38
-32.11
-28.24
-24.11
-20.09
-16.54
-13.91
-12.73
-13.55
-16.59
-21.58
-27.68
-33.58
-37.87
-39.18
-36.49
-29.19
-17.22
-1.16
17.83
38.23
58.73
78.68
98.33
118.61
140.49
164.39
189.82
215.11
237.58
253.77
259.99
253.26
232.50
199.16
157.38
112.81
70.90
35.29
7.08
-14.66
-31.64
-45.20
-55.75
-63.19
-67.58
-69.60
-70.45
-71.25
-72.50
-73.93
-74.80
-74.39
-72.48
-69.42
-66.03
-63.05
-60.89
-59.44
-58.21
-56.58
-54.16
-50.89
-47.09
-43.24
-39.78
-36.94
-34.69
-32.78
-30.85
-28.63
-26.06
-23.31
-20.75
-18.70
-17.35
-16.63
-16.22
-15.67
-14.71
-13.23
-11.42
-9.57
-7.96
-6.65
-5.58
-4.60
-3.56
-2.50
-1.52
-0.81
-0.44
-0.32
-0.18
0.24
1.04
2.07
2.95
3.26
2.75
1.51
-0.10
-1.64
-2.76
-3.31
-3.39
-3.24
-2.96
-2.63
-2.23
-1.70
-1.06
-0.38
0.22
0.65
0.86
0.82
0.56
0.10
-0.47
-1.05
-1.48
-1.68
-1.60
-1.34
-1.07
-1.00
-1.25
-1.77
-2.35
-2.75
-2.83
-2.57
-2.12
-1.72
-1.50
-1.49
-1.50
-1.38
-1.03
-0.55
-0.12
0.09
-0.02
-0.44
-1.07
-1.88
-2.85
-3.98
-5.19
-6.31
-7.18
-7.65
-7.76
-7.66
-7.51
-7.42
-7.35
-7.22
-6.95
-6.58
-6.17
-5.77
-5.30
-4.62
-3.61
-2.27
-0.77
0.65
1.72
2.31
2.46
2.34
2.19
2.21
2.48
2.91
3.29
3.37
3.03
2.40
1.69
1.19
0.98
0.97
0.99
0.93
0.86
0.94
1.34
1.91
2.35
2.29
1.58
0.37
-0.92
-1.89
-2.39
-2.60
-2.86
-3.43
-4.31
-5.25
-5.90
-6.05
-5.69
-5.05
-4.37
-3.92
-3.72
-3.76
-4.00
-4.40
-4.95
-5.53
-5.90
-5.84
-5.33
-4.66
-4.29
-4.64
-5.74
-7.17
-8.28
-8.57
-8.09
-7.50
-7.80
-9.74
-13.30
-17.67
-21.52
-23.72
-23.92
-22.71
-21.18
-20.65
-21.91
-25.18
-30.31
-36.89
-44.04
-50.08
-52.52
-48.81
-37.82
-20.86
-1.79
14.44
23.91
25.45
20.97
13.99
7.72
3.49
0.68
-2.20
-6.13
-10.84
-15.22
-18.13
-19.40
-19.85
-20.86
-23.41
-27.78
-33.34
-38.66
-42.30
-43.29
-41.34
-37.05
-31.47
-25.64
-20.26
-15.46
-11.03
-6.81
-2.95
0.00
1.38
0.67
-2.09
-6.46
-11.62
-16.80
-21.41
-25.10
-27.72
-29.25
-29.84
-29.89
-30.02
-31.09
-33.84
-38.81
-46.00
-54.87
-64.33
-73.09
-79.90
-83.91
-84.88
-83.17
-79.71
-75.75
-72.63
-71.56
-73.48
-78.78
-87.29
-98.11
-109.83
-120.93
-130.25
-137.53
-143.51
-149.84
-158.40
-170.57
-186.49
-204.60
-221.94
-234.89
-240.39
-237.01
-225.39
-207.81
-187.24
-166.06
-145.35
-124.92
-103.97
-82.05
-59.54
-37.60
-17.46
0.35
16.56
33.00
51.86
74.76
101.97
132.24
163.31
192.86
219.45
243.05
265.08
287.94
314.51
347.34
387.63
433.95
481.47
522.17
546.69
547.28
520.73
469.58
401.22
324.84
248.10
175.02
105.73
37.84
-31.58
-104.36
-180.12
-255.98
-326.78
-386.14
-428.21
-449.64
-450.93
-436.36
-412.26
-384.95
-358.84
-336.04
-317.08
-301.92
-290.56
-282.74
-277.36
-272.29
-264.94
-253.35
-237.03
-217.17
-195.92
-175.36
-156.43
-138.57
-120.10
-99.11
-74.42
-46.17
-15.79
14.62
43.19
68.89
91.84
112.92
133.14
153.07
172.49
190.61
206.44
219.38
229.49
237.54
244.84
252.97
263.46
277.35
294.65
314.00
332.75
347.67
356.11
357.10
351.72
342.64
332.87
324.59
318.52
314.05
310.03
305.46
299.74
292.51
283.25
271.13
255.17
234.69
209.74
181.26
150.92
120.75
92.52
67.41
45.77
27.30
11.37
-2.52
-14.51
-24.38
-31.78
-36.65
-39.36
-40.68
-41.54
-42.70
-44.47
-46.69
-48.83
-50.40
-51.10
-51.07
-50.77
-50.70
-51.13
-51.93
-52.57
-52.40
-50.89
-47.89
-43.62
-38.53
-33.07
-27.56
-22.16
-16.93
-12.03
-7.69
-4.24
-1.85
-0.57
-0.14
-0.16
-0.20
-0.03
0.36
0.75
0.95
0.81
0.36
-0.29
-1.07
-2.01
-3.22
-4.80
-6.76
-8.95
-11.14
-13.10
-14.75
-16.22
-17.78
-19.78
-22.53
-26.10
-30.21
-34.26
-37.41
-38.78
-37.77
-34.22
-28.41
-21.08
-13.05
-5.08
2.33
8.90
14.49
19.04
22.46
24.72
25.87
26.05
25.55
24.66
23.72
23.06
22.92
23.41
24.48
25.85
27.10
27.82
27.75
26.97
25.79
24.67
24.03
24.03
24.55
25.26
25.72
25.57
24.60
22.85
20.60
18.43
17.15
17.58
20.11
24.33
28.88
31.75
31.04
25.64
15.78
2.88
-10.99
-23.91
-34.64
-42.74
-48.33
-51.77
-53.49
-53.93
-53.62
-53.16
-53.06
-53.58
-54.57
-55.55
-55.91
-55.13
-52.97
-49.52
-45.20
-40.60
-36.34
-32.88
-30.42
-28.88
-28.02
-27.61
-27.56
-28.02
-29.22
-31.31
-34.17
-37.33
-40.01
-41.38
-40.73
-37.68
-32.26
-24.83
-16.05
-6.71
2.40
10.59
17.41
22.69
26.52
29.20
31.08
32.41
33.32
33.78
33.75
33.29
32.56
31.84
31.29
30.95
30.68
30.13
28.97
26.94
23.95
20.03
15.40
10.40
5.65
1.90
-0.16
-0.35
0.81
2.01
1.61
-1.69
-8.27
-17.32
-27.11
-35.67
-41.49
-43.88
-43.04
-39.70
-34.63
-28.48
-21.71
-14.74
-8.13
-2.55
1.35
3.27
3.35
2.24
0.78
-0.30
-0.65
-0.40
0.00
0.10
-0.42
-1.57
-3.16
-4.95
-6.74
-8.52
-10.41
-12.57
-15.12
-18.15
-21.63
-25.53
-29.86
-34.76
-40.52
-47.52
-56.08
-66.30
-77.97
-90.44
-102.71
-113.50
-121.39
-125.16
-124.23
-118.97
-110.86
-101.99
-94.31
-88.82
-85.06
-81.38
-75.75
-66.65
-53.66
-37.44
-19.18
-0.07
19.07
37.72
55.53
72.29
88.17
103.94
120.89
140.28
162.52
186.58
210.05
229.88
243.56
250.02
249.86
244.80
236.84
227.49
217.62
207.71
198.15
189.47
182.25
177.04
174.16
173.60
174.79
176.39
176.33
172.09
161.42
142.97
116.87
84.83
49.87
15.73
-13.88
-36.02
-49.13
-53.39
-50.69
-44.07
-36.66
-30.65
-26.83
-24.62
-22.88
-20.75
-18.02
-15.07
-12.41
-10.18
-8.03
-5.29
-1.44
3.59
9.39
15.26
20.70
25.63
30.29
34.95
39.57
43.56
46.01
46.07
43.36
38.16
31.44
24.54
18.84
15.29
14.14
14.83
16.19
16.88
15.89
12.96
8.62
3.96
0.08
-2.29
-3.02
-2.46
-1.17
0.38
1.86
3.06
3.90
4.37
4.55
4.70
5.15
6.27
8.34
11.29
14.73
17.99
20.42
21.64
21.83
21.63
21.88
23.04
24.72
25.67
24.27
19.20
10.02
-2.74
-18.13
-35.50
-54.91
-77.16
-103.32
-134.07
-169.69
-210.33
-256.61
-309.41
-368.88
-432.73
-495.14
-547.41
-580.27
-587.22
-567.08
-524.37
-467.37
-404.74
-342.62
-283.44
-226.69
-171.00
-115.90
-62.43
-12.53
32.54
73.56
113.90
158.47
211.14
272.03
335.68
391.81
428.63
437.46
415.91
368.43
303.88
231.93
160.69
96.54
45.60
14.68
9.96
33.66
81.01
139.86
193.94
228.40
234.76
212.72
168.13
109.20
42.99
-25.52
-92.17
-151.50
-196.08
-218.13
-212.99
-182.28
-135.07
-85.54
-48.21
-32.84
-41.45
-68.49
-104.41
-140.17
-170.67
-195.35
-216.20
-234.62
-249.21
-255.79
-249.32
-227.00
-189.83
-142.43
-91.00
-40.44
7.75
55.88
108.21
167.76
233.26
298.03
351.59
383.54
387.76
365.01
322.38
269.94
216.42
166.34
119.90
75.36
32.06
-7.92
-40.44
-61.65
-70.33
-68.91
-62.29
-55.69
-52.62
-53.92
-58.03
-62.40
-64.95
-64.96
-63.24
-61.53
-61.63
-64.53
-70.03
-76.88
-83.37
-88.08
-90.35
-90.35
-88.78
-86.43
-83.86
-81.27
-78.63
-75.86
-73.04
-70.26
-67.55
-64.65
-61.00
-55.98
-49.24
-41.08
-32.51
-24.84
-19.27
-16.24
-15.33
-15.56
-15.85
-15.51
-14.38
-12.71
-10.76
-8.65
-6.31
-3.68
-0.81
2.15
5.20
8.63
13.01
19.01
27.03
36.80
47.33
57.10
64.53
68.55
68.89
66.12
61.24
55.26
48.71
41.56
33.32
23.57
12.37
0.47
-10.77
-19.76
-25.19
-26.40
-23.55
-17.63
-10.12
-2.60
3.56
7.50
8.91
7.94
5.10
1.09
-3.32
-7.42
-10.58
-12.39
-12.75
-11.93
-10.54
-9.38
-9.11
-10.05
-11.99
-14.26
-16.10
-16.75
-15.85
-13.37
-9.63
-5.23
-0.91
2.54
4.38
4.11
1.70
-2.41
-7.38
-12.37
-16.76
-20.34
-23.12
-25.21
-26.47
-26.67
-25.57
-23.30
-20.35
-17.41
-15.06
-13.49
-12.46
-11.49
-10.17
-8.50
-6.76
-5.34
-4.46
-4.00
-3.61
-3.03
-2.23
-1.45
-1.07
-1.34
-2.27
-3.65
-5.27
-7.00
-8.77
-10.51
-12.00
-12.82
-12.70
-11.58
-9.73
-7.57
-5.49
-3.54
-1.48
1.04
4.24
7.96
11.78
15.11
17.56
18.93
19.27
18.76
17.60
16.03
14.34
12.93
12.23
12.55
13.90
15.91
18.06
19.84
21.14
22.12
23.14
24.28
25.14
24.94
22.83
18.37
11.81
4.02
-3.83
-10.82
-16.51
-20.91
-24.13
-26.19
-26.90
-26.08
-23.84
-20.77
-17.77
-15.65
-14.85
-15.21
-16.13
-16.84
-16.80
-15.82
-14.13
-12.12
-10.17
-8.54
-7.19
-5.98
-4.81
-3.73
-2.97
-2.81
-3.44
-4.82
-6.72
-8.85
-11.00
-13.08
-15.08
-16.91
-18.29
-18.89
-18.42
-16.94
-14.83
-12.68
-11.11
-10.51
-10.99
-12.32
-14.05
-15.65
-16.60
-16.47
-15.01
-12.23
-8.47
-4.27
-0.35
2.63
4.19
4.17
2.73
0.29
-2.64
-5.58
-8.11
-9.97
-11.01
-11.16
-10.50
-9.19
-7.53
-5.92
-4.70
-4.10
-4.17
-4.74
-5.53
-6.20
-6.53
-6.39
-5.80
-4.80
-3.48
-1.96
-0.45
0.83
1.66
1.92
1.78
1.62
1.98
3.40
6.15
10.21
15.22
20.64
25.91
30.55
34.24
36.82
38.30
38.87
38.82
38.44
37.95
37.42
36.83
36.11
35.22
34.14
32.78
31.03
28.74
25.85
22.51
19.08
15.93
13.29
11.09
9.03
6.77
4.18
1.49
-0.91
-2.60
-3.40
-3.46
-3.21
-3.19
-3.92
-5.64
-8.28
-11.32
-13.94
-15.27
-14.77
-12.42
-8.77
-4.72
-1.06
1.70
3.48
4.45
4.80
4.76
4.53
4.26
4.11
3.99
3.60
2.47
0.28
-2.88
-6.38
-9.28
-10.65
-9.93
-7.17
-3.01
1.60
5.56
7.84
7.63
4.45
-1.79
-10.57
-20.86
-31.20
-40.19
-46.89
-51.21
-53.95
-56.45
-59.94
-65.08
-71.66
-78.80
-85.40
-90.61
-94.12
-96.04
-96.56
-95.81
-93.70
-90.26
-85.89
-81.60
-78.82
-78.92
-82.46
-88.88
-96.62
-103.93
-109.73
-113.95
-117.09
-119.60
-121.32
-121.61
-119.95
-116.37
-111.38
-105.19
-97.13
-85.63
-69.27
-48.28
-25.48
-5.76
5.91
6.72
-2.74
-18.88
-36.76
-51.98
-61.40
-63.13
-55.94
-39.25
-13.82
17.56
50.17
78.70
99.30
111.19
116.64
119.44
122.91
128.57
136.16
144.64
153.25
161.83
170.43
178.82
186.26
191.83
194.96
195.80
195.03
193.45
191.72
190.07
188.32
185.82
181.52
174.17
162.84
147.54
129.73
112.38
99.08
92.95
95.64
106.47
122.50
139.20
151.50
154.78
145.99
124.63
93.57
59.07
29.40
12.14
10.93
23.43
41.81
55.93
57.72
44.79
21.11
-5.31
-26.70
-39.12
-43.80
-45.50
-49.28
-57.72
-69.93
-82.77
-93.17
-99.95
-104.42
-109.28
-116.63
-126.43
-136.07
-141.47
-139.11
-127.85
-109.80
-89.51
-72.26
-61.93
-59.59
-63.12
-68.34
-70.87
-67.97
-59.61
-48.07
-36.45
-26.92
-19.61
-12.76
-3.98
8.19
23.29
39.22
53.34
63.91
70.89
75.74
80.37
85.95
92.47
98.96
104.41
108.55
112.10
116.28
121.95
128.71
134.57
136.52
131.44
117.01
92.43
58.28
16.24
-31.09
-80.34
-127.15
-166.63
-194.10
-206.48
-203.37
-187.28
-162.82
-135.07
-108.11
-84.27
-64.38
-48.55
-36.73
-28.82
-24.46
-22.71
-22.15
-21.44
-19.82
-17.33
-14.63
-12.36
-10.72
-9.37
-7.56
-4.64
-0.44
4.64
9.79
14.12
17.00
18.28
18.22
17.35
16.27
15.38
14.94
14.90
15.02
14.94
14.19
12.38
9.25
4.78
-0.85
-7.27
-14.08
-20.86
-27.31
-33.18
-38.33
-42.60
-46.00
-48.70
-51.01
-53.28
-55.71
-58.23
-60.51
-62.09
-62.56
-61.81
-60.03
-57.57
-54.90
-52.36
-50.16
-48.39
-46.99
-45.78
-44.53
-43.10
-41.55
-40.24
-39.68
-40.25
-41.93
-44.08
-45.82
-46.27
-44.99
-42.00
-37.61
-32.25
-26.32
-20.28
-14.73
-10.34
-7.63
-6.65
-7.00
-7.94
-8.96
-9.99
-11.52
-14.16
-18.16
-23.10
-27.95
-31.34
-32.07
-29.44
-23.43
-14.79
-4.72
5.49
14.91
23.44
31.78
41.23
53.01
67.52
83.74
99.32
111.22
116.77
114.70
105.62
91.71
75.85
60.71
47.98
38.26
31.28
26.42
23.08
20.83
19.40
18.44
17.46
15.80
12.70
7.57
0.13
-9.34
-20.10
-31.11
-41.41
-50.56
-58.82
-66.99
-76.06
-86.67
-98.90
-112.12
-125.28
-137.15
-146.52
-152.52
-154.58
-152.63
-146.96
-138.08
-126.47
-112.30
-95.28
-74.69
-49.87
-20.68
12.04
46.38
79.68
109.23
133.00
150.07
160.75
166.30
168.24
167.87
165.94
162.64
157.82
151.34
143.30
134.05
124.07
113.88
103.87
94.35
85.52
77.43
69.94
62.59
54.68
45.38
34.15
20.96
6.52
-7.82
-20.46
-30.16
-36.50
-40.09
-42.40
-45.25
-50.22
-58.21
-69.19
-82.31
-95.94
-107.92
-115.79
-117.11
-110.13
-94.38
-71.11
-43.07
-13.80
13.50
36.79
55.44
69.84
80.71
88.48
93.22
94.89
93.77
90.59
86.45
82.34
78.84
76.06
73.79
71.75
69.71
67.56
65.12
62.14
58.31
53.39
47.33
40.27
32.53
24.53
16.79
9.83
4.03
-0.50
-3.92
-6.70
-9.35
-12.12
-14.97
-17.54
-19.47
-20.65
-21.39
-22.36
-24.21
-27.40
-31.94
-37.48
-43.41
-48.98
-53.41
-55.93
-55.97
-53.18
-47.61
-39.64
-29.88
-18.90
-7.07
5.41
18.39
31.46
43.88
54.70
63.02
68.32
70.68
70.74
69.39
67.49
65.57
63.71
61.78
59.62
57.24
54.83
52.61
50.56
48.31
45.32
41.16
35.91
30.17
24.71
19.98
15.70
10.91
4.56
-3.82
-13.80
-24.12
-33.38
-40.75
-46.38
-51.26
-56.57
-63.03
-70.57
-78.55
-86.22
-93.18
-99.46
-105.11
-109.63
-111.71
-109.44
-101.18
-86.45
-66.43
-43.67
-21.23
-1.51
14.30
26.29
35.22
41.84
46.53
49.39
50.57
50.59
50.33
50.73
52.42
55.53
59.58
63.67
66.66
67.43
65.17
59.67
51.37
41.36
30.96
21.38
13.26
6.65
1.12
-3.86
-8.57
-13.00
-16.90
-20.10
-22.63
-24.91
-27.48
-30.77
-34.96
-39.83
-45.05
-50.31
-55.65
-61.40
-68.03
-75.71
-84.23
-92.95
-101.07
-107.97
-113.27
-116.87
-118.87
-119.40
-118.71
-117.20
-115.34
-113.57
-112.07
-110.77
-109.51
-108.34
-107.48
-107.19
-107.38
-107.29
-105.68
-101.39
-93.94
-83.99
-73.31
-64.08
-58.13
-56.28
-58.12
-62.18
-66.51
-69.09
-68.38
-63.72
-55.48
-45.07
-34.66
-26.50
-21.95
-20.98
-21.92
-22.41
-20.59
-16.37
-11.74
-9.95
-13.59
-22.85
-34.74
-43.90
-44.68
-33.53
-10.64
20.11
52.48
80.24
99.03
107.20
105.46
95.80
80.64
62.62
44.65
29.95
21.58
21.29
28.67
40.95
54.03
63.94
68.42
67.38
62.40
55.50
48.11
40.51
32.22
22.45
10.62
-3.49
-19.75
-37.78
-56.96
-76.56
-95.92
-114.40
-131.24
-145.13
-154.11
-155.83
-148.45
-131.66
-107.24
-78.78
-50.41
-25.43
-5.10
11.38
26.22
42.12
61.35
85.30
114.15
146.76
180.63
212.46
239.07
258.76
272.28
282.92
295.58
315.15
344.60
383.65
428.19
470.89
502.86
515.88
504.75
468.85
412.29
342.62
268.51
197.29
133.37
77.91
29.27
-15.83
-61.11
-109.43
-161.32
-213.94
-260.90
-293.58
-303.83
-287.09
-244.63
-183.76
-115.82
-52.78
-4.02
25.75
36.48
31.37
14.73
-9.68
-39.56
-73.92
-112.14
-152.71
-192.37
-225.79
-246.60
-249.16
-230.79
-193.44
-143.58
-90.38
-42.66
-6.00
18.56
33.59
42.81
48.74
51.52
49.80
42.48
30.18
15.29
0.61
-12.45
-24.63
-38.16
-55.05
-75.28
-96.32
-114.10
-124.88
-127.10
-122.13
-113.72
-106.25
-102.93
-104.45
-108.91
-112.80
-112.63
-106.36
-94.14
-77.83
-60.07
-43.14
-28.29
-15.77
-5.37
3.16
9.85
14.64
17.68
19.44
20.61
21.78
23.16
24.46
25.08
24.46
22.28
18.67
14.15
9.44
5.04
1.06
-3.00
-8.11
-15.24
-24.88
-36.67
-49.44
-61.66
-72.18
-80.74
-87.98
-95.13
-103.37
-113.32
-124.90
-137.54
-150.48
-162.92
-173.97
-182.41
-186.69
-185.18
-176.87
-161.82
-141.48
-118.28
-94.93
-73.57
-55.24
-39.96
-27.15
-16.17
-6.56
1.91
9.51
16.71
24.03
31.86
40.05
47.97
54.73
59.57
62.18
62.78
61.86
59.91
57.16
53.56
48.90
43.07
36.17
28.48
20.36
12.04
3.51
-5.48
-15.43
-26.82
-39.91
-54.33
-68.92
-81.87
-91.13
-95.03
-92.74
-84.44
-71.13
-54.23
-35.25
-15.49
3.89
21.95
37.85
51.08
61.42
69.04
74.33
77.74
79.56
80.03
79.34
77.77
75.72
73.65
71.86
70.41
68.97
66.99
63.95
59.52
53.74
46.97
39.68
32.25
24.87
17.42
9.62
1.03
-8.88
-20.48
-33.93
-48.84
-64.11
-77.85
-87.79
-91.77
-88.47
-77.84
-61.11
-40.34
-17.85
4.47
25.25
43.67
59.18
71.41
80.16
85.59
88.24
89.01
88.85
88.53
88.50
88.89
89.56
90.24
90.61
90.27
88.83
86.02
81.71
76.05
69.34
61.96
54.19
46.21
37.98
29.29
19.78
8.98
-3.51
-17.81
-33.40
-48.97
-62.50
-71.66
-74.47
-69.90
-58.19
-40.76
-19.69
2.89
25.26
46.21
64.89
80.63
92.80
101.02
105.37
106.58
105.82
104.36
103.18
102.64
102.55
102.39
101.67
100.23
98.20
95.88
93.51
91.05
88.19
84.38
79.13
72.19
63.71
54.24
44.46
34.99
26.12
17.76
9.53
0.86
-8.72
-19.55
-31.59
-44.37
-56.78
-67.18
-73.64
-74.44
-68.68
-56.58
-39.53
-19.64
0.93
20.45
37.88
52.77
65.00
74.47
81.13
85.08
86.74
86.85
86.29
85.81
85.81
86.28
86.90
87.19
86.81
85.59
83.64
81.14
78.30
75.23
71.91
68.22
63.96
58.96
53.11
46.44
39.13
31.47
23.85
16.59
9.90
3.74
-2.09
-8.02
-14.52
-22.00
-30.74
-40.70
-51.38
-61.76
-70.33
-75.36
-75.42
-69.82
-58.91
-43.98
-26.95
-9.71
6.26
20.10
31.53
40.50
47.11
51.45
53.72
54.37
54.05
53.50
53.29
53.67
54.41
55.12
55.36
54.90
53.79
52.25
50.51
48.68
46.70
44.44
41.77
38.64
35.08
31.11
26.74
21.96
16.80
11.34
5.74
0.20
-5.19
-10.50
-15.98
-22.02
-28.98
-37.05
-46.02
-55.16
-63.25
-68.87
-70.67
-67.81
-60.27
-48.77
-34.64
-19.43
-4.57
8.85
20.16
29.07
35.57
39.86
42.25
43.19
43.24
42.94
42.79
43.07
43.82
44.80
45.64
45.97
45.56
44.41
42.71
40.69
38.55
36.36
34.06
31.55
28.69
25.35
21.40
16.80
11.60
5.95
0.08
-5.78
-11.41
-16.78
-22.03
-27.45
-33.37
-40.14
-47.87
-56.35
-64.84
-72.16
-76.80
-77.39
-73.05
-63.84
-50.69
-35.21
-19.22
-4.25
8.71
19.28
27.53
33.70
37.99
40.56
41.60
41.46
40.66
39.79
39.39
39.70
40.65
41.83
42.75
43.02
42.45
41.10
39.18
36.89
34.35
31.61
28.62
25.28
21.48
17.12
12.17
6.70
0.91
-4.89
-10.42
-15.52
-20.25
-24.86
-29.75
-35.26
-41.60
-48.80
-56.56
-64.28
-71.06
-75.71
-77.08
-74.35
-67.32
-56.60
-43.43
-29.27
-15.45
-2.82
8.20
17.53
25.15
31.04
35.16
37.59
38.68
38.98
39.06
39.36
39.98
40.75
41.34
41.48
41.08
40.22
39.05
37.66
35.99
33.85
31.07
27.65
23.80
19.82
16.01
12.42
8.90
5.17
0.95
-3.83
-9.02
-14.25
-19.19
-23.66
-27.68
-31.50
-35.50
-40.08
-45.57
-52.08
-59.40
-66.87
-73.33
-77.37
-77.69
-73.47
-64.76
-52.50
-38.21
-23.58
-10.01
1.69
11.22
18.63
24.12
27.88
30.09
31.06
31.20
31.02
30.96
31.27
31.91
32.62
33.09
33.10
32.71
32.08
31.48
30.97
30.40
29.46
27.87
25.51
22.50
19.14
15.70
12.35
9.11
5.81
2.28
-1.59
-5.83
-10.34
-14.96
-19.54
-24.00
-28.36
-32.84
-37.76
-43.50
-50.29
-58.06
-66.24
-73.77
-79.21
-81.12
-78.48
-71.03
-59.44
-45.12
-29.79
-15.08
-2.08
8.68
17.14
23.50
28.01
30.93
32.53
33.21
33.44
33.66
34.17
35.05
36.11
37.01
37.50
37.42
36.81
35.84
34.71
33.52
32.30
30.91
29.20
27.05
24.47
21.55
18.41
15.14
11.71
8.03
4.03
-0.31
-4.91
-9.62
-14.27
-18.75
-23.08
-27.48
-32.25
-37.78
-44.35
-52.02
-60.50
-68.94
-76.14
-80.69
-81.38
-77.51
-69.14
-57.08
-42.68
-27.48
-12.91
-0.01
10.67
18.98
25.08
29.32
32.07
33.79
34.95
36.02
37.34
39.09
41.18
43.27
44.96
45.90
46.00
45.42
44.48
43.42
42.29
40.91
38.98
36.24
32.67
28.47
24.00
19.57
15.33
11.20
6.92
2.26
-2.85
-8.28
-13.71
-18.83
-23.48
-27.79
-32.10
-36.88
-42.53
-49.18
-56.59
-64.09
-70.65
-75.03
-76.08
-73.03
-65.73
-54.76
-41.30
-26.83
-12.76
-0.19
10.23
18.22
23.80
27.16
28.62
28.67
27.86
26.82
26.04
25.88
26.39
27.44
28.68
29.70
30.13
29.72
28.45
26.44
23.95
21.24
18.51
15.76
12.88
9.64
5.88
1.52
-3.29
-8.31
-13.25
-17.93
-22.37
-26.79
-31.53
-36.90
-43.09
-50.10
-57.65
-65.12
-71.58
-75.84
-76.71
-73.32
-65.49
-53.89
-39.85
-24.99
-10.84
1.53
11.58
19.17
24.34
27.21
28.01
27.16
25.32
23.31
21.81
21.19
21.39
22.03
22.63
22.84
22.50
21.67
20.50
19.04
17.22
14.85
11.71
7.58
2.40
-3.69
-10.41
-17.29
-23.92
-30.04
-35.67
-41.11
-46.88
-53.57
-61.57
-70.94
-81.11
-90.88
-98.51
-102.12
-100.30
-92.58
-79.65
-63.15
-45.11
-27.32
-10.89
3.71
16.42
27.15
35.75
41.92
45.56
46.96
46.77
45.85
44.92
44.38
44.26
44.36
44.39
44.20
43.71
42.91
41.78
40.30
38.42
36.07
33.24
29.86
25.84
21.06
15.47
9.12
2.17
-5.13
-12.55
-19.87
-26.96
-33.82
-40.62
-47.73
-55.64
-64.85
-75.50
-87.08
-98.25
-107.05
-111.39
-109.73
-101.61
-87.82
-70.10
-50.51
-30.94
-12.64
3.77
18.08
30.26
40.28
48.10
53.77
57.54
59.84
61.22
62.23
63.25
64.41
65.59
66.61
67.27
67.57
67.55
67.30
66.82
65.90
64.23
61.47
57.52
52.49
46.79
40.90
35.25
30.02
25.08
20.08
14.58
8.25
1.09
-6.59
-14.33
-21.64
-28.24
-34.24
-40.01
-46.17
-53.36
-62.07
-72.39
-83.83
-95.19
-104.65
-110.19
-110.07
-103.58
-91.17
-74.40
-55.38
-36.02
-17.62
-0.76
14.43
27.91
39.41
48.58
55.16
59.29
61.50
62.62
63.44
64.55
66.11
67.99
69.85
71.38
72.38
72.81
72.74
72.26
71.39
70.04
68.00
65.13
61.42
56.99
52.13
47.13
42.21
37.39
32.62
27.75
22.70
17.44
11.98
6.34
0.52
-5.50
-11.72
-18.03
-24.35
-30.52
-36.47
-42.29
-48.24
-54.78
-62.43
-71.50
-81.79
-92.34
-101.45
-107.05
-107.32
-101.36
-89.54
-73.38
-55.02
-36.47
-19.16
-3.69
9.89
21.67
31.66
39.71
45.67
49.64
52.04
53.50
54.67
56.03
57.66
59.42
61.02
62.21
62.91
63.15
63.00
62.50
61.62
60.28
58.43
56.03
53.05
49.52
45.43
40.85
35.86
30.64
25.35
20.22
15.38
10.94
6.86
3.00
-0.91
-5.12
-9.81
-14.99
-20.49
-25.97
-31.17
-35.93
-40.32
-44.63
-49.31
-54.78
-61.37
-69.05
-77.36
-85.23
-91.23
-93.79
-91.80
-84.85
-73.51
-59.02
-42.92
-26.65
-11.21
2.77
14.94
25.02
32.80
38.17
41.33
42.80
43.31
43.58
44.12
45.06
46.20
47.22
47.84
47.99
47.79
47.46
47.13
46.74
46.08
44.91
43.09
40.66
37.82
34.83
31.82
28.83
25.78
22.52
18.99
15.21
11.31
7.44
3.70
0.07
-3.56
-7.33
-11.40
-15.81
-20.47
-25.20
-29.79
-34.12
-38.27
-42.55
-47.38
-53.18
-60.17
-68.18
-76.47
-83.81
-88.65
-89.52
-85.48
-76.48
-63.41
-47.86
-31.64
-16.28
-2.73
8.59
17.67
24.54
29.24
31.88
32.78
32.51
31.86
31.54
31.94
33.09
34.62
36.06
37.00
37.27
36.87
35.98
34.78
33.45
32.03
30.52
28.76
26.62
24.03
21.01
17.70
14.32
11.06
8.05
5.30
2.74
0.27
-2.26
-5.02
-8.22
-12.02
-16.45
-21.36
-26.49
-31.52
-36.31
-40.96
-45.80
-51.23
-57.59
-65.00
-73.28
-81.90
-89.96
-96.23
-99.42
-98.47
-92.94
-83.23
-70.54
-56.45
-42.52
-29.83
-18.93
-9.96
-2.90
2.23
5.37
6.65
6.48
5.54
4.67
4.53
5.38
7.01
8.88
10.38
11.22
11.65
12.37
14.34
18.31
24.42
32.18
40.71
49.11
56.84
63.81
70.11
75.94
81.47
87.05
93.31
100.86
109.72
118.69
125.20
125.86
117.79
99.90
73.61
42.62
11.61
-15.31
-35.48
-47.68
-51.32
-45.49
-28.90
-0.51
39.57
89.46
146.05
206.01
266.75
326.48
383.39
434.41
474.90
499.63
504.73
489.65
457.82
415.52
369.66
325.57
285.74
250.05
216.84
184.42
152.02
120.07
89.76
62.35
38.56
18.28
0.66
-15.54
-31.48
-48.11
-66.21
-86.41
-108.68
-131.58
-151.87
-164.96
-166.60
-155.09
-132.72
-105.58
-81.41
-66.62
-64.04
-72.57
-88.59
-108.22
-128.99
-150.09
-171.51
-193.00
-213.72
-232.72
-249.86
-266.37
-284.69
-307.67
-337.33
-373.86
-415.18
-457.23
-494.85
-523.06
-538.36
-539.52
-527.74
-506.01
-478.04
-447.15
-415.54
-384.19
-353.43
-323.49
-295.11
-269.49
-247.81
-230.63
-217.53
-207.10
-197.52
-187.28
-175.79
-163.52
-151.78
-142.06
-135.50
-132.52
-132.96
-136.45
-142.76
-151.79
-163.21
-175.82
-187.23
-194.30
-193.97
-184.49
-166.07
-140.79
-111.66
-81.42
-51.76
-23.20
4.29
30.54
54.76
75.67
92.15
103.79
111.18
115.67
118.78
121.62
124.53
127.16
128.91
129.39
128.66
127.16
125.31
123.16
120.26
115.76
108.88
99.36
87.66
74.82
62.10
50.39
39.93
30.29
20.59
9.94
-2.35
-16.50
-32.27
-48.82
-64.80
-78.28
-87.12
-89.40
-84.02
-71.07
-51.86
-28.53
-3.39
21.62
45.28
67.01
86.56
103.69
118.01
129.15
136.92
141.64
144.08
145.28
146.21
147.47
149.09
150.73
151.89
152.30
152.00
151.31
150.49
149.41
147.46
143.67
137.05
126.95
113.44
97.29
79.77
62.23
45.75
30.93
17.90
6.47
-3.73
-13.20
-22.56
-32.51
-43.69
-56.28
-69.67
-82.28
-91.82
-95.95
-93.11
-83.03
-66.88
-46.69
-24.67
-2.54
18.76
38.85
57.54
74.51
89.20
101.05
109.83
115.76
119.54
122.01
123.96
125.82
127.66
129.27
130.34
130.65
130.15
128.95
127.23
125.13
122.61
119.49
115.50
110.45
104.38
97.64
90.79
84.40
78.82
73.98
69.52
64.91
59.72
53.78
47.07
39.68
31.68
23.08
13.86
4.04
-6.42
-17.63
-29.93
-43.59
-58.55
-73.96
-88.11
-98.75
-103.69
-101.67
-92.74
-78.21
-60.23
-41.00
-22.22
-4.89
10.62
24.23
35.91
45.58
53.19
58.81
62.70
65.35
67.28
68.96
70.67
72.41
73.99
75.13
75.59
75.31
74.41
73.15
71.70
70.12
68.22
65.69
62.28
57.91
52.79
47.29
41.88
36.92
32.52
28.57
24.72
20.55
15.73
10.10
3.82
-2.74
-9.18
-15.17
-20.68
-25.88
-31.15
-36.91
-43.56
-51.41
-60.54
-70.69
-81.00
-90.08
-96.14
-97.58
-93.43
-83.79
-69.73
-52.94
-35.18
-17.80
-1.59
13.04
25.90
36.78
45.44
51.76
55.84
58.10
59.16
59.72
60.26
60.99
61.82
62.43
62.55
62.00
60.84
59.31
57.69
56.09
54.51
52.73
50.47
47.52
43.83
39.53
34.89
30.20
25.69
21.49
17.60
13.87
10.12
6.09
1.62
-3.36
-8.75
-14.32
-19.77
-24.87
-29.60
-34.12
-38.81
-44.14
-50.52
-58.14
-66.82
-75.98
-84.54
-91.10
-94.19
-92.73
-86.31
-75.42
-61.32
-45.66
-29.99
-15.33
-2.21
9.26
19.09
27.18
33.37
37.57
39.94
40.91
41.15
41.28
41.76
42.72
44.06
45.45
46.57
47.15
47.07
46.37
45.18
43.68
41.97
40.01
37.70
34.94
31.70
28.06
24.21
20.31
16.50
12.75
8.97
5.05
0.87
-3.60
-8.30
-13.15
-18.07
-22.97
-27.78
-32.46
-37.00
-41.51
-46.22
-51.51
-57.79
-65.30
-73.81
-82.49
-89.89
-94.29
-94.26
-89.15
-79.29
-65.94
-50.79
-35.42
-20.95
-7.92
3.54
13.37
21.48
27.72
32.02
34.55
35.73
36.10
36.16
36.23
36.42
36.69
36.94
37.10
37.17
37.16
37.07
36.85
36.44
35.69
34.47
32.65
30.12
26.91
23.18
19.19
15.24
11.57
8.21
5.00
1.69
-2.02
-6.26
-11.03
-16.14
-21.37
-26.50
-31.42
-36.12
-40.75
-45.52
-50.76
-56.82
-63.95
-72.11
-80.82
-89.04
-95.27
-97.93
-95.85
-88.69
-77.13
-62.61
-46.86
-31.37
-17.07
-4.32
6.80
16.22
23.82
29.46
33.18
35.32
36.43
37.13
37.86
38.79
39.89
41.04
42.11
43.00
43.63
43.94
43.83
43.24
42.10
40.38
37.99
34.86
30.98
26.52
21.85
17.43
13.64
10.54
7.87
5.14
1.83
-2.33
-7.32
-12.82
-18.41
-23.72
-28.64
-33.25
-37.87
-42.95
-48.90
-55.98
-64.22
-73.17
-81.95
-89.24
-93.53
-93.51
-88.53
-78.84
-65.56
-50.38
-35.00
-20.64
-7.93
3.05
12.35
19.95
25.73
29.60
31.72
32.59
32.87
33.13
33.67
34.47
35.30
35.95
36.27
36.31
36.16
35.90
35.47
34.77
33.61
31.83
29.36
26.18
22.46
18.42
14.32
10.33
6.52
2.78
-1.11
-5.37
-10.09
-15.19
-20.41
-25.45
-30.07
-34.26
-38.29
-42.60
-47.74
-54.13
-61.85
-70.51
-79.16
-86.42
-90.72
-90.71
-85.70
-75.92
-62.41
-46.76
-30.61
-15.22
-1.39
10.54
20.37
27.99
33.31
36.41
37.67
37.73
37.33
37.08
37.27
37.83
38.44
38.79
38.72
38.35
37.94
37.77
37.87
38.01
37.72
36.56
34.31
31.05
27.15
23.07
19.18
15.54
11.91
7.90
3.13
-2.54
-8.98
-15.75
-22.35
-28.38
-33.69
-38.51
-43.27
-48.47
-54.59
-61.91
-70.39
-79.54
-88.31
-95.10
-98.18
-96.14
-88.48
-75.83
-59.80
-42.45
-25.58
-10.35
2.84
14.02
23.28
30.57
35.73
38.78
40.07
40.28
40.18
40.34
41.01
42.01
42.99
43.66
43.89
43.81
43.67
43.62
43.66
43.53
42.82
41.17
38.41
34.68
30.38
25.98
21.83
18.06
14.54
10.92
6.88
2.17
-3.19
-9.01
-14.95
-20.64
-25.83
-30.43
-34.65
-38.88
-43.72
-49.70
-57.25
-66.45
-76.83
-87.26
-96.05
-101.23
-101.17
-95.11
-83.48
-67.79
-50.18
-32.62
-16.50
-2.39
9.67
19.84
28.14
34.41
38.52
40.64
41.29
41.28
41.40
42.13
43.58
45.50
47.46
49.13
50.33
51.08
51.48
51.60
51.36
50.63
49.17
46.81
43.47
39.27
34.49
29.53
24.77
20.46
16.57
12.86
8.93
4.42
-0.84
-6.75
-12.92
-18.91
-24.40
-29.30
-33.83
-38.37
-43.39
-49.36
-56.57
-65.10
-74.61
-84.25
-92.58
-97.85
-98.40
-93.28
-82.61
-67.67
-50.43
-32.92
-16.68
-2.48
9.50
19.41
27.37
33.41
37.52
39.88
40.96
41.43
41.93
42.89
44.44
46.37
48.35
50.05
51.28
52.00
52.31
52.31
52.02
51.40
50.32
48.59
46.06
42.71
38.56
33.84
28.85
23.93
19.32
15.08
11.03
6.84
2.15
-3.21
-9.14
-15.28
-21.21
-26.64
-31.62
-36.46
-41.67
-47.69
-54.76
-62.93
-71.91
-81.10
-89.45
-95.54
-97.80
-94.99
-86.67
-73.52
-57.15
-39.62
-22.81
-7.86
4.82
15.39
24.09
31.04
36.17
39.48
41.23
41.93
42.26
42.81
43.89
45.44
47.18
48.75
49.87
50.45
50.53
50.25
49.77
49.12
48.21
46.83
44.70
41.62
37.61
32.92
27.99
23.31
19.19
15.67
12.53
9.34
5.67
1.24
-4.02
-9.90
-16.07
-22.20
-28.08
-33.62
-38.99
-44.44
-50.35
-57.11
-65.06
-74.23
-84.10
-93.47
-100.51
-103.31
-100.43
-91.54
-77.53
-60.32
-42.15
-24.87
-9.57
3.43
14.21
22.91
29.61
34.32
37.22
38.75
39.61
40.49
41.90
43.96
46.49
49.11
51.36
52.91
53.60
53.46
52.67
51.48
50.07
48.49
46.66
44.34
41.34
37.59
33.23
28.56
23.98
19.77
15.95
12.29
8.41
3.95
-1.23
-7.03
-13.11
-19.08
-24.61
-29.59
-34.12
-38.47
-43.03
-48.25
-54.58
-62.33
-71.48
-81.42
-90.88
-97.97
-100.81
-97.99
-89.24
-75.49
-58.59
-40.68
-23.53
-8.19
4.97
15.93
24.70
31.21
35.40
37.47
37.94
37.59
37.25
37.49
38.55
40.28
42.34
44.30
45.86
46.82
47.21
47.18
46.85
46.34
45.53
44.23
42.13
39.04
35.03
30.43
25.75
21.42
17.63
14.23
10.78
6.79
1.91
-3.85
-10.15
-16.51
-22.44
-27.66
-32.25
-36.51
-40.97
-46.18
-52.62
-60.55
-69.86
-79.92
-89.48
-96.86
-100.24
-98.25
-90.43
-77.47
-61.02
-43.21
-25.99
-10.64
2.30
12.86
21.22
27.57
31.98
34.65
35.98
36.59
37.21
38.40
40.34
42.82
45.40
47.62
49.20
50.16
50.64
50.83
50.75
50.25
49.02
46.78
43.40
39.03
34.07
29.04
24.37
20.26
16.62
13.06
9.10
4.40
-1.11
-7.17
-13.35
-19.16
-24.35
-28.91
-33.20
-37.73
-43.08
-49.77
-58.04
-67.77
-78.26
-88.23
-95.97
-99.76
-98.29
-91.16
-79.01
-63.34
-46.02
-28.73
-12.69
1.46
13.50
23.31
30.77
35.82
38.61
39.59
39.56
39.35
39.65
40.71
42.34
44.07
45.40
46.08
46.18
46.00
45.90
45.99
46.09
45.76
44.55
42.18
38.71
34.44
29.85
25.33
21.10
17.11
13.10
8.71
3.66
-2.18
-8.67
-15.44
-22.08
-28.21
-33.79
-39.07
-44.51
-50.70
-58.07
-66.81
-76.70
-87.06
-96.66
-103.86
-106.99
-104.71
-96.60
-83.30
-66.42
-47.98
-29.88
-13.39
0.90
12.87
22.59
30.07
35.28
38.37
39.80
40.33
40.85
42.01
43.94
46.31
48.45
49.83
50.27
50.05
49.69
49.58
49.79
49.96
49.54
48.03
45.24
41.31
36.67
31.81
27.15
22.91
19.05
15.30
11.24
6.50
0.98
-5.14
-11.43
-17.42
-22.90
-27.99
-33.11
-38.88
-45.80
-54.17
-63.99
-74.81
-85.65
-95.01
-101.07
-102.16
-97.28
-86.55
-71.18
-53.15
-34.56
-17.04
-1.46
11.96
23.35
32.82
40.33
45.77
49.24
51.14
52.17
53.09
54.48
56.47
58.75
60.78
62.08
62.44
62.08
61.37
60.66
60.02
59.19
57.70
55.14
51.31
46.42
40.99
35.60
30.68
26.35
22.40
18.39
13.88
8.59
2.49
-4.13
-10.79
-17.00
-22.52
-27.36
-31.96
-37.01
-43.21
-51.06
-60.62
-71.32
-81.97
-90.94
-96.47
-97.12
-92.17
-81.85
-67.31
-50.32
-32.73
-16.06
-1.27
11.37
21.96
30.73
37.85
43.35
47.25
49.74
51.19
52.13
53.08
54.34
55.91
57.57
59.00
59.95
60.40
60.44
60.23
59.85
59.17
57.91
55.75
52.48
48.16
43.09
37.78
32.69
28.14
24.15
20.48
16.71
12.42
7.34
1.44
-5.03
-11.69
-18.09
-23.98
-29.38
-34.64
-40.30
-46.97
-54.97
-64.22
-74.12
-83.51
-90.84
-94.55
-93.44
-87.12
-76.14
-61.83
-45.94
-30.07
-15.37
-2.38
8.78
18.20
25.93
32.02
36.48
39.51
41.45
42.76
43.90
45.20
46.76
48.48
50.11
51.41
52.22
52.59
52.61
52.41
51.93
51.01
49.31
46.63
42.92
38.48
33.82
29.46
25.75
22.69
19.90
16.82
12.91
7.95
2.08
-4.23
-10.38
-15.84
-20.36
-24.02
-27.18
-30.35
-34.10
-38.85
-44.72
-51.35
-57.75
-62.42
-63.70
-60.25
-51.61
-38.45
-22.33
-5.13
11.67
27.45
42.45
57.26
72.25
87.07
100.55
111.17
117.62
119.35
116.95
111.94
106.30
101.81
99.51
99.65
101.80
105.37
109.98
115.58
122.34
130.37
139.42
148.71
156.86
162.12
162.81
157.96
148.21
136.14
126.17
123.49
132.63
155.85
192.15
237.16
284.06
325.20
354.05
366.67
362.54
344.23
316.37
284.10
251.74
221.99
195.83
173.06
152.84
134.23
116.43
98.86
81.22
63.54
46.16
29.63
14.47
0.94
-11.14
-22.54
-34.39
-47.60
-62.00
-75.76
-85.48
-87.41
-79.26
-61.67
-38.49
-15.46
2.10
11.34
12.67
8.90
3.50
-1.09
-4.03
-5.69
-6.60
-6.80
-5.92
-3.65
-0.37
2.77
4.37
3.32
-0.59
-6.61
-13.44
-19.85
-25.31
-30.15
-35.47
-42.47
-51.90
-63.66
-76.84
-90.13
-102.45
-113.35
-123.21
-132.99
-143.92
-157.05
-172.89
-191.14
-210.58
-229.11
-244.19
-253.50
-255.77
-251.22
-241.44
-228.68
-214.89
-201.12
-187.42
-173.41
-158.96
-144.63
-131.56
-121.02
-113.75
-109.63
-107.71
-106.48
-104.34
-100.05
-93.15
-84.12
-74.22
-65.09
-58.03
-53.56
-51.25
-50.02
-48.75
-46.74
-43.91
-40.77
-38.00
-36.29
-36.07
-37.52
-40.50
-44.55
-48.97
-53.04
-56.28
-58.62
-60.34
-61.85
-63.38
-64.87
-66.08
-66.80
-67.05
-67.12
-67.33
-67.81
-68.36
-68.52
-67.80
-65.94
-63.01
-59.39
-55.63
-52.22
-49.46
-47.38
-45.75
-44.25
-42.58
-40.64
-38.63
-37.04
-36.46
-37.41
-40.14
-44.43
-49.72
-55.10
-59.70
-62.83
-64.19
-63.95
-62.62
-60.74
-58.54
-55.83
-52.09
-46.76
-39.71
-31.50
-23.27
-16.48
-12.38
-11.73
-14.73
-21.08
-30.23
-41.37
-53.46
-65.32
-75.80
-84.10
-89.99
-93.83
-96.31
-98.01
-99.18
-99.71
-99.32
-97.96
-96.02
-94.24
-93.46
-94.18
-96.44
-99.76
-103.56
-107.43
-111.36
-115.71
-120.82
-126.67
-132.50
-136.93
-138.26
-135.07
-126.68
-113.38
-96.27
-76.91
-56.82
-37.25
-18.96
-2.24
12.86
26.36
38.20
48.27
56.46
62.84
67.68
71.41
74.47
77.01
78.86
79.55
78.61
75.87
71.67
66.85
62.39
59.05
57.04
55.93
54.75
52.34
47.55
39.63
28.38
14.20
-1.93
-18.68
-34.69
-48.83
-60.49
-69.66
-76.76
-82.52
-87.65
-92.71
-97.89
-102.93
-107.13
-109.46
-108.93
-104.81
-96.90
-85.68
-72.04
-56.98
-41.35
-25.67
-10.23
4.74
18.88
31.63
42.41
50.77
56.56
60.05
61.80
62.54
62.94
63.48
64.41
65.70
67.19
68.61
69.63
69.96
69.29
67.42
64.20
59.65
53.92
47.32
40.30
33.31
26.78
21.01
16.08
11.88
8.11
4.44
0.57
-3.67
-8.39
-13.61
-19.30
-25.30
-31.18
-36.28
-39.93
-41.82
-42.28
-42.32
-43.15
-45.61
-49.62
-54.13
-57.50
-58.26
-55.63
-49.77
-41.43
-31.53
-20.79
-9.61
1.81
13.26
24.31
34.45
43.15
50.09
55.14
58.44
60.21
60.79
60.42
59.34
57.72
55.66
53.28
50.68
48.06
45.72
44.06
43.47
44.10
45.74
47.74
49.22
49.41
47.99
45.27
41.99
38.92
36.49
34.58
32.72
30.33
27.14
23.19
18.81
14.32
9.96
5.78
1.81
-1.95
-5.49
-8.89
-12.33
-16.09
-20.38
-25.13
-29.86
-33.76
-35.91
-35.65
-32.73
-27.42
-20.35
-12.35
-4.13
3.84
11.29
18.06
23.96
28.79
32.39
34.72
35.96
36.46
36.62
36.72
36.91
37.17
37.44
37.63
37.71
37.64
37.36
36.81
35.91
34.71
33.28
31.71
30.14
28.60
27.14
25.75
24.37
22.95
21.40
19.63
17.65
15.54
13.43
11.44
9.64
8.01
6.43
4.71
2.63
-0.07
-3.60
-7.97
-12.95
-17.94
-22.06
-24.42
-24.30
-21.47
-16.15
-8.97
-0.69
8.01
16.65
24.95
32.74
39.92
46.42
52.27
57.54
62.35
66.73
70.57
73.72
76.08
77.78
79.12
80.36
81.54
82.23
81.75
79.42
74.98
68.80
61.77
54.94
49.07
44.42
40.69
37.42
34.17
30.80
27.47
24.47
22.02
20.08
18.41
16.64
14.46
11.68
8.24
4.14
-0.55
-5.71
-11.03
-15.95
-19.63
-21.17
-19.83
-15.45
-8.49
0.02
8.80
16.74
23.18
27.96
31.32
33.62
35.20
36.39
37.46
38.68
40.31
42.44
44.91
47.30
49.05
49.66
48.90
46.82
43.72
39.87
35.36
30.05
23.72
16.36
8.35
0.39
-6.80
-12.92
-18.21
-23.41
-29.19
-35.69
-42.36
-48.11
-51.95
-53.35
-52.43
-49.76
-46.02
-41.80
-37.59
-33.97
-31.77
-31.79
-34.45
-39.33
-45.18
-50.19
-52.72
-51.88
-47.79
-41.32
-33.63
-25.69
-18.08
-11.17
-5.36
-1.18
0.89
0.73
-1.24
-4.09
-6.81
-8.67
-9.53
-9.77
-10.01
-10.82
-12.43
-14.73
-17.33
-19.71
-21.48
-22.51
-22.95
-23.21
-23.74
-24.70
-25.90
-26.74
-26.54
-24.98
-22.35
-19.58
-17.96
-18.66
-22.35
-28.93
-37.69
-47.58
-57.59
-66.96
-75.29
-82.53
-88.98
-95.11
-101.39
-108.03
-114.73
-120.55
-124.12
-123.98
-119.10
-109.22
-95.00
-77.87
-59.62
-42.00
-26.50
-14.06
-4.92
1.31
5.59
9.04
12.65
16.91
21.79
26.89
31.81
36.33
40.44
44.13
47.13
49.01
49.31
47.86
44.99
41.46
38.10
35.46
33.53
31.96
30.28
28.24
25.97
23.81
22.10
20.92
20.07
19.24
18.11
16.55
14.64
12.55
10.44
8.42
6.45
4.34
1.81
-1.39
-5.31
-9.65
-13.74
-16.66
-17.60
-16.13
-12.41
-7.12
-1.24
4.33
9.02
12.68
15.51
17.82
19.89
21.75
23.25
24.09
24.00
22.87
20.83
18.22
15.42
12.76
10.39
8.30
6.42
4.67
3.10
1.85
1.00
0.50
0.15
-0.45
-1.56
-3.24
-5.18
-6.88
-7.86
-7.89
-7.11
-5.97
-4.99
-4.55
-4.85
-5.85
-7.44
-9.54
-12.17
-15.42
-19.42
-24.25
-29.80
-35.65
-40.99
-44.63
-45.30
-42.05
-34.61
-23.59
-10.46
2.91
14.71
23.76
29.74
33.14
34.90
35.93
36.77
37.45
37.67
37.10
35.68
33.61
31.27
29.01
26.90
24.80
22.48
19.84
17.00
14.24
11.83
9.79
7.84
5.49
2.28
-1.93
-6.85
-11.81
-16.11
-19.29
-21.31
-22.51
-23.31
-24.00
-24.58
-24.97
-25.15
-25.40
-26.24
-28.13
-31.12
-34.66
-37.55
-38.37
-35.99
-30.02
-20.94
-9.93
1.58
12.40
21.87
29.91
36.75
42.54
47.15
50.28
51.57
51.04
49.09
46.48
43.96
42.05
40.87
40.24
39.75
38.85
36.91
33.29
27.49
19.43
9.63
-0.81
-10.52
-18.34
-23.78
-27.06
-29.04
-30.74
-32.89
-35.71
-38.88
-41.87
-44.20
-45.68
-46.47
-46.97
-47.59
-48.59
-50.03
-51.68
-53.11
-53.63
-52.37
-48.34
-40.69
-28.99
-13.47
4.84
24.34
43.19
59.81
73.19
82.94
89.14
91.92
91.38
87.54
80.64
71.36
60.89
50.61
41.81
35.20
30.69
27.69
25.37
23.09
20.58
17.96
15.51
13.49
12.04
11.13
10.72
10.69
10.98
11.47
11.98
12.26
12.01
11.00
9.10
6.42
3.25
-0.04
-3.16
-6.10
-9.21
-13.11
-18.36
-25.19
-33.10
-40.95
-47.12
-50.10
-48.90
-43.52
-34.83
-24.38
-13.84
-4.45
3.23
9.28
14.11
18.06
21.17
23.26
24.09
23.67
22.37
20.79
19.54
18.91
18.89
19.18
19.42
19.43
19.25
19.09
19.24
19.81
20.68
21.50
21.75
20.97
18.91
15.65
11.60
7.33
3.34
-0.09
-3.02
-5.79
-8.76
-12.17
-16.06
-20.37
-24.97
-29.75
-34.47
-38.57
-41.09
-40.95
-37.28
-29.94
-19.71
-8.04
3.45
13.49
21.50
27.46
31.63
34.27
35.57
35.65
34.79
33.41
31.91
30.62
29.63
28.82
27.89
26.62
24.83
22.50
19.78
16.87
14.02
11.36
8.87
6.40
3.73
0.78
-2.39
-5.62
-8.74
-11.68
-14.52
-17.35
-20.27
-23.36
-26.78
-30.75
-35.55
-41.18
-47.18
-52.56
-56.01
-56.33
-52.95
-46.02
-36.44
-25.41
-14.10
-3.46
5.87
13.42
18.92
22.24
23.49
23.05
21.50
19.49
17.55
15.98
14.83
13.96
13.19
12.33
11.31
10.09
8.62
6.91
4.89
2.52
-0.26
-3.49
-7.13
-11.07
-15.04
-18.71
-21.73
-23.90
-25.31
-26.35
-27.61
-29.73
-33.11
-37.84
-43.52
-49.37
-54.28
-57.11
-56.93
-53.30
-46.44
-37.11
-26.44
-15.53
-5.22
3.95
11.71
17.91
22.48
25.43
26.94
27.39
27.29
27.19
27.44
28.14
29.11
29.96
30.24
29.66
28.21
26.17
23.98
22.07
20.55
19.23
17.58
15.09
11.48
6.88
1.81
-3.16
-7.56
-11.22
-14.36
-17.33
-20.55
-24.35
-28.90
-34.12
-39.68
-44.87
-48.71
-50.11
-48.20
-42.62
-33.79
-22.80
-11.08
-0.00
9.52
17.15
22.98
27.27
30.26
32.11
32.91
32.95
32.65
32.49
32.79
33.48
34.22
34.48
33.88
32.38
30.31
28.14
26.25
24.67
23.11
21.03
17.99
13.85
8.83
3.50
-1.53
-5.79
-9.14
-11.81
-14.24
-16.97
-20.43
-24.93
-30.47
-36.75
-43.10
-48.50
-51.82
-52.09
-48.78
-41.97
-32.37
-21.04
-9.20
2.13
12.26
20.83
27.77
33.18
37.22
40.06
41.84
42.67
42.64
41.89
40.60
39.07
37.52
36.08
34.73
33.32
31.71
29.90
28.01
26.28
24.88
23.76
22.63
21.11
18.90
15.96
12.50
8.88
5.34
1.95
-1.43
-5.07
-9.21
-14.08
-19.80
-26.40
-33.60
-40.70
-46.60
-50.02
-49.90
-45.83
-38.23
-28.16
-17.03
-6.04
4.01
12.72
19.96
25.69
29.87
32.58
34.11
34.90
35.46
36.18
37.18
38.28
39.20
39.57
39.17
37.91
35.90
33.36
30.59
27.86
25.25
22.67
19.87
16.64
12.88
8.80
4.73
1.05
-2.03
-4.60
-6.97
-9.60
-12.89
-17.15
-22.49
-28.88
-36.02
-43.29
-49.74
-54.22
-55.68
-53.55
-47.93
-39.64
-29.88
-19.94
-10.75
-2.79
3.81
9.11
13.14
15.89
17.36
17.75
17.48
17.11
17.16
17.80
18.81
19.64
19.72
18.73
16.79
14.48
12.58
11.65
11.83
12.67
13.42
13.25
11.69
8.79
4.97
0.80
-3.28
-7.19
-11.10
-15.23
-19.70
-24.46
-29.44
-34.69
-40.35
-46.43
-52.50
-57.59
-60.37
-59.66
-54.95
-46.74
-36.30
-25.20
-14.67
-5.33
2.88
10.22
16.85
22.64
27.22
30.30
31.86
32.24
31.93
31.44
31.10
31.02
31.12
31.23
31.16
30.76
29.97
28.82
27.42
25.83
23.98
21.69
18.72
14.99
10.63
6.01
1.54
-2.45
-5.92
-9.04
-12.07
-15.29
-18.84
-22.84
-27.40
-32.66
-38.60
-44.89
-50.70
-54.84
-56.04
-53.45
-47.03
-37.55
-26.30
-14.68
-3.75
5.99
14.44
21.65
27.63
32.26
35.39
37.06
37.48
37.04
36.18
35.27
34.44
33.71
32.95
32.04
30.98
29.84
28.75
27.81
26.94
25.99
24.80
23.25
21.33
19.13
16.70
14.07
11.23
8.21
5.13
2.16
-0.52
-2.89
-5.04
-7.19
-9.56
-12.24
-15.30
-18.85
-23.10
-28.20
-34.07
-40.13
-45.30
-48.26
-47.91
-43.81
-36.38
-26.69
-16.06
-5.53
4.33
13.43
21.86
29.60
36.35
41.68
45.20
46.81
46.74
45.42
43.37
40.92
38.25
35.42
32.56
29.91
27.72
26.18
25.23
24.59
23.77
22.33
19.98
16.68
12.64
8.27
4.03
0.32
-2.67
-5.02
-7.00
-8.97
-11.18
-13.67
-16.30
-18.85
-21.15
-23.21
-25.15
-27.22
-29.72
-32.98
-37.25
-42.63
-48.83
-55.03
-59.99
-62.28
-60.85
-55.40
-46.59
-35.77
-24.48
-13.87
-4.48
3.74
11.08
17.76
23.78
28.99
33.26
36.59
39.07
40.78
41.73
41.85
41.15
39.86
38.35
37.06
36.30
36.07
36.15
36.09
35.47
34.03
31.67
28.50
24.66
20.37
15.80
11.13
6.45
1.85
-2.70
-7.25
-11.83
-16.40
-20.84
-24.95
-28.57
-31.74
-34.69
-37.79
-41.34
-45.32
-49.26
-52.26
-53.29
-51.55
-46.78
-39.40
-30.33
-20.79
-11.82
-4.06
2.25
7.21
11.04
13.89
15.82
16.84
17.04
16.65
16.03
15.63
15.80
16.71
18.23
20.04
21.62
22.49
22.33
21.10
19.04
16.60
14.22
12.18
10.44
8.77
6.79
4.25
1.12
-2.37
-5.78
-8.75
-11.08
-12.81
-14.17
-15.48
-17.06
-19.15
-21.95
-25.61
-30.10
-35.23
-40.38
-44.64
-46.91
-46.33
-42.52
-35.78
-26.97
-17.17
-7.47
1.37
8.91
15.04
19.79
23.35
25.91
27.73
29.08
30.13
30.96
31.52
31.74
31.53
30.95
30.20
29.46
28.88
28.51
28.24
27.86
27.22
26.24
24.91
23.28
21.42
19.36
17.10
14.64
12.00
9.22
6.35
3.46
0.57
-2.32
-5.28
-8.41
-11.82
-15.71
-20.27
-25.68
-31.86
-38.38
-44.33
-48.45
-49.56
-46.94
-40.73
-31.90
-21.89
-12.05
-3.27
4.21
10.52
15.95
20.62
24.44
27.16
28.57
28.71
27.83
26.39
24.92
23.77
23.07
22.70
22.37
21.81
20.85
19.43
17.57
15.26
12.48
9.23
5.64
1.92
-1.63
-4.84
-7.72
-10.35
-12.87
-15.30
-17.63
-19.76
-21.69
-23.52
-25.44
-27.71
-30.56
-34.13
-38.39
-43.07
-47.56
-51.03
-52.60
-51.54
-47.58
-40.96
-32.40
-22.76
-12.90
-3.46
5.12
12.50
18.43
22.72
25.29
26.27
25.97
24.80
23.27
21.75
20.48
19.55
18.83
18.13
17.20
15.87
14.13
12.12
10.10
8.27
6.70
5.22
3.56
1.46
-1.17
-4.18
-7.25
-10.06
-12.44
-14.37
-15.99
-17.47
-18.98
-20.70
-22.83
-25.65
-29.30
-33.66
-38.21
-41.99
-43.88
-42.90
-38.62
-31.24
-21.62
-10.96
-0.46
8.91
16.56
22.29
26.09
28.13
28.59
27.81
26.16
24.09
22.04
20.32
19.09
18.31
17.82
17.46
17.13
16.85
16.73
16.80
16.95
16.92
16.32
14.84
12.35
8.93
4.87
0.43
-4.08
-8.40
-12.27
-15.42
-17.71
-19.23
-20.44
-22.03
-24.69
-28.82
-34.34
-40.57
-46.45
-50.66
-52.06
-49.96
-44.21
-35.38
-24.52
-13.01
-2.09
7.36
15.00
20.87
25.24
28.30
30.12
30.75
30.33
29.17
27.69
26.25
25.06
24.09
23.22
22.34
21.41
20.44
19.44
18.29
16.86
15.05
12.87
10.48
8.10
5.85
3.71
1.52
-0.91
-3.68
-6.71
-9.84
-12.88
-15.71
-18.38
-21.02
-23.85
-27.19
-31.37
-36.58
-42.64
-48.74
-53.60
-55.69
-53.82
-47.69
-38.05
-26.48
-14.66
-3.89
5.36
13.22
20.01
25.85
30.52
33.64
34.97
34.71
33.40
31.77
30.39
29.42
28.72
27.98
26.95
25.58
24.01
22.45
21.10
20.00
19.01
17.84
16.13
13.59
10.12
5.84
1.09
-3.67
-7.98
-11.61
-14.41
-16.55
-18.37
-20.36
-23.10
-27.01
-32.12
-37.86
-43.14
-46.57
-46.92
-43.62
-36.91
-27.70
-17.28
-6.81
2.84
11.15
17.90
22.96
26.25
27.80
27.81
26.71
25.08
23.46
22.23
21.48
21.06
20.65
19.98
18.92
17.61
16.24
15.05
14.10
13.27
12.19
10.47
7.82
4.18
-0.13
-4.52
-8.30
-11.02
-12.64
-13.67
-14.98
-17.44
-21.63
-27.55
-34.51
-41.35
-46.69
-49.20
-48.04
-42.98
-34.55
-23.92
-12.48
-1.52
8.13
16.19
22.77
28.00
31.84
34.11
34.66
33.64
31.54
29.06
26.84
25.20
24.09
23.20
22.17
20.74
18.88
16.72
14.50
12.44
10.63
8.96
7.17
4.94
1.99
-1.67
-5.78
-9.89
-13.63
-16.85
-19.73
-22.67
-26.14
-30.56
-36.10
-42.61
-49.51
-55.81
-60.16
-61.25
-58.19
-50.90
-40.25
-27.72
-14.96
-3.19
6.97
15.41
22.22
27.42
30.90
32.61
32.74
31.84
30.62
29.69
29.37
29.50
29.63
29.31
28.33
26.77
24.94
23.21
21.71
20.39
18.89
16.79
13.84
10.03
5.58
0.90
-3.65
-7.81
-11.48
-14.71
-17.65
-20.56
-23.76
-27.70
-32.70
-38.76
-45.39
-51.51
-55.69
-56.61
-53.54
-46.60
-36.70
-25.23
-13.52
-2.60
7.03
15.17
21.75
26.67
29.85
31.38
31.56
30.91
29.91
28.89
27.95
26.97
25.82
24.43
22.90
21.41
20.11
19.06
18.18
17.29
16.13
14.41
11.90
8.56
4.52
0.18
-4.05
-7.84
-11.15
-14.22
-17.47
-21.31
-25.98
-31.46
-37.37
-43.06
-47.63
-50.04
-49.42
-45.24
-37.60
-27.23
-15.32
-3.22
7.87
17.17
24.31
29.27
32.19
33.37
33.16
32.03
30.52
29.12
28.16
27.76
27.78
27.98
28.15
28.19
28.10
27.96
27.78
27.42
26.67
25.25
22.92
19.65
15.65
11.38
7.33
3.94
1.26
-1.01
-3.50
-6.88
-11.52
-17.33
-23.71
-29.63
-33.88
-35.38
-33.41
-27.82
-19.00
-7.71
5.15
18.81
32.70
46.44
59.51
71.16
80.30
85.71
86.48
82.39
74.28
63.94
53.68
45.58
40.64
38.51
37.51
35.49
30.66
22.38
11.26
-1.23
-13.49
-24.44
-33.66
-41.35
-47.91
-53.71
-58.89
-63.39
-67.16
-70.17
-72.49
-74.29
-75.87
-77.51
-79.47
-81.89
-84.75
-87.82
-90.72
-92.82
-93.34
-91.42
-86.28
-77.54
-65.31
-50.39
-33.99
-17.50
-2.14
11.28
22.39
31.20
37.89
42.77
46.10
48.16
49.29
49.78
49.92
49.85
49.54
48.84
47.54
45.54
42.86
39.73
36.37
33.00
29.72
26.51
23.31
20.00
16.53
12.89
9.05
5.04
0.90
-3.21
-7.13
-10.75
-14.09
-17.43
-21.30
-26.30
-32.77
-40.50
-48.55
-55.39
-59.36
-59.19
-54.47
-45.74
-34.33
-21.88
-9.87
0.62
9.08
15.41
19.88
22.91
25.00
26.56
27.89
29.14
30.30
31.31
32.05
32.42
32.29
31.55
30.12
28.00
25.33
22.39
19.47
16.83
14.52
12.43
10.30
7.86
4.95
1.67
-1.80
-5.23
-8.50
-11.64
-14.79
-18.08
-21.64
-25.64
-30.28
-35.72
-41.85
-48.14
-53.47
-56.49
-56.04
-51.58
-43.43
-32.67
-20.74
-8.93
1.90
11.36
19.39
26.04
31.33
35.21
37.67
38.79
38.82
38.13
37.13
36.21
35.62
35.46
35.64
35.90
35.94
35.46
34.32
32.61
30.55
28.40
26.28
24.13
21.74
18.81
15.18
10.89
6.21
1.46
-3.09
-7.35
-11.43
-15.54
-19.96
-24.96
-30.77
-37.50
-44.97
-52.66
-59.57
-64.36
-65.77
-62.97
-55.90
-45.35
-32.68
-19.46
-6.97
4.04
13.36
21.11
27.48
32.59
36.43
39.02
40.51
41.19
41.43
41.52
41.64
41.77
41.83
41.74
41.55
41.33
41.11
40.82
40.25
39.14
37.29
34.69
31.43
27.78
24.04
20.45
17.17
14.16
11.21
7.98
4.18
-0.26
-5.19
-10.21
-14.85
-18.82
-22.18
-25.44
-29.40
-34.83
-42.13
-50.95
-60.17
-68.09
-72.89
-73.28
-68.80
-59.99
-48.20
-35.02
-21.94
-9.95
0.47
9.27
16.55
22.48
27.24
30.91
33.63
35.53
36.77
37.54
38.03
38.36
38.58
38.68
38.63
38.46
38.28
38.12
37.92
37.42
36.23
34.09
31.01
27.37
23.77
20.73
18.42
16.59
14.69
12.18
8.78
4.55
-0.22
-5.12
-9.85
-14.28
-18.47
-22.62
-27.02
-31.96
-37.71
-44.32
-51.49
-58.46
-64.04
-66.89
-65.85
-60.36
-50.73
-38.08
-24.13
-10.66
0.95
10.03
16.63
21.31
24.70
27.29
29.26
30.53
31.03
30.78
29.98
29.02
28.29
28.07
28.45
29.31
30.33
31.22
31.72
31.64
30.91
29.51
27.44
24.74
21.42
17.59
13.38
8.99
4.60
0.38
-3.56
-7.22
-10.68
-14.12
-17.75
-21.72
-26.14
-30.99
-36.15
-41.52
-46.94
-52.11
-56.45
-59.13
-59.13
-55.62
-48.29
-37.56
-24.58
-10.90
1.93
12.81
21.26
27.32
31.36
33.76
34.82
34.75
33.76
32.22
30.58
29.33
28.80
29.00
29.67
30.36
30.74
30.70
30.33
29.81
29.13
28.14
26.53
24.11
20.93
17.29
13.57
10.05
6.72
3.39
-0.20
-4.21
-8.58
-13.08
-17.45
-21.44
-24.94
-28.13
-31.36
-35.15
-40.03
-46.24
-53.44
-60.64
-66.31
-68.88
-67.20
-60.98
-50.88
-38.26
-24.69
-11.54
0.31
10.47
18.84
25.46
30.28
33.31
34.66
34.64
33.72
32.41
31.05
29.81
28.71
27.77
27.02
26.53
26.32
26.29
26.21
25.83
24.98
23.59
21.72
19.49
16.95
14.14
11.03
7.65
4.10
0.44
-3.22
-6.86
-10.46
-14.01
-17.47
-20.79
-24.01
-27.31
-31.07
-35.67
-41.25
-47.48
-53.39
-57.57
-58.61
-55.53
-48.25
-37.54
-24.91
-12.00
-0.20
9.68
17.44
23.26
27.44
30.18
31.54
31.57
30.39
28.38
26.11
24.16
22.91
22.42
22.34
22.21
21.60
20.33
18.59
16.70
14.93
13.29
11.57
9.36
6.41
2.79
-1.15
-4.89
-8.06
-10.62
-12.83
-15.10
-17.83
-21.24
-25.37
-30.27
-35.82
-41.79
-47.50
-51.81
-53.34
-50.91
-44.11
-33.54
-20.75
-7.57
4.50
14.67
22.93
29.59
34.90
38.79
41.07
41.60
40.62
38.79
36.94
35.79
35.64
36.43
37.76
39.25
40.57
41.62
42.33
42.60
42.28
41.22
39.55
37.64
36.12
35.38
35.34
35.07
33.07
27.87
18.59
5.40
-10.59
-27.74
-44.43
-59.27
-71.10
-78.91
-81.82
-79.43
-72.21
-61.64
-49.90
-39.15
-30.85
-25.35
-22.11
-20.21
-18.87
-17.71
-16.75
-16.13
-15.84
-15.75
-15.62
-15.32
-14.81
-14.21
-13.63
-13.08
-12.42
-11.48
-10.09
-8.27
-6.23
-4.38
-3.23
-3.19
-4.44
-6.88
-10.08
-13.49
-16.53
-18.84
-20.37
-21.47
-22.78
-25.07
-28.88
-34.35
-40.96
-47.62
-52.82
-55.12
-53.49
-47.64
-38.05
-25.86
-12.40
1.04
13.53
24.48
33.58
40.63
45.54
48.38
49.37
49.00
47.74
46.03
44.08
41.97
39.63
37.11
34.57
32.21
30.21
28.54
26.90
24.87
22.09
18.36
13.81
8.77
3.64
-1.22
-5.64
-9.61
-13.19
-16.50
-19.74
-23.18
-27.19
-32.18
-38.21
-44.87
-51.10
-55.40
-56.30
-52.88
-45.19
-34.21
-21.60
-9.03
2.25
11.66
19.19
25.06
29.45
32.40
33.85
33.83
32.64
30.73
28.66
26.86
25.46
24.36
23.32
22.12
20.65
18.95
17.05
14.86
12.22
8.87
4.71
-0.12
-5.17
-9.83
-13.64
-16.51
-18.85
-21.30
-24.62
-29.25
-35.26
-42.21
-49.28
-55.36
-59.27
-59.92
-56.67
-49.45
-38.86
-26.08
-12.60
0.20
11.30
20.17
26.72
31.05
33.44
34.21
33.73
32.40
30.68
28.93
27.35
25.98
24.72
23.43
22.07
20.64
19.20
17.70
16.07
14.08
11.56
8.36
4.50
0.10
-4.65
-9.49
-14.25
-18.86
-23.48
-28.39
-33.95
-40.35
-47.42
-54.41
-60.17
-63.39
-62.96
-58.51
-50.41
-39.74
-27.86
-16.00
-4.98
4.83
13.39
20.69
26.64
31.04
33.75
34.83
34.73
34.05
33.47
33.36
33.74
34.25
34.45
34.00
32.83
31.14
29.26
27.42
25.67
23.83
21.56
18.56
14.64
9.86
4.57
-0.75
-5.56
-9.57
-12.85
-15.95
-19.56
-24.41
-30.82
-38.52
-46.70
-54.06
-59.15
-60.73
-58.15
-51.54
-41.80
-30.32
-18.49
-7.33
2.76
11.86
20.25
28.04
34.98
40.59
44.46
46.48
46.99
46.61
46.03
45.67
45.60
45.57
45.20
44.20
42.55
40.44
38.25
36.26
34.53
32.89
31.05
28.68
25.55
21.62
16.99
11.90
6.61
1.44
-3.41
-7.91
-12.24
-16.82
-22.09
-28.38
-35.64
-43.42
-50.83
-56.77
-60.16
-60.18
-56.49
-49.28
-39.26
-27.45
-14.99
-2.94
7.90
17.02
24.21
29.44
32.84
34.65
35.23
34.97
34.33
33.70
33.30
33.18
33.14
32.90
32.19
30.89
29.07
26.97
24.82
22.74
20.74
18.66
16.28
13.46
10.15
6.47
2.66
-1.03
-4.42
-7.43
-10.16
-12.85
-15.77
-19.19
-23.31
-28.23
-33.86
-39.82
-45.42
-49.69
-51.58
-50.28
-45.51
-37.61
-27.43
-16.18
-5.07
4.97
13.37
19.96
24.87
28.36
30.71
32.18
32.84
32.72
31.87
30.37
28.50
26.60
25.01
23.92
23.41
23.25
23.22
23.05
22.51
21.49
19.95
17.87
15.26
12.16
8.63
4.80
0.80
-3.22
-7.14
-10.89
-14.53
-18.13
-21.82
-25.71
-29.92
-34.61
-39.92
-45.90
-52.28
-58.42
-63.23
-65.52
-64.41
-59.64
-51.70
-41.69
-30.91
-20.42
-10.88
-2.44
4.96
11.48
17.18
22.00
25.84
28.64
30.52
31.65
32.33
32.79
33.11
33.29
33.20
32.81
32.10
31.17
30.05
28.70
26.97
24.71
21.93
18.74
15.36
12.00
8.75
5.53
2.24
-1.26
-4.90
-8.50
-11.84
-14.70
-17.11
-19.22
-21.34
-23.79
-26.87
-30.77
-35.47
-40.81
-46.29
-51.16
-54.42
-55.05
-52.32
-46.10
-36.87
-25.69
-13.86
-2.55
7.42
15.60
21.89
26.38
29.25
30.75
31.19
30.93
30.38
29.89
29.70
29.84
30.19
30.50
30.55
30.19
29.47
28.56
27.53
26.41
25.10
23.49
21.60
19.56
17.62
15.89
14.32
12.64
10.42
7.37
3.40
-1.26
-6.21
-10.95
-15.16
-18.72
-21.81
-24.79
-28.11
-32.19
-37.24
-43.24
-49.69
-55.77
-60.27
-61.91
-59.69
-53.24
-43.02
-30.23
-16.47
-3.29
8.24
17.62
24.91
30.48
34.76
37.96
40.17
41.40
41.73
41.41
40.76
40.15
39.80
39.70
39.65
39.41
38.91
38.30
37.79
37.54
37.53
37.47
37.03
35.97
34.34
32.35
30.32
28.48
26.85
25.34
23.73
21.92
19.96
18.10
16.62
15.65
15.10
14.54
13.39
11.11
7.47
2.57
-3.23
-9.54
-16.14
-22.89
-29.67
-36.13
-41.64
-45.52
-47.22
-46.61
-43.81
-39.09
-32.74
-25.01
-16.44
-7.93
-0.75
3.93
5.42
3.93
0.48
-3.54
-6.88
-8.87
-9.39
-8.80
-7.50
-5.84
-4.03
-2.27
-0.85
-0.06
-0.13
-1.08
-2.76
-4.79
-6.81
-8.59
-10.06
-11.38
-12.81
-14.59
-16.86
-19.60
-22.64
-25.76
-28.75
-31.49
-34.02
-36.55
-39.35
-42.74
-46.94
-51.95
-57.53
-63.11
-67.81
-70.59
-70.40
-66.53
-58.81
-47.76
-34.54
-20.70
-7.63
3.68
12.84
20.01
25.56
29.79
32.84
34.65
35.15
34.55
33.23
31.75
30.65
30.24
30.51
31.19
31.86
32.14
31.82
30.85
29.34
27.44
25.29
22.90
20.30
17.52
14.68
11.90
9.25
6.67
3.93
0.80
-2.82
-6.82
-10.91
-14.76
-18.20
-21.31
-24.33
-27.68
-31.75
-36.85
-42.96
-49.63
-55.94
-60.50
-61.87
-59.00
-51.66
-40.57
-27.24
-13.48
-0.84
9.69
17.89
23.96
28.40
31.64
33.95
35.48
36.34
36.67
36.69
36.59
36.47
36.32
36.03
35.56
35.00
34.42
33.91
33.34
32.48
31.03
28.85
25.99
22.64
19.02
15.19
11.12
6.70
1.93
-3.05
-7.93
-12.35
-16.06
-19.02
-21.44
-23.74
-26.43
-29.95
-34.58
-40.22
-46.41
-52.21
-56.41
-57.76
-55.36
-48.99
-39.25
-27.41
-15.00
-3.39
6.64
14.84
21.37
26.38
29.91
31.86
32.21
31.23
29.44
27.58
26.22
25.61
25.62
25.87
25.96
25.63
24.84
23.69
22.27
20.63
18.73
16.53
13.91
10.87
7.40
3.62
-0.30
-4.11
-7.60
-10.61
-13.15
-15.39
-17.60
-20.05
-22.98
-26.63
-31.18
-36.68
-42.86
-49.06
-54.24
-57.14
-56.75
-52.58
-44.92
-34.66
-23.03
-11.24
-0.25
9.39
17.39
23.58
27.87
30.22
30.76
29.83
28.01
25.96
24.27
23.28
22.97
23.06
23.12
22.84
22.08
20.89
19.41
17.73
15.85
13.64
11.00
7.78
3.96
-0.38
-4.99
-9.52
-13.61
-17.02
-19.78
-22.29
-25.15
-28.97
-34.16
-40.65
-47.93
-55.06
-60.85
-64.13
-64.04
-60.18
-52.79
-42.72
-31.13
-19.24
-8.03
1.95
10.52
17.61
23.22
27.20
29.40
29.86
28.94
27.30
25.72
24.83
24.80
25.40
26.15
26.54
26.34
25.64
24.64
23.53
22.33
20.78
18.61
15.56
11.62
7.02
2.11
-2.66
-6.92
-10.47
-13.34
-15.81
-18.42
-21.85
-26.67
-33.03
-40.47
-47.81
-53.41
-55.61
-53.30
-46.32
-35.59
-22.80
-9.80
1.95
11.72
19.39
25.30
29.77
32.93
34.78
35.27
34.66
33.45
32.25
31.51
31.28
31.20
30.74
29.54
27.61
25.32
23.22
21.67
20.63
19.69
18.27
15.89
12.40
8.01
3.21
-1.43
-5.51
-8.99
-12.14
-15.50
-19.60
-24.78
-31.12
-38.23
-45.33
-51.33
-55.04
-55.42
-51.93
-44.66
-34.39
-22.45
-10.29
0.79
9.96
16.92
21.75
24.74
26.22
26.50
25.94
24.92
23.92
23.36
23.50
24.26
25.31
26.14
26.32
25.70
24.37
22.64
20.79
18.92
16.94
14.54
11.44
7.50
2.87
-2.09
-6.92
-11.25
-15.04
-18.54
-22.33
-26.98
-32.93
-40.20
-48.39
-56.62
-63.59
-67.87
-68.14
-63.65
-54.55
-41.94
-27.52
-13.10
-0.04
11.06
20.11
27.27
32.51
35.67
36.64
35.68
33.46
31.00
29.23
28.69
29.40
30.95
32.77
34.27
35.00
34.74
33.50
31.45
28.84
25.92
22.76
19.27
15.25
10.60
5.44
0.10
-5.05
-9.80
-14.17
-18.46
-23.08
-28.32
-34.27
-40.74
-47.21
-52.87
-56.75
-57.80
-55.28
-49.05
-39.61
-28.04
-15.62
-3.46
7.76
17.80
26.64
34.23
40.36
44.77
47.33
48.24
48.03
47.38
46.86
46.66
46.67
46.50
45.76
44.22
41.91
39.06
35.96
32.84
29.85
27.05
24.39
21.74
18.94
15.80
12.21
8.18
3.80
-0.81
-5.55
-10.44
-15.61
-21.25
-27.54
-34.47
-41.73
-48.56
-53.86
-56.36
-55.03
-49.46
-40.03
-27.90
-14.61
-1.64
9.96
19.67
27.42
33.36
37.66
40.45
41.80
41.92
41.22
40.23
39.56
39.60
40.37
41.49
42.39
42.62
42.05
40.93
39.72
38.72
37.94
36.99
35.43
33.00
29.75
26.06
22.42
19.21
16.70
15.02
14.13
13.73
13.12
11.27
7.09
-0.15
-10.27
-22.13
-33.75
-43.00
-48.13
-48.32
-43.74
-35.40
-24.84
-13.73
-3.72
3.77
7.75
7.73
3.94
-2.68
-10.64
-18.30
-24.19
-27.45
-27.92
-26.14
-23.00
-19.44
-16.18
-13.62
-11.87
-10.83
-10.34
-10.24
-10.47
-11.11
-12.41
-14.72
-18.32
-23.35
-29.67
-36.87
-44.32
-51.32
-57.26
-61.83
-65.09
-67.51
-69.78
-72.41
-75.46
-78.26
-79.62
-78.18
-73.00
-63.98
-51.90
-38.18
-24.37
-11.60
-0.40
9.18
17.35
24.22
29.63
33.33
35.13
35.29
34.44
33.43
32.95
33.24
33.96
34.47
34.10
32.55
29.97
26.80
23.53
20.42
17.37
14.04
10.08
5.27
-0.26
-6.22
-12.19
-17.83
-22.96
-27.53
-31.67
-35.55
-39.38
-43.45
-48.04
-53.34
-59.31
-65.55
-71.10
-74.75
-75.22
-71.65
-63.90
-52.67
-39.23
-25.00
-11.15
1.72
13.47
24.19
33.89
42.37
49.20
54.04
56.78
57.73
57.49
56.77
56.08
55.65
55.43
55.22
54.81
54.04
52.87
51.28
49.23
46.76
43.97
41.03
38.05
35.08
31.94
28.35
24.04
18.96
13.32
7.43
1.69
-3.70
-8.75
-13.61
-18.51
-23.69
-29.36
-35.66
-42.61
-49.91
-56.86
-62.38
-65.29
-64.63
-60.07
-52.10
-41.85
-30.66
-19.60
-9.13
0.81
10.47
19.88
28.64
36.08
41.63
45.17
47.07
48.02
48.57
48.85
48.61
47.57
45.73
43.56
41.87
41.20
41.65
42.66
43.34
42.86
40.87
37.58
33.60
29.62
26.09
23.10
20.41
17.60
14.27
10.24
5.60
0.64
-4.20
-8.57
-12.31
-15.52
-18.47
-21.67
-25.62
-30.81
-37.46
-45.29
-53.45
-60.49
-64.73
-64.76
-59.94
-50.77
-38.68
-25.56
-13.08
-2.19
6.90
14.49
20.94
26.34
30.52
33.17
34.16
33.74
32.46
30.94
29.68
28.90
28.54
28.33
28.02
27.50
26.78
26.04
25.41
24.91
24.37
23.47
21.91
19.59
16.69
13.55
10.55
7.90
5.52
3.19
0.64
-2.28
-5.56
-9.05
-12.60
-16.11
-19.59
-23.18
-27.16
-31.81
-37.34
-43.66
-50.30
-56.37
-60.64
-61.91
-59.36
-52.86
-43.07
-31.25
-18.89
-7.27
2.80
11.01
17.45
22.32
25.87
28.34
29.98
31.02
31.73
32.22
32.54
32.66
32.53
32.22
31.84
31.52
31.28
31.03
30.58
29.70
28.19
25.99
23.19
20.02
16.83
13.96
11.59
9.68
7.99
6.16
3.86
0.97
-2.42
-6.01
-9.49
-12.61
-15.34
-17.83
-20.33
-23.25
-26.93
-31.64
-37.34
-43.61
-49.56
-54.00
-55.66
-53.61
-47.59
-38.11
-26.30
-13.63
-1.37
9.61
19.01
26.91
33.48
38.83
42.98
45.88
47.65
48.61
49.28
50.17
51.59
53.52
55.70
57.70
59.19
60.02
60.27
60.16
59.87
59.59
59.44
59.50
59.75
60.07
60.07
59.05
56.13
50.38
41.27
28.92
14.24
-1.27
-15.86
-28.03
-36.96
-42.55
-45.47
-46.86
-48.05
-50.36
-54.80
-61.79
-71.05
-81.46
-91.27
-98.51
-101.43
-99.10
-91.51
-79.61
-64.97
-49.45
-34.65
-21.70
-11.21
-3.19
2.65
6.83
9.86
12.14
13.93
15.37
16.50
17.32
17.84
18.10
18.19
18.21
18.22
18.24
18.24
18.13
17.85
17.32
16.48
15.27
13.62
11.57
9.25
6.84
4.52
2.29
-0.02
-2.70
-5.99
-9.91
-14.17
-18.33
-21.96
-24.84
-27.08
-29.13
-31.54
-34.87
-39.44
-45.14
-51.42
-57.23
-61.19
-62.01
-58.92
-51.93
-41.97
-30.48
-18.96
-8.48
0.45
7.83
13.82
18.49
21.80
23.64
24.05
23.32
21.91
20.28
18.85
17.82
17.27
17.16
17.32
17.52
17.49
16.99
15.96
14.48
12.84
11.35
10.20
9.37
8.63
7.58
5.88
3.36
0.11
-3.54
-7.21
-10.56
-13.50
-16.17
-18.88
-21.96
-25.67
-30.10
-35.20
-40.71
-46.16
-50.75
-53.52
-53.43
-49.80
-42.59
-32.48
-20.70
-8.69
2.33
11.68
19.21
25.05
29.40
32.35
33.86
33.98
33.03
31.58
30.34
29.83
30.18
31.15
32.27
33.20
33.86
34.43
35.14
36.05
36.95
37.47
37.33
36.46
35.11
33.60
32.27
31.24
30.48
29.94
29.53
29.17
28.76
28.03
26.70
24.55
21.70
18.65
16.15
14.80
14.68
15.18
15.26
13.87
10.55
5.53
-0.42
-6.26
-11.02
-13.98
-14.61
-12.65
-8.37
-2.61
3.12
7.02
7.62
4.36
-2.14
-10.41
-18.65
-25.40
-29.86
-31.95
-32.00
-30.59
-28.30
-25.68
-23.30
-21.60
-20.82
-20.96
-21.72
-22.74
-23.72
-24.61
-25.55
-26.74
-28.34
-30.27
-32.37
-34.47
-36.52
-38.63
-41.02
-43.96
-47.69
-52.33
-57.78
-63.50
-68.45
-71.24
-70.52
-65.53
-56.40
-44.21
-30.62
-17.23
-5.19
5.03
13.43
20.12
25.18
28.51
30.02
29.89
28.59
26.81
25.27
24.49
24.61
25.39
26.30
26.72
26.27
24.83
22.72
20.47
18.50
16.98
15.61
13.87
11.22
7.52
3.01
-1.68
-5.88
-9.21
-11.76
-14.06
-16.78
-20.54
-25.60
-31.89
-38.87
-45.79
-51.58
-55.18
-55.67
-52.57
-46.02
-36.74
-25.81
-14.34
-3.24
6.90
15.83
23.33
29.17
33.15
35.13
35.31
34.19
32.52
31.06
30.37
30.52
31.18
31.74
31.71
30.88
29.44
27.79
26.25
24.81
23.12
20.64
17.02
12.21
6.48
0.34
-5.79
-11.66
-17.22
-22.65
-28.17
-34.13
-40.85
-48.40
-56.47
-64.16
-70.08
-72.71
-70.89
-64.31
-53.65
-40.39
-26.31
-12.97
-1.38
8.12
15.58
21.24
25.24
27.74
28.87
28.94
28.43
27.90
27.81
28.35
29.42
30.61
31.50
31.78
31.38
30.42
29.09
27.47
25.47
22.85
19.43
15.17
10.30
5.19
0.19
-4.55
-9.19
-14.12
-19.72
-26.26
-33.76
-42.00
-50.57
-58.76
-65.58
-69.83
-70.33
-66.32
-57.77
-45.57
-31.26
-16.58
-2.93
8.89
18.76
26.92
33.60
38.84
42.55
44.67
45.33
44.99
44.27
43.78
43.89
44.71
45.98
47.26
48.08
48.01
46.84
44.58
41.38
37.56
33.37
28.92
24.18
19.00
13.29
7.15
0.84
-5.25
-10.77
-15.58
-19.76
-23.60
-27.51
-31.94
-37.28
-43.79
-51.40
-59.56
-67.20
-72.86
-75.07
-72.78
-65.72
-54.56
-40.61
-25.48
-10.57
3.19
15.36
25.80
34.49
41.35
46.37
49.66
51.62
52.82
53.82
54.95
56.16
57.15
57.53
57.16
56.12
54.63
52.89
50.85
48.19
44.59
39.92
34.33
28.26
22.21
16.51
11.33
6.62
2.26
-1.95
-6.12
-10.41
-14.87
-19.48
-24.19
-28.81
-33.28
-37.67
-42.31
-47.60
-53.88
-61.00
-68.23
-74.27
-77.54
-76.80
-71.47
-62.02
-49.65
-35.95
-22.36
-9.83
1.20
10.62
18.38
24.35
28.35
30.38
30.66
29.78
28.45
27.37
27.00
27.48
28.64
30.08
31.34
31.99
31.78
30.76
29.17
27.37
25.64
24.04
22.36
20.29
17.49
13.89
9.72
5.36
1.16
-2.77
-6.54
-10.44
-14.68
-19.41
-24.68
-30.56
-37.14
-44.39
-51.86
-58.51
-62.82
-63.20
-58.62
-49.03
-35.56
-20.13
-4.82
8.72
19.60
27.67
33.28
36.96
39.20
40.37
40.74
40.61
40.26
40.03
40.18
40.82
41.86
42.91
43.53
43.27
41.97
39.70
36.83
33.79
30.95
28.51
26.48
24.79
23.23
21.56
19.33
16.11
11.54
5.61
-1.26
-8.29
-14.61
-19.76
-23.78
-27.46
-31.86
-38.00
-46.21
-55.86
-65.46
-72.96
-76.51
-75.03
-68.50
-57.93
-45.00
-31.46
-18.72
-7.58
1.72
9.32
15.46
20.33
24.04
26.61
28.13
28.79
28.97
29.10
29.47
30.16
30.90
31.32
31.13
30.37
29.36
28.51
28.03
27.71
27.08
25.60
23.08
19.76
16.25
13.15
10.71
8.75
6.66
3.85
-0.05
-5.03
-10.67
-16.39
-21.69
-26.33
-30.44
-34.38
-38.62
-43.57
-49.46
-56.36
-63.99
-71.73
-78.48
-82.82
-83.31
-78.91
-69.51
-55.98
-40.04
-23.67
-8.61
4.13
14.24
21.97
27.81
32.18
35.40
37.64
39.06
39.76
39.89
39.55
38.86
37.93
36.84
35.70
34.57
33.55
32.66
31.93
31.36
30.82
30.09
28.87
26.93
24.19
20.80
17.16
13.71
10.69
8.07
5.59
2.83
-0.42
-4.14
-7.97
-11.43
-14.20
-16.23
-17.80
-19.47
-21.89
-25.68
-31.21
-38.47
-46.92
-55.44
-62.50
-66.47
-66.00
-60.63
-50.74
-37.67
-23.21
-9.10
3.40
13.76
22.00
28.44
33.38
36.95
39.12
39.89
39.46
38.24
36.79
35.63
35.05
35.00
35.26
35.43
35.23
34.48
33.23
31.61
29.73
27.53
24.83
21.49
17.54
13.29
9.25
5.93
3.53
1.85
0.41
-1.38
-3.93
-7.25
-11.07
-14.89
-18.28
-21.00
-23.11
-24.95
-27.05
-29.99
-34.35
-40.35
-47.79
-55.89
-63.35
-68.59
-70.12
-67.05
-59.34
-47.83
-33.97
-19.37
-5.39
7.08
17.60
26.09
32.59
37.23
40.11
41.45
41.51
40.68
39.33
37.78
36.27
34.90
33.65
32.48
31.29
30.07
28.82
27.61
26.49
25.43
24.26
22.73
20.55
17.60
13.94
9.85
5.72
1.88
-1.53
-4.62
-7.67
-10.93
-14.48
-18.17
-21.64
-24.50
-26.52
-27.81
-28.82
-30.32
-33.13
-37.86
-44.56
-52.57
-60.51
-66.60
-69.12
-66.91
-59.78
-48.52
-34.64
-19.90
-5.84
6.51
16.65
24.51
30.22
33.98
35.99
36.55
36.08
35.09
34.04
33.26
32.79
32.51
32.18
31.59
30.73
29.71
28.77
28.13
27.85
27.70
27.37
26.42
24.61
22.01
19.01
16.11
13.68
11.77
10.03
7.91
4.96
1.07
-3.51
-8.20
-12.51
-16.19
-19.34
-22.33
-25.60
-29.52
-34.31
-40.00
-46.45
-53.16
-59.24
-63.44
-64.35
-60.89
-52.80
-40.88
-26.79
-12.48
0.47
11.21
19.66
26.14
30.99
34.37
36.32
36.98
36.65
35.87
35.12
34.74
34.69
34.79
34.72
34.24
33.26
31.84
30.11
28.21
26.29
24.38
22.41
20.28
17.97
15.61
13.43
11.71
10.51
9.71
8.91
7.66
5.60
2.63
-0.99
-4.80
-8.29
-11.17
-13.50
-15.78
-18.75
-23.13
-29.29
-36.99
-45.31
-52.74
-57.58
-58.29
-54.11
-45.19
-32.74
-18.61
-4.83
7.06
16.33
23.08
27.86
31.25
33.55
34.81
35.01
34.38
33.35
32.47
32.09
32.24
32.67
33.13
33.57
34.21
35.43
37.42
40.04
42.82
45.18
46.59
46.95
46.46
45.56
44.68
43.91
42.93
41.10
37.76
32.57
25.80
18.34
11.42
6.26
3.63
3.53
5.07
6.57
5.84
0.74
-10.01
-26.07
-45.02
-62.65
-74.19
-76.00
-67.08
-49.66
-28.41
-8.78
4.89
10.75
9.46
3.35
-4.84
-12.97
-19.90
-25.17
-28.54
-29.66
-28.14
-23.87
-17.39
-9.84
-2.68
2.82
6.09
7.43
7.81
8.32
9.65
11.71
13.75
14.72
13.78
10.76
6.11
0.71
-4.52
-9.02
-12.74
-16.05
-19.45
-23.32
-27.68
-32.23
-36.56
-40.41
-43.87
-47.52
-52.08
-57.99
-65.09
-72.25
-77.75
-79.69
-76.73
-68.55
-55.99
-40.76
-24.84
-9.99
2.67
12.74
20.29
25.61
29.05
30.77
31.01
30.09
28.51
26.87
25.71
25.34
25.66
26.40
27.16
27.71
28.00
28.10
28.09
27.89
27.34
26.20
24.35
21.79
18.65
15.10
11.27
7.22
2.92
-1.68
-6.58
-11.63
-16.58
-21.13
-25.14
-28.68
-32.13
-36.08
-41.04
-47.32
-54.66
-62.27
-68.81
-72.78
-72.83
-68.26
-59.26
-46.89
-32.82
-18.79
-6.20
4.20
12.24
18.09
21.98
24.09
24.52
23.53
21.57
19.27
17.26
15.99
15.59
15.83
16.30
16.58
16.43
15.82
14.96
14.00
12.98
11.72
9.83
6.94
2.91
-2.06
-7.48
-12.68
-17.14
-20.67
-23.48
-26.06
-29.08
-33.18
-38.79
-45.92
-54.06
-62.11
-68.61
-72.04
-71.29
-65.98
-56.56
-44.15
-30.15
-15.92
-2.51
9.36
19.27
26.99
32.53
36.06
37.91
38.49
38.21
37.41
36.44
35.53
34.83
34.34
33.93
33.34
32.32
30.74
28.70
26.38
24.00
21.59
19.01
15.96
12.19
7.62
2.43
-3.04
-8.42
-13.43
-17.96
-22.10
-26.06
-30.21
-34.97
-40.80
-47.96
-56.33
-65.12
-72.89
-77.86
-78.40
-73.69
-64.07
-50.96
-36.43
-22.52
-10.64
-1.26
5.91
11.61
16.55
21.12
25.33
28.93
31.66
33.39
34.24
34.46
34.30
33.89
33.22
32.18
30.74
29.03
27.25
25.64
24.39
23.53
22.96
22.46
21.69
20.20
17.59
13.61
8.30
2.05
-4.57
-10.96
-16.74
-21.90
-26.73
-31.71
-37.39
-44.25
-52.58
-62.40
-73.18
-83.78
-92.56
-97.67
-97.56
-91.54
-79.95
-64.13
-46.02
-27.50
-10.05
5.55
19.10
30.65
40.35
48.24
54.33
58.78
61.91
64.18
65.95
67.44
68.55
69.02
68.68
67.61
66.14
64.74
63.74
63.11
62.46
61.23
58.97
55.57
51.28
46.61
42.08
37.93
34.09
30.25
25.99
21.08
15.55
9.71
4.00
-1.12
-5.41
-8.96
-12.22
-15.87
-20.66
-27.08
-35.12
-44.03
-52.41
-58.44
-60.44
-57.35
-49.08
-36.54
-21.20
-4.67
11.76
27.33
41.71
54.76
66.27
75.91
83.29
88.30
91.22
92.84
94.14
95.96
98.46
100.98
102.20
100.62
95.25
86.07
74.25
61.62
50.13
40.98
34.22
28.83
23.15
15.75
5.96
-5.89
-18.67
-31.12
-42.25
-51.71
-59.61
-66.21
-71.58
-75.58
-77.92
-78.54
-77.74
-76.15
-74.57
-73.72
-74.06
-75.81
-78.98
-83.44
-88.87
-94.59
-99.48
-102.07
-100.83
-94.76
-83.75
-68.66
-51.15
-33.15
-16.25
-1.43
11.00
21.19
29.29
35.35
39.24
40.96
40.82
39.56
38.15
37.42
37.79
39.06
40.66
41.88
42.27
41.74
40.48
38.83
36.99
35.00
32.74
30.12
27.13
23.94
20.77
17.86
15.32
13.10
11.06
8.85
6.16
2.70
-1.64
-6.75
-12.32
-17.92
-23.17
-27.87
-32.07
-36.09
-40.50
-45.90
-52.77
-61.15
-70.41
-79.18
-85.61
-87.86
-84.77
-76.25
-63.42
-48.08
-32.18
-17.24
-4.13
6.81
15.57
22.27
27.14
30.48
32.74
34.38
35.76
37.00
38.02
38.61
38.66
38.16
37.35
36.52
35.94
35.75
35.93
36.29
36.53
36.27
35.23
33.23
30.27
26.59
22.59
18.71
15.33
12.60
10.34
8.13
5.43
1.88
-2.58
-7.66
-12.86
-17.69
-21.85
-25.40
-28.64
-32.05
-36.17
-41.40
-47.86
-55.19
-62.47
-68.25
-70.92
-69.12
-62.35
-51.07
-36.66
-20.97
-5.74
7.82
19.20
28.40
35.69
41.33
45.45
48.15
49.55
49.93
49.69
49.30
49.13
49.37
49.93
50.43
50.43
49.58
47.91
45.77
43.69
42.06
40.91
39.88
38.39
36.09
33.00
29.52
26.14
23.15
20.38
17.47
14.01
9.87
5.27
0.59
-3.82
-7.81
-11.48
-15.01
-18.65
-22.57
-27.01
-32.22
-38.49
-45.95
-54.40
-63.04
-70.52
-75.24
-75.79
-71.48
-62.55
-50.17
-36.02
-21.82
-8.97
1.71
9.86
15.47
18.74
20.00
19.70
18.46
17.04
16.20
16.52
18.20
21.03
24.44
27.78
30.48
32.28
33.25
33.61
33.57
33.19
32.32
30.76
28.40
25.31
21.78
18.19
14.88
11.95
9.22
6.31
2.79
-1.57
-6.70
-12.24
-17.70
-22.66
-26.91
-30.53
-33.87
-37.44
-41.76
-47.14
-53.50
-60.13
-65.75
-68.84
-68.10
-62.99
-54.00
-42.41
-29.83
-17.62
-6.55
3.14
11.51
18.60
24.34
28.56
31.30
32.88
33.80
34.57
35.51
36.68
37.95
39.14
40.10
40.82
41.30
41.56
41.59
41.25
40.40
38.91
36.72
33.90
30.70
27.35
24.10
21.04
18.04
14.86
11.23
6.95
2.01
-3.44
-9.09
-14.65
-19.89
-24.73
-29.32
-34.02
-39.31
-45.58
-52.90
-60.75
-67.99
-72.99
-74.10
-70.15
-60.88
-47.08
-30.29
-12.35
5.13
20.93
34.39
45.23
53.51
59.51
63.85
67.28
70.48
73.80
77.07
79.63
80.52
78.79
73.85
65.63
54.69
42.10
29.30
17.69
8.36
1.70
-2.65
-5.63
-8.32
-11.54
-15.63
-20.38
-25.38
-30.25
-34.86
-39.31
-43.68
-47.95
-51.86
-55.12
-57.48
-59.05
-60.27
-61.85
-64.55
-68.91
-75.04
-82.51
-90.39
-97.32
-101.76
-102.28
-98.01
-88.78
-75.28
-58.90
-41.37
-24.33
-8.96
4.13
14.83
23.27
29.59
33.83
36.08
36.64
36.03
34.93
33.98
33.60
33.78
34.24
34.57
34.50
34.03
33.40
32.95
32.79
32.73
32.25
30.77
27.95
23.91
19.17
14.37
9.98
6.08
2.35
-1.58
-5.91
-10.50
-14.96
-18.92
-22.25
-25.15
-28.09
-31.71
-36.61
-43.16
-51.35
-60.63
-69.80
-77.19
-81.02
-79.94
-73.48
-62.36
-48.24
-33.17
-18.92
-6.56
3.65
12.00
18.90
24.54
28.89
31.86
33.48
34.09
34.22
34.39
34.81
35.43
36.02
36.42
36.65
36.92
37.33
37.78
37.88
37.22
35.55
32.96
29.84
26.63
23.60
20.71
17.74
14.45
10.77
6.78
2.71
-1.27
-5.03
-8.55
-11.87
-15.09
-18.43
-22.21
-26.87
-32.77
-39.99
-48.11
-56.17
-62.88
-66.91
-67.34
-63.85
-56.75
-46.80
-34.98
-22.26
-9.43
2.82
13.90
23.30
30.61
35.68
38.64
39.90
40.01
39.58
39.10
38.88
39.02
39.41
39.86
40.14
40.14
39.78
39.05
37.96
36.47
34.53
32.12
29.28
26.19
23.11
20.23
17.61
15.01
12.02
8.24
3.39
-2.40
-8.70
-14.80
-20.18
-24.62
-28.43
-32.36
-37.24
-43.76
-51.98
-61.29
-70.31
-77.35
-80.72
-79.32
-73.00
-62.55
-49.46
-35.43
-21.82
-9.46
1.46
11.05
19.43
26.46
31.88
35.46
37.29
37.86
37.92
38.12
38.77
39.76
40.66
41.10
40.92
40.34
39.77
39.51
39.51
39.36
38.48
36.42
33.16
29.08
24.78
20.81
17.35
14.18
10.87
6.97
2.27
-3.09
-8.76
-14.27
-19.30
-23.75
-27.78
-31.80
-36.33
-41.93
-48.90
-57.17
-66.04
-74.25
-80.16
-82.21
-79.36
-71.46
-59.35
-44.58
-28.96
-13.96
-0.45
11.32
21.50
30.26
37.57
43.19
46.88
48.65
48.98
48.63
48.48
49.09
50.56
52.52
54.37
55.59
55.96
55.57
54.70
53.54
52.07
50.05
47.16
43.30
38.66
33.66
28.78
24.35
20.37
16.64
12.77
8.48
3.70
-1.43
-6.63
-11.62
-16.23
-20.45
-24.48
-28.74
-33.76
-40.06
-47.85
-56.82
-66.03
-73.99
-79.02
-79.71
-75.43
-66.44
-53.87
-39.32
-24.36
-10.16
2.71
14.15
24.34
33.37
41.16
47.45
52.02
54.85
56.26
56.78
56.98
57.20
57.48
57.58
57.22
56.23
54.70
52.92
51.21
49.66
48.14
46.25
43.58
39.86
35.14
29.74
24.10
18.64
13.57
8.92
4.54
0.18
-4.32
-9.09
-14.11
-19.30
-24.53
-29.70
-34.72
-39.68
-44.79
-50.40
-56.87
-64.35
-72.56
-80.57
-87.01
-90.30
-89.20
-83.12
-72.47
-58.48
-42.90
-27.38
-13.10
-0.63
9.98
18.85
26.09
31.67
35.52
37.73
38.67
38.98
39.26
39.86
40.74
41.61
42.10
42.09
41.70
41.20
40.80
40.42
39.76
38.45
36.26
33.17
29.40
25.29
21.13
17.13
13.33
9.59
5.67
1.25
-3.83
-9.41
-15.16
-20.59
-25.33
-29.34
-32.89
-36.48
-40.62
-45.75
-52.12
-59.76
-68.38
-77.16
-84.76
-89.51
-89.90
-85.09
-75.30
-61.82
-46.49
-31.21
-17.30
-5.39
4.50
12.63
19.19
24.31
28.09
30.76
32.73
34.47
36.33
38.36
40.31
41.89
42.85
43.27
43.41
43.59
43.92
44.23
44.14
43.22
41.19
38.08
34.16
29.85
25.56
21.52
17.73
13.99
10.08
5.82
1.26
-3.40
-7.92
-12.15
-16.18
-20.25
-24.70
-29.82
-35.80
-42.73
-50.58
-59.15
-67.86
-75.67
-81.12
-82.73
-79.47
-71.18
-58.76
-43.85
-28.33
-13.69
-0.73
10.34
19.70
27.51
33.76
38.36
41.31
42.84
43.48
43.82
44.25
44.84
45.36
45.47
45.02
44.19
43.44
43.26
43.90
45.18
46.61
47.57
47.65
46.77
45.19
43.34
41.60
40.14
38.84
37.42
35.49
32.78
29.27
25.22
21.11
17.36
14.22
11.59
9.02
5.81
1.32
-4.72
-11.86
-18.87
-23.80
-24.54
-19.53
-8.42
7.61
26.07
43.79
57.83
66.15
68.10
64.24
56.04
45.28
33.70
22.72
13.31
5.95
0.63
-3.21
-6.50
-10.30
-15.31
-21.66
-28.71
-35.31
-40.25
-42.81
-42.98
-41.45
-39.15
-36.92
-35.27
-34.33
-34.13
-34.65
-35.92
-37.89
-40.39
-43.08
-45.55
-47.49
-48.82
-49.66
-50.23
-50.85
-51.78
-53.35
-55.91
-59.85
-65.43
-72.59
-80.64
-88.28
-93.78
-95.45
-92.24
-84.06
-71.85
-57.17
-41.66
-26.62
-12.77
-0.38
10.48
19.65
26.92
32.14
35.38
37.04
37.70
37.93
38.10
38.29
38.39
38.27
37.88
37.29
36.65
36.01
35.28
34.16
32.41
29.92
26.83
23.46
20.13
17.01
13.97
10.81
7.37
3.62
-0.31
-4.25
-8.15
-12.05
-16.08
-20.34
-24.92
-29.99
-35.81
-42.70
-50.84
-59.95
-69.16
-77.07
-82.15
-83.16
-79.55
-71.64
-60.43
-47.28
-33.51
-20.10
-7.59
3.79
13.92
22.69
29.90
35.41
39.24
41.66
43.16
44.24
45.24
46.26
47.23
47.96
48.33
48.34
48.02
47.36
46.29
44.68
42.38
39.43
35.98
32.29
28.63
25.09
21.63
18.00
13.94
9.25
3.93
-1.86
-7.89
-13.93
-19.91
-25.84
-31.84
-38.03
-44.61
-51.78
-59.61
-67.86
-75.77
-82.03
-85.01
-83.34
-76.48
-64.97
-50.29
-34.34
-18.79
-4.65
7.76
18.51
27.64
35.05
40.49
43.88
45.47
45.90
45.92
46.08
46.58
47.24
47.71
47.77
47.42
46.87
46.38
46.01
45.57
44.61
42.70
39.66
35.58
30.96
26.34
22.13
18.36
14.70
10.69
5.98
0.62
-5.06
-10.55
-15.55
-20.09
-24.54
-29.43
-35.30
-42.52
-51.14
-60.83
-70.75
-79.62
-85.83
-87.84
-84.72
-76.38
-63.78
-48.54
-32.48
-17.11
-3.39
8.37
18.26
26.46
33.13
38.29
41.89
43.99
44.87
44.99
44.87
44.86
45.05
45.32
45.41
45.17
44.62
43.84
42.89
41.68
39.99
37.61
34.46
30.66
26.52
22.38
18.42
14.60
10.63
6.16
0.99
-4.78
-10.76
-16.42
-21.34
-25.45
-29.08
-32.83
-37.42
-43.36
-50.77
-59.16
-67.44
-74.05
-77.31
-75.97
-69.63
-58.92
-45.27
-30.45
-15.92
-2.53
9.35
19.71
28.50
35.57
40.73
43.97
45.56
45.99
45.82
45.47
45.12
44.72
44.15
43.20
41.85
40.19
38.42
36.71
35.10
33.41
31.30
28.47
24.78
20.40
15.75
11.20
7.00
3.04
-0.91
-5.12
-9.65
-14.35
-18.95
-23.24
-27.26
-31.26
-35.62
-40.71
-46.78
-53.80
-61.44
-68.99
-75.38
-79.29
-79.44
-75.01
-65.90
-52.94
-37.64
-21.81
-7.04
5.68
16.06
24.30
30.83
35.95
39.74
42.16
43.20
43.04
42.13
40.99
40.13
39.76
39.81
39.97
39.81
39.00
37.33
34.80
31.56
27.87
23.98
20.10
16.29
12.48
8.59
4.46
0.06
-4.54
-9.19
-13.66
-17.80
-21.56
-25.09
-28.70
-32.91
-38.26
-45.13
-53.51
-62.80
-71.85
-79.05
-82.80
-81.92
-76.02
-65.56
-51.77
-36.21
-20.42
-5.60
7.55
18.71
27.81
34.86
39.87
42.92
44.18
44.02
42.97
41.66
40.61
40.18
40.41
41.04
41.72
42.03
41.69
40.57
38.66
36.00
32.70
28.85
24.60
20.07
15.43
10.76
6.13
1.58
-2.90
-7.36
-11.87
-16.55
-21.48
-26.65
-31.98
-37.40
-42.96
-48.97
-55.89
-64.00
-73.08
-82.12
-89.44
-93.11
-91.61
-84.42
-72.18
-56.49
-39.35
-22.55
-7.22
6.18
17.64
27.33
35.37
41.72
46.37
49.42
51.14
51.96
52.34
52.62
52.98
53.36
53.65
53.72
53.50
52.99
52.17
51.02
49.40
47.17
44.23
40.60
36.45
31.95
27.30
22.52
17.56
12.36
6.91
1.32
-4.22
-9.51
-14.49
-19.35
-24.49
-30.45
-37.71
-46.48
-56.44
-66.70
-75.84
-82.17
-84.24
-81.20
-73.13
-60.93
-46.09
-30.19
-14.51
0.06
13.03
24.08
32.99
39.55
43.76
45.86
46.35
45.93
45.18
44.56
44.23
44.21
44.38
44.64
44.85
44.91
44.72
44.15
43.10
41.50
39.37
36.76
33.80
30.54
26.96
22.99
18.55
13.73
8.75
3.93
-0.55
-4.70
-8.79
-13.17
-18.15
-23.89
-30.36
-37.43
-44.81
-51.95
-57.90
-61.37
-61.00
-55.87
-45.92
-32.00
-15.69
1.26
17.38
31.68
43.58
52.85
59.44
63.54
65.73
66.78
67.56
68.60
70.01
71.41
72.23
72.04
70.78
68.88
67.05
66.01
66.18
67.46
69.21
70.36
69.74
66.31
59.48
49.27
36.35
21.89
7.28
-6.25
-17.98
-27.92
-36.77
-45.63
-55.64
-67.60
-81.80
-97.93
-115.20
-132.40
-148.01
-160.36
-167.82
-169.14
-163.69
-151.72
-134.34
-113.25
-90.34
-67.41
-45.74
-26.14
-8.91
5.85
18.11
27.80
34.87
39.46
42.01
43.20
43.78
44.30
45.01
45.78
46.37
46.52
46.24
45.65
44.97
44.26
43.45
42.26
40.39
37.65
34.10
29.97
25.62
21.29
17.03
12.63
7.83
2.42
-3.51
-9.64
-15.53
-20.87
-25.59
-29.99
-34.59
-40.00
-46.68
-54.74
-63.81
-72.93
-80.69
-85.45
-85.78
-80.92
-71.03
-57.22
-41.19
-24.78
-9.43
4.08
15.59
25.24
33.26
39.65
44.30
47.18
48.50
48.76
48.60
48.51
48.66
48.89
48.89
48.42
47.50
46.31
45.05
43.74
42.25
40.33
37.81
34.74
31.26
27.58
23.86
20.15
16.40
12.54
8.52
4.30
-0.14
-4.79
-9.59
-14.48
-19.35
-24.17
-29.00
-34.11
-39.87
-46.66
-54.57
-63.22
-71.65
-78.46
-82.16
-81.64
-76.46
-67.00
-54.30
-39.78
-24.86
-10.77
1.61
11.82
19.81
25.81
30.20
33.40
35.70
37.36
38.60
39.63
40.70
41.98
43.46
44.89
45.95
46.29
45.80
44.61
43.02
41.28
39.51
37.64
35.45
32.75
29.43
25.52
21.06
16.13
10.81
5.23
-0.40
-5.85
-10.91
-15.55
-19.90
-24.30
-29.16
-34.89
-41.78
-49.78
-58.36
-66.44
-72.57
-75.25
-73.53
-67.24
-57.09
-44.45
-30.81
-17.41
-5.07
5.83
15.08
22.54
28.04
31.58
33.28
33.53
32.88
31.90
31.03
30.47
30.21
30.08
29.93
29.69
29.41
29.13
28.76
28.00
26.48
23.94
20.43
16.36
12.30
8.65
5.40
2.16
-1.74
-6.75
-12.90
-19.73
-26.55
-32.66
-37.73
-41.75
-45.06
-48.20
-51.82
-56.61
-63.08
-71.34
-80.77
-89.99
-97.08
-100.11
-97.82
-90.02
-77.65
-62.41
-46.10
-30.25
-15.79
-3.15
7.51
16.15
22.76
27.37
30.19
31.58
32.06
32.13
32.25
32.68
33.51
34.72
36.21
37.78
39.24
40.40
41.05
40.96
39.99
38.05
35.24
31.79
28.01
24.23
20.63
17.22
13.79
10.02
5.66
0.67
-4.73
-10.14
-15.15
-19.56
-23.47
-27.33
-31.74
-37.30
-44.29
-52.48
-60.92
-68.19
-72.61
-72.82
-68.18
-59.01
-46.55
-32.46
-18.38
-5.44
5.87
15.58
24.00
31.34
37.65
42.71
46.33
48.45
49.33
49.46
49.41
49.59
50.12
50.82
51.41
51.65
51.43
50.77
49.67
48.05
45.77
42.72
38.89
34.40
29.46
24.26
18.95
13.68
8.49
3.37
-1.70
-6.79
-11.96
-17.18
-22.34
-27.43
-32.59
-38.19
-44.68
-52.28
-60.68
-68.93
-75.49
-78.71
-77.33
-70.88
-59.87
-45.65
-29.95
-14.43
-0.32
11.73
21.53
29.19
34.87
38.70
40.74
41.16
40.33
38.83
37.38
36.51
36.42
36.93
37.57
37.79
37.23
35.77
33.45
30.46
26.99
23.29
19.58
15.99
12.53
9.06
5.32
1.08
-3.70
-8.85
-14.10
-19.19
-24.02
-28.68
-33.41
-38.52
-44.29
-50.97
-58.66
-67.08
-75.49
-82.67
-87.14
-87.56
-83.18
-74.12
-61.27
-46.09
-30.15
-14.82
-1.07
10.46
19.41
25.71
29.49
31.16
31.27
30.45
29.22
27.95
26.87
26.04
25.49
25.10
24.70
24.08
23.05
21.52
19.56
17.33
15.01
12.67
10.25
7.64
4.73
1.59
-1.64
-4.70
-7.38
-9.71
-11.90
-14.38
-17.55
-21.66
-26.73
-32.68
-39.34
-46.44
-53.53
-59.75
-63.93
-64.76
-61.32
-53.47
-42.00
-28.44
-14.54
-1.66
9.48
18.75
26.31
32.31
36.71
39.37
40.33
39.95
38.86
37.82
37.40
37.80
38.81
39.97
40.78
40.92
40.35
39.29
38.07
36.97
36.08
35.19
33.87
31.64
28.15
23.40
17.67
11.48
5.33
-0.48
-5.97
-11.48
-17.53
-24.72
-33.42
-43.58
-54.61
-65.33
-74.09
-79.18
-79.32
-74.08
-64.05
-50.71
-35.98
-21.63
-8.87
1.82
10.55
17.62
23.23
27.36
29.95
31.10
31.28
31.22
31.70
33.19
35.66
38.58
41.22
43.00
43.67
43.47
42.90
42.49
42.54
43.06
43.70
43.91
43.17
41.08
37.62
33.07
27.89
22.55
17.30
12.05
6.46
0.00
-7.75
-16.96
-27.41
-38.48
-49.04
-57.67
-62.89
-63.49
-58.99
-49.73
-36.90
-22.09
-7.00
7.09
19.36
29.41
37.15
42.62
46.03
47.76
48.38
48.58
48.95
49.81
51.13
52.60
53.75
54.19
53.75
52.46
50.48
48.02
45.20
42.05
38.56
34.64
30.20
25.04
19.01
12.09
4.48
-3.36
-10.87
-17.55
-23.31
-28.49
-33.80
-40.03
-47.80
-57.28
-68.08
-79.19
-89.15
-96.27
-99.09
-96.74
-89.28
-77.67
-63.50
-48.45
-33.80
-20.28
-8.04
2.99
12.81
21.25
28.04
33.07
36.50
38.79
40.49
42.02
43.57
45.09
46.42
47.44
48.13
48.53
48.69
48.60
48.13
47.14
45.53
43.14
39.90
35.78
30.82
25.24
19.37
13.57
8.13
3.10
-1.67
-6.53
-11.87
-18.03
-25.19
-33.25
-41.76
-49.87
-56.38
-59.97
-59.59
-54.79
-45.89
-33.94
-20.42
-6.83
5.66
16.38
25.17
32.21
37.79
42.08
45.09
46.70
46.82
45.57
43.35
40.82
38.61
37.05
35.84
34.15
30.86
25.05
16.45
5.57
-6.49
-18.54
-29.88
-40.57
-51.45
-63.73
-78.45
-96.04
-116.21
-138.05
-160.40
-182.19
-202.80
-222.23
-241.23
-261.37
-284.84
-313.73
-348.96
-389.14
-430.04
-465.27
-488.11
-493.79
-481.19
-452.95
-414.24
-370.67
-326.47
-283.97
-244.10
-207.35
-174.29
-145.43
-120.53
-98.12
-75.84
-51.38
-23.70
6.44
36.75
64.50
87.96
107.28
124.46
142.42
163.57
188.58
216.02
243.03
266.58
284.85
297.93
307.72
317.27
329.82
348.13
373.53
404.95
438.06
465.52
478.75
471.06
440.68
392.21
335.29
280.95
237.50
207.78
189.28
176.65
165.01
152.40
140.16
131.65
130.30
138.29
156.13
182.94
216.92
255.65
296.13
334.75
367.40
389.91
398.99
393.11
373.08
342.00
304.44
265.14
227.74
193.91
163.33
134.42
105.34
75.03
43.66
12.47
-16.87
-43.01
-65.40
-84.32
-100.65
-115.36
-129.30
-142.93
-156.35
-169.23
-180.99
-190.75
-197.60
-200.79
-199.90
-194.87
-185.88
-173.17
-157.00
-137.75
-116.18
-93.62
-71.85
-52.71
-37.50
-26.62
-19.48
-14.84
-11.41
-8.26
-4.99
-1.63
1.52
4.00
5.22
4.37
0.58
-6.76
-17.66
-31.31
-46.28
-61.03
-74.51
-86.55
-97.82
-109.41
-122.19
-136.41
-151.70
-167.30
-182.62
-197.57
-212.64
-228.57
-245.89
-264.42
-283.15
-300.54
-315.00
-325.47
-331.89
-335.08
-336.42
-337.45
-339.63
-344.10
-351.60
-362.12
-374.38
-385.61
-391.92
-389.27
-375.02
-349.02
-313.94
-274.34
-234.95
-199.07
-167.65
-139.46
-112.18
-83.75
-53.30
-21.36
10.72
41.55
70.53
98.26
126.24
156.31
189.95
227.83
269.69
314.18
358.88
400.40
434.90
458.90
470.42
469.52
458.22
439.46
415.77
388.25
356.47
319.47
277.22
231.94
188.48
153.60
133.85
133.01
149.87
177.71
206.28
225.46
229.31
218.14
197.56
175.06
156.18
142.23
130.96
119.20
105.63
91.88
81.32
76.71
78.35
83.62
88.37
88.94
83.58
72.76
58.53
43.29
28.81
15.76
3.86
-7.48
-18.47
-28.59
-36.65
-41.32
-41.99
-39.30
-35.16
-32.17
-32.62
-37.66
-46.88
-58.79
-71.49
-83.57
-94.28
-103.40
-110.73
-115.70
-117.46
-115.31
-109.15
-99.75
-88.51
-76.90
-66.04
-56.46
-48.18
-41.14
-35.31
-30.79
-27.59
-25.45
-23.75
-21.75
-18.94
-15.20
-10.96
-6.89
-3.59
-1.27
0.30
1.51
2.70
3.81
4.45
4.06
2.15
-1.39
-6.28
-11.92
-17.66
-22.94
-27.51
-31.41
-34.84
-38.03
-41.09
-44.02
-46.71
-49.11
-51.30
-53.49
-55.92
-58.80
-62.14
-65.68
-68.91
-71.12
-71.59
-69.72
-65.34
-58.70
-50.43
-41.40
-32.38
-23.84
-16.00
-8.94
-2.75
2.34
6.04
8.18
8.86
8.50
7.70
7.10
7.16
8.01
9.50
11.27
12.88
13.94
14.21
13.61
12.25
10.31
8.02
5.52
2.90
0.21
-2.57
-5.48
-8.58
-11.97
-15.65
-19.50
-23.37
-27.06
-30.39
-33.43
-36.38
-39.64
-43.60
-48.55
-54.44
-60.74
-66.42
-70.09
-70.39
-66.42
-58.15
-46.43
-32.77
-18.83
-5.93
5.15
14.22
21.29
26.47
29.79
31.32
31.32
30.30
28.97
27.93
27.53
27.67
27.99
28.00
27.33
25.86
23.82
21.60
19.55
17.83
16.29
14.51
12.05
8.57
4.13
-0.88
-5.81
-10.10
-13.48
-16.10
-18.44
-21.08
-24.52
-28.97
-34.45
-40.75
-47.43
-53.75
-58.70
-61.10
-59.97
-54.90
-46.28
-35.27
-23.36
-11.97
-2.02
6.15
12.58
17.43
20.73
22.42
22.47
21.09
18.83
16.46
14.75
14.15
14.68
15.95
17.36
18.31
18.45
17.70
16.26
14.37
12.27
10.04
7.59
4.79
1.57
-2.02
-5.71
-9.19
-12.20
-14.76
-17.09
-19.53
-22.34
-25.63
-29.39
-33.63
-38.48
-44.01
-50.05
-55.85
-60.14
-61.44
-58.58
-51.20
-39.85
-25.87
-10.78
4.05
17.73
29.75
39.81
47.63
52.94
55.58
55.72
53.91
50.93
47.61
44.62
42.26
40.52
39.21
38.05
36.77
35.20
33.22
30.82
28.07
25.06
21.87
18.52
14.89
10.90
6.46
1.66
-3.28
-8.08
-12.53
-16.53
-20.08
-23.26
-26.24
-29.20
-32.53
-36.66
-42.00
-48.60
-55.88
-62.63
-67.23
-68.04
-64.06
-55.31
-42.83
-28.32
-13.65
-0.31
10.88
19.66
26.19
30.67
33.30
34.28
33.88
32.56
30.87
29.30
28.14
27.44
26.94
26.32
25.28
23.66
21.50
18.96
16.26
13.60
11.01
8.35
5.30
1.56
-3.03
-8.35
-13.95
-19.31
-24.05
-28.04
-31.53
-34.93
-38.72
-43.24
-48.66
-54.95
-61.80
-68.60
-74.30
-77.58
-77.14
-72.24
-63.02
-50.54
-36.44
-22.38
-9.57
1.41
10.44
17.62
23.00
26.62
28.53
28.97
28.38
27.30
26.29
25.75
25.92
26.85
28.32
29.94
31.24
31.81
31.47
30.34
28.77
27.04
25.19
22.95
19.86
15.55
10.00
3.67
-2.72
-8.46
-13.20
-17.07
-20.64
-24.57
-29.43
-35.54
-42.98
-51.63
-61.15
-70.79
-79.30
-85.07
-86.54
-82.73
-73.69
-60.47
-44.79
-28.38
-12.51
2.21
15.58
27.50
37.73
45.94
51.86
55.56
57.45
58.16
58.36
58.49
58.71
59.02
59.28
59.39
59.21
58.58
57.30
55.15
52.05
48.09
43.63
39.05
34.68
30.59
26.59
22.31
17.45
11.93
5.94
-0.14
-5.92
-11.16
-15.79
-19.94
-23.91
-28.09
-32.99
-39.12
-46.90
-56.29
-66.65
-76.56
-84.09
-87.24
-84.70
-76.19
-62.71
-46.10
-28.48
-11.58
3.54
16.52
27.40
36.34
43.40
48.59
51.94
53.65
54.09
53.73
52.98
52.14
51.36
50.73
50.30
50.09
50.11
50.26
50.30
49.93
48.82
46.77
43.84
40.27
36.37
32.42
28.41
24.19
19.50
14.18
8.29
2.18
-3.75
-9.18
-14.10
-18.79
-23.76
-29.54
-36.52
-44.83
-54.28
-64.26
-73.69
-81.17
-85.18
-84.47
-78.52
-67.78
-53.64
-37.96
-22.54
-8.64
3.19
12.90
20.66
26.55
30.50
32.51
32.78
31.86
30.48
29.33
28.84
29.03
29.61
30.21
30.54
30.52
30.21
29.69
28.95
27.86
26.20
23.89
20.97
17.71
14.39
11.26
8.31
5.35
2.09
-1.77
-6.33
-11.49
-16.99
-22.55
-27.98
-33.27
-38.54
-44.00
-49.87
-56.38
-63.68
-71.67
-79.85
-87.16
-92.10
-93.03
-88.78
-79.16
-65.08
-48.36
-31.08
-14.99
-1.09
10.31
19.34
26.21
31.08
34.08
35.52
35.89
35.93
36.25
37.20
38.77
40.60
42.30
43.56
44.37
44.94
45.56
46.41
47.41
48.27
48.54
47.91
46.30
43.96
41.30
38.73
36.39
34.08
31.28
27.41
22.10
15.40
7.72
-0.31
-8.07
-15.21
-21.68
-27.71
-33.71
-40.11
-47.21
-55.01
-63.05
-70.31
-75.40
-76.88
-73.75
-65.87
-54.01
-39.64
-24.46
-9.88
3.18
14.37
23.67
31.16
36.90
40.88
43.18
44.06
44.00
43.53
43.11
42.89
42.79
42.59
42.08
41.23
40.16
39.03
37.84
36.42
34.48
31.82
28.45
24.59
20.56
16.62
12.88
9.29
5.71
2.06
-1.73
-5.65
-9.66
-13.75
-17.92
-22.26
-26.97
-32.39
-38.81
-46.29
-54.44
-62.33
-68.54
-71.61
-70.42
-64.62
-54.72
-41.94
-27.87
-14.01
-1.57
8.72
16.55
21.99
25.25
26.67
26.68
25.71
24.19
22.54
21.05
19.93
19.25
18.89
18.71
18.59
18.50
18.50
18.63
18.83
18.79
18.14
16.48
13.63
9.64
4.81
-0.48
-5.93
-11.40
-16.88
-22.38
-27.92
-33.47
-39.09
-44.92
-51.27
-58.34
-66.07
-73.86
-80.61
-84.83
-85.02
-80.12
-69.74
-54.34
-35.15
-13.98
7.13
26.21
41.73
52.76
59.19
61.59
60.98
58.51
55.23
51.92
49.11
47.13
46.12
46.01
46.42
46.86
46.80
45.95
44.28
42.12
39.82
37.61
35.45
33.01
29.89
25.74
20.37
13.77
6.14
-2.34
-11.51
-21.29
-31.68
-42.57
-53.53
-63.72
-71.87
-76.57
-76.72
-71.99
-62.94
-50.95
-37.74
-24.86
-13.46
-4.06
3.15
8.22
11.23
12.37
12.03
10.87
9.68
9.10
9.37
10.29
11.26
11.73
11.33
10.14
8.48
6.70
4.97
3.12
0.79
-2.34
-6.34
-11.00
-15.98
-20.92
-25.68
-30.39
-35.32
-40.77
-47.04
-54.24
-62.34
-70.93
-79.15
-85.75
-89.19
-88.20
-82.13
-71.35
-57.09
-41.09
-24.99
-9.98
3.31
14.64
23.87
30.84
35.39
37.63
38.04
37.38
36.45
35.82
35.67
35.78
35.76
35.25
34.11
32.39
30.25
27.81
25.04
21.75
17.65
12.43
5.97
-1.53
-9.60
-17.61
-25.03
-31.58
-37.47
-43.33
-50.01
-58.31
-68.66
-80.80
-93.79
-106.06
-115.69
-120.93
-120.58
-114.37
-103.03
-87.99
-70.99
-53.54
-36.60
-20.62
-5.70
8.07
20.41
30.93
39.34
45.61
50.10
53.36
55.87
57.83
59.12
59.54
59.02
57.80
56.26
54.79
53.51
52.23
50.53
48.09
44.70
40.41
35.38
29.70
23.42
16.62
9.47
2.24
-4.73
-11.27
-17.39
-23.33
-29.48
-36.27
-44.14
-53.44
-64.35
-76.74
-89.88
-102.38
-112.34
-117.88
-117.58
-111.04
-98.97
-82.81
-64.35
-45.09
-26.09
-7.85
9.41
25.56
40.39
53.55
64.73
73.65
80.27
84.79
87.61
89.16
89.90
90.14
90.05
89.70
89.06
88.03
86.52
84.43
81.74
78.51
74.88
70.97
66.90
62.72
58.43
54.13
49.91
45.88
42.05
38.27
34.26
29.72
24.43
18.38
11.79
4.98
-1.69
-7.98
-13.86
-19.51
-25.28
-31.62
-38.99
-47.64
-57.62
-68.49
-79.30
-88.70
-95.10
-97.11
-93.97
-85.70
-73.18
-57.86
-41.31
-24.87
-9.42
4.61
17.07
27.94
37.15
44.59
50.18
53.95
56.15
57.23
57.74
58.15
58.79
59.73
60.81
61.81
62.49
62.75
62.59
62.07
61.24
60.04
58.39
56.18
53.46
50.43
47.36
44.51
41.97
39.62
37.17
34.36
31.06
27.31
23.29
19.12
14.81
10.28
5.41
0.18
-5.28
-10.75
-15.98
-20.94
-25.82
-31.03
-37.09
-44.40
-52.91
-61.99
-70.41
-76.65
-79.30
-77.53
-71.39
-61.73
-49.93
-37.36
-25.09
-13.69
-3.31
6.10
14.57
22.05
28.39
33.51
37.43
40.33
42.48
44.15
45.51
46.68
47.69
48.57
49.35
50.12
50.97
51.84
52.55
52.76
52.18
50.63
48.17
45.09
41.75
38.48
35.40
32.49
29.58
26.58
23.41
20.09
16.65
13.14
9.63
6.15
2.78
-0.46
-3.57
-6.63
-9.76
-13.12
-16.89
-21.19
-26.13
-31.75
-38.05
-44.86
-51.71
-57.83
-62.20
-63.87
-62.24
-57.37
-49.90
-40.83
-31.18
-21.70
-12.80
-4.64
2.70
9.12
14.52
18.91
22.37
25.05
27.10
28.66
29.85
30.80
31.67
32.55
33.42
34.10
34.36
34.02
33.05
31.66
30.09
28.61
27.37
26.34
25.41
24.41
23.18
21.66
19.86
17.95
16.11
14.55
13.30
12.26
11.20
9.85
8.03
5.66
2.83
-0.34
-3.74
-7.34
-11.18
-15.30
-19.73
-24.48
-29.48
-34.64
-39.70
-44.23
-47.60
-49.04
-47.85
-43.65
-36.49
-27.01
-16.24
-5.30
4.82
13.49
20.46
25.76
29.55
32.06
33.58
34.40
34.92
35.50
36.32
37.30
38.09
38.22
37.40
35.62
33.14
30.40
27.83
25.65
23.87
22.41
21.10
19.92
18.90
18.09
17.46
16.84
15.99
14.70
12.86
10.53
7.93
5.32
2.83
0.44
-2.05
-4.89
-8.30
-12.38
-17.12
-22.40
-27.93
-33.25
-37.70
-40.54
-41.17
-39.25
-35.01
-29.06
-22.26
-15.43
-9.17
-3.73
0.83
4.49
7.29
9.23
10.38
10.92
11.00
10.78
10.30
9.52
8.42
7.15
5.97
5.18
5.00
5.32
5.81
6.06
5.77
4.85
3.49
1.95
0.43
-1.03
-2.57
-4.35
-6.45
-8.89
-11.59
-14.52
-17.70
-21.24
-25.15
-29.44
-34.02
-38.83
-43.85
-48.98
-53.98
-58.34
-61.36
-62.28
-60.68
-56.58
-50.49
-43.15
-35.13
-26.68
-17.74
-8.24
1.67
11.42
20.26
27.49
32.74
36.15
38.24
39.65
40.91
42.31
43.88
45.50
46.93
47.94
48.36
48.07
47.13
45.66
43.82
41.67
39.13
36.04
32.30
27.97
23.27
18.41
13.52
8.43
2.83
-3.56
-10.83
-18.76
-26.96
-35.02
-42.54
-49.10
-54.10
-56.78
-56.39
-52.48
-45.24
-35.58
-24.95
-14.83
-6.32
0.11
4.57
7.49
9.32
10.37
10.75
10.56
9.92
9.06
8.19
7.50
7.00
6.59
6.07
5.26
4.12
2.71
1.21
-0.20
-1.38
-2.35
-3.30
-4.56
-6.47
-9.20
-12.64
-16.45
-20.20
-23.54
-26.43
-29.09
-31.90
-35.32
-39.67
-45.16
-51.68
-58.79
-65.64
-71.01
-73.55
-72.20
-66.56
-57.07
-44.94
-31.70
-18.71
-6.80
3.79
13.09
21.16
27.78
32.54
35.10
35.53
34.46
32.84
31.58
31.17
31.49
31.97
31.98
31.19
29.62
27.64
25.59
23.55
21.31
18.52
14.88
10.29
4.85
-1.20
-7.63
-14.22
-20.70
-26.80
-32.20
-36.75
-40.56
-44.00
-47.65
-52.03
-57.39
-63.41
-69.23
-73.55
-74.93
-72.26
-65.11
-53.93
-39.97
-24.87
-10.18
3.05
14.34
23.72
31.35
37.29
41.44
43.69
44.10
43.02
41.02
38.74
36.62
34.92
33.68
32.74
31.97
31.21
30.39
29.49
28.49
27.40
26.16
24.74
23.03
20.93
18.35
15.26
11.73
7.90
4.02
0.22
-3.43
-7.10
-11.05
-15.70
-21.38
-28.30
-36.36
-45.08
-53.60
-60.76
-65.29
-66.12
-62.74
-55.38
-44.95
-32.87
-20.55
-9.13
0.73
8.82
15.14
19.69
22.49
23.63
23.46
22.65
22.12
22.67
24.74
28.15
32.25
36.10
38.89
40.19
40.09
39.01
37.49
35.89
34.23
32.28
29.70
26.32
22.30
18.07
14.25
11.29
9.33
8.10
6.97
5.18
2.05
-2.86
-9.49
-17.33
-25.41
-32.45
-37.10
-38.39
-35.85
-29.75
-21.03
-11.01
-1.05
7.72
14.61
19.38
22.10
23.01
22.51
20.95
18.77
16.40
14.18
12.44
11.29
10.74
10.64
10.77
10.90
10.86
10.53
9.79
8.55
6.72
4.21
1.01
-2.75
-6.82
-10.86
-14.52
-17.65
-20.26
-22.64
-25.19
-28.47
-32.93
-38.77
-45.71
-52.83
-58.82
-62.18
-61.72
-57.02
-48.53
-37.46
-25.30
-13.46
-2.80
6.28
13.74
19.64
23.94
26.53
27.42
26.84
25.28
23.38
21.67
20.48
19.85
19.56
19.39
19.16
18.77
18.16
17.20
15.68
13.42
10.41
6.83
3.09
-0.38
-3.34
-5.78
-8.04
-10.63
-14.11
-18.86
-24.97
-32.16
-39.67
-46.34
-50.80
-51.78
-48.60
-41.38
-31.04
-19.07
-7.01
3.93
13.09
20.27
25.56
29.07
30.92
31.24
30.24
28.30
25.83
23.24
20.80
18.64
16.75
15.09
13.59
12.18
10.80
9.34
7.62
5.42
2.53
-1.08
-5.33
-9.96
-14.63
-19.07
-23.24
-27.39
-31.96
-37.45
-44.04
-51.44
-58.70
-64.41
-67.00
-65.25
-58.69
-47.70
-33.43
-17.48
-1.42
13.43
26.19
36.32
43.53
47.81
49.40
48.88
47.09
44.90
42.99
41.65
40.72
39.85
38.65
36.93
34.73
32.20
29.47
26.52
23.17
19.20
14.48
9.11
3.39
-2.23
-7.31
-11.53
-14.88
-17.60
-20.21
-23.28
-27.26
-32.29
-38.08
-43.82
-48.39
-50.63
-49.63
-45.12
-37.39
-27.29
-15.99
-4.61
5.82
14.47
20.76
24.41
25.37
24.03
21.06
17.42
14.05
11.68
10.63
10.80
11.73
12.77
13.27
12.79
11.12
8.38
4.83
0.78
-3.45
-7.68
-11.77
-15.66
-19.33
-22.87
-26.48
-30.53
-35.38
-41.21
-47.74
-54.10
-58.85
-60.43
-57.67
-50.24
-38.86
-25.09
-10.87
2.09
12.68
20.46
25.55
28.32
29.11
28.26
26.08
23.00
19.53
16.23
13.49
11.52
10.24
9.37
8.57
7.50
5.88
3.56
0.46
-3.38
-7.78
-12.41
-16.98
-21.29
-25.40
-29.54
-34.16
-39.70
-46.40
-54.16
-62.41
-70.06
-75.71
-77.93
-75.68
-68.67
-57.54
-43.71
-28.88
-14.64
-2.02
8.51
16.79
22.78
26.46
27.91
27.54
26.08
24.44
23.39
23.30
23.99
24.95
25.65
25.77
25.24
24.19
22.69
20.71
18.07
14.63
10.37
5.43
0.05
-5.48
-11.04
-16.69
-22.71
-29.49
-37.35
-46.20
-55.49
-64.01
-70.20
-72.51
-69.88
-62.11
-49.96
-34.92
-18.73
-3.01
11.07
22.87
32.20
39.10
43.77
46.51
47.67
47.71
47.07
46.16
45.25
44.43
43.69
42.94
42.11
41.14
40.02
38.67
37.02
34.90
32.13
28.56
24.06
18.68
12.65
6.39
0.37
-5.04
-9.79
-14.19
-18.82
-24.36
-31.27
-39.54
-48.51
-56.89
-63.06
-65.44
-63.05
-55.71
-44.24
-30.09
-14.94
-0.29
12.85
24.02
33.11
40.13
45.16
48.30
49.75
49.91
49.34
48.66
48.33
48.57
49.22
49.89
50.06
49.36
47.66
45.12
42.07
38.85
35.64
32.47
29.15
25.43
21.11
16.11
10.58
4.75
-1.09
-6.75
-12.19
-17.46
-22.70
-28.07
-33.73
-39.87
-46.70
-54.23
-62.16
-69.60
-75.13
-77.19
-74.52
-66.75
-54.56
-39.51
-23.51
-8.29
5.06
16.16
25.08
32.03
37.15
40.43
41.92
41.92
41.03
40.05
39.75
40.55
42.45
44.95
47.34
48.89
49.19
48.20
46.23
43.72
40.96
38.12
35.08
31.61
27.48
22.62
17.14
11.36
5.67
0.43
-4.17
-8.16
-11.82
-15.51
-19.63
-24.51
-30.30
-37.03
-44.49
-52.19
-59.25
-64.53
-66.73
-64.89
-58.62
-48.37
-35.32
-21.06
-7.09
5.52
16.20
24.89
31.71
36.77
40.05
41.58
41.54
40.44
38.98
37.85
37.52
38.00
38.96
39.93
40.55
40.70
40.49
40.05
39.40
38.42
36.92
34.79
32.02
28.72
24.97
20.75
16.03
10.79
5.20
-0.46
-5.83
-10.67
-14.97
-18.92
-22.86
-27.20
-32.32
-38.51
-45.87
-54.14
-62.59
-69.94
-74.58
-74.98
-70.24
-60.47
-46.83
-31.11
-15.24
-0.69
11.76
21.96
30.03
36.16
40.42
42.86
43.76
43.65
43.27
43.33
44.18
45.73
47.50
48.93
49.61
49.42
48.55
47.29
45.87
44.31
42.45
40.05
36.94
33.07
28.58
23.73
18.82
14.09
9.65
5.46
1.35
-2.91
-7.46
-12.30
-17.33
-22.39
-27.34
-32.24
-37.27
-42.86
-49.39
-57.00
-65.28
-73.22
-79.28
-81.77
-79.47
-72.01
-60.09
-45.35
-29.73
-14.99
-2.21
8.24
16.54
23.00
27.84
31.15
33.03
33.75
33.79
33.70
33.86
34.34
34.91
35.21
35.02
34.37
33.44
32.45
31.45
30.28
28.73
26.60
23.84
20.54
16.84
12.87
8.76
4.57
0.40
-3.67
-7.59
-11.33
-14.92
-18.40
-21.92
-25.73
-30.23
-35.82
-42.70
-50.56
-58.45
-64.85
-68.09
-66.92
-60.95
-50.80
-37.90
-23.95
-10.49
1.46
11.42
19.23
24.84
28.29
29.63
29.16
27.43
25.21
23.25
22.06
21.78
22.26
23.21
24.32
25.36
26.15
26.44
25.97
24.50
22.00
18.72
15.13
11.67
8.57
5.73
2.71
-0.89
-5.27
-10.26
-15.34
-19.95
-23.75
-26.84
-29.71
-33.05
-37.48
-43.26
-50.21
-57.66
-64.56
-69.64
-71.68
-69.72
-63.47
-53.34
-40.44
-26.26
-12.27
0.40
11.09
19.56
25.82
29.97
32.20
32.79
32.20
30.98
29.63
28.51
27.79
27.57
27.79
28.37
29.19
30.00
30.52
30.46
29.66
28.10
25.85
23.03
19.74
16.02
11.90
7.47
2.87
-1.76
-6.28
-10.60
-14.73
-18.72
-22.64
-26.59
-30.68
-35.04
-39.93
-45.66
-52.53
-60.54
-69.18
-77.34
-83.44
-85.88
-83.54
-76.18
-64.53
-50.08
-34.60
-19.62
-6.22
5.16
14.46
21.81
27.36
31.17
33.33
34.01
33.65
32.85
32.29
32.45
33.48
35.14
36.88
38.12
38.44
37.71
36.10
33.89
31.43
28.82
26.03
22.85
19.07
14.62
9.67
4.54
-0.39
-4.84
-8.80
-12.44
-16.07
-19.89
-24.02
-28.60
-33.83
-40.03
-47.43
-55.82
-64.27
-71.23
-74.91
-73.88
-67.69
-56.98
-43.29
-28.48
-14.15
-1.26
9.81
19.05
26.57
32.35
36.29
38.40
38.92
38.35
37.38
36.64
36.53
37.18
38.32
39.53
40.33
40.39
39.61
38.10
36.10
33.85
31.44
28.78
25.71
22.07
17.87
13.32
8.72
4.35
0.35
-3.34
-6.86
-10.36
-14.00
-17.89
-22.20
-27.24
-33.32
-40.65
-49.02
-57.71
-65.38
-70.46
-71.48
-67.63
-59.01
-46.62
-32.09
-17.12
-3.10
9.12
19.19
27.11
32.97
36.90
39.06
39.69
39.20
38.09
36.89
36.00
35.62
35.74
36.20
36.73
37.11
37.15
36.78
35.97
34.72
32.96
30.62
27.63
23.97
19.74
15.07
10.15
5.15
0.21
-4.58
-9.19
-13.61
-17.95
-22.40
-27.27
-32.89
-39.52
-47.12
-55.30
-63.14
-69.39
-72.70
-71.94
-66.60
-57.00
-44.18
-29.74
-15.31
-2.21
8.74
17.29
23.56
27.80
30.28
31.26
31.03
30.03
28.78
27.83
27.53
27.94
28.85
29.84
30.51
30.53
29.81
28.41
26.46
24.13
21.56
18.77
15.76
12.53
9.02
5.22
1.14
-3.23
-7.80
-12.46
-17.04
-21.43
-25.57
-29.67
-34.06
-39.23
-45.54
-53.01
-61.04
-68.48
-73.84
-75.70
-73.19
-66.28
-55.79
-43.09
-29.69
-16.81
-5.18
4.90
13.37
20.13
25.05
28.08
29.35
29.31
28.58
27.85
27.55
27.79
28.37
28.93
29.13
28.77
27.89
26.65
25.26
23.84
22.37
20.68
18.55
15.83
12.50
8.69
4.66
0.61
-3.31
-7.09
-10.77
-14.48
-18.41
-22.80
-27.92
-34.05
-41.21
-49.08
-56.91
-63.60
-67.95
-69.00
-66.29
-59.97
-50.79
-39.82
-28.20
-16.82
-6.28
3.14
11.35
18.30
23.93
28.18
31.12
32.96
34.07
34.93
35.94
37.34
39.13
41.09
42.98
44.57
45.78
46.70
47.51
48.28
48.92
49.19
48.74
47.35
44.97
41.80
38.24
34.76
31.74
29.43
27.78
26.55
25.31
23.57
20.92
17.18
12.52
7.42
2.63
-0.96
-2.47
-1.20
3.36
11.39
22.76
37.01
53.30
70.50
87.29
102.22
113.84
120.76
121.71
115.84
103.04
84.37
62.27
40.25
21.99
10.21
5.74
7.26
11.95
16.71
19.23
18.57
14.89
8.78
0.72
-9.07
-20.36
-32.55
-44.57
-55.17
-63.47
-69.27
-73.15
-76.02
-78.71
-81.55
-84.35
-86.51
-87.48
-87.04
-85.49
-83.71
-82.91
-84.21
-88.20
-94.54
-101.88
-108.14
-111.10
-109.09
-101.51
-88.84
-72.41
-53.93
-34.99
-16.90
-0.55
13.48
24.97
33.89
40.47
44.98
47.76
49.14
49.44
49.05
48.44
48.03
48.05
48.43
48.82
48.81
48.10
46.66
44.68
42.34
39.72
36.72
33.17
28.99
24.27
19.22
14.08
9.01
4.02
-0.95
-5.92
-10.80
-15.52
-20.05
-24.57
-29.47
-35.25
-42.36
-51.01
-60.99
-71.54
-81.34
-88.78
-92.29
-90.92
-84.65
-74.47
-61.99
-48.91
-36.41
-24.96
-14.43
-4.55
4.76
13.15
20.11
25.22
28.47
30.27
31.30
32.24
33.50
35.19
37.16
39.13
40.89
42.30
43.28
43.77
43.73
43.03
41.62
39.53
36.96
34.25
31.75
29.71
28.05
26.40
24.19
20.95
16.50
11.08
5.18
-0.74
-6.45
-12.09
-18.07
-24.85
-32.71
-41.62
-51.23
-60.78
-69.23
-75.27
-77.69
-75.61
-68.97
-58.55
-45.83
-32.48
-19.87
-8.66
1.08
9.61
17.12
23.64
28.99
33.04
35.87
37.79
39.17
40.35
41.53
42.84
44.37
46.23
48.47
50.98
53.48
55.53
56.69
56.67
55.34
52.84
49.39
45.27
40.75
36.00
31.08
25.99
20.70
15.24
9.65
4.04
-1.46
-6.80
-11.97
-17.05
-22.18
-27.56
-33.40
-39.83
-46.77
-53.76
-59.94
-64.17
-65.36
-62.85
-56.58
-47.21
-35.87
-23.81
-12.14
-1.59
7.42
14.82
20.69
25.21
28.60
31.06
32.79
33.99
34.89
35.72
36.68
37.83
39.07
40.18
40.90
41.04
40.50
39.28
37.50
35.24
32.62
29.69
26.41
22.76
18.72
14.31
9.68
5.06
0.61
-3.60
-7.65
-11.70
-15.85
-20.12
-24.46
-28.93
-33.84
-39.63
-46.61
-54.60
-62.68
-69.39
-73.08
-72.59
-67.56
-58.65
-47.15
-34.54
-22.09
-10.59
-0.41
8.33
15.60
21.33
25.47
28.04
29.31
29.78
30.02
30.54
31.53
32.76
33.76
34.01
33.24
31.58
29.50
27.48
25.81
24.41
22.89
20.78
17.82
14.04
9.71
5.17
0.66
-3.74
-8.09
-12.43
-16.72
-20.97
-25.29
-30.01
-35.59
-42.35
-50.22
-58.49
-65.97
-71.20
-72.98
-70.75
-64.70
-55.67
-44.82
-33.30
-21.97
-11.44
-2.07
5.91
12.31
17.04
20.24
22.28
23.69
25.01
26.67
28.82
31.34
33.91
36.07
37.40
37.62
36.71
34.89
32.56
30.12
27.72
25.24
22.31
18.56
13.78
8.12
1.96
-4.20
-10.03
-15.43
-20.58
-25.80
-31.49
-37.97
-45.45
-53.87
-62.80
-71.42
-78.47
-82.59
-82.66
-78.22
-69.56
-57.81
-44.47
-31.06
-18.64
-7.71
1.64
9.57
16.17
21.45
25.38
28.07
29.83
31.13
32.42
33.95
35.64
37.16
38.12
38.26
37.62
36.46
35.12
33.84
32.63
31.27
29.44
26.88
23.45
19.25
14.46
9.28
3.92
-1.46
-6.70
-11.72
-16.48
-21.13
-26.01
-31.59
-38.28
-46.25
-55.19
-64.18
-71.91
-76.87
-77.89
-74.46
-66.92
-56.37
-44.23
-31.90
-20.34
-9.95
-0.64
7.79
15.51
22.46
28.37
32.97
36.22
38.39
39.98
41.47
43.07
44.64
45.78
46.12
45.65
44.65
43.54
42.60
41.75
40.70
39.08
36.72
33.73
30.38
26.96
23.53
20.02
16.15
11.70
6.52
0.61
-5.92
-12.92
-20.33
-28.17
-36.48
-45.11
-53.62
-61.08
-66.32
-68.19
-65.99
-59.77
-50.25
-38.60
-26.01
-13.40
-1.33
9.87
19.88
28.36
34.95
39.50
42.15
43.41
43.90
44.21
44.59
44.95
45.03
44.59
43.58
42.19
40.68
39.25
37.88
36.37
34.43
31.83
28.48
24.44
19.88
15.01
10.03
5.12
0.39
-4.16
-8.57
-13.01
-17.69
-22.87
-28.74
-35.44
-42.87
-50.60
-57.78
-63.29
-65.94
-64.87
-59.87
-51.46
-40.72
-28.92
-17.21
-6.44
2.92
10.61
16.50
20.60
23.07
24.25
24.61
24.67
24.77
25.15
25.85
26.78
27.78
28.63
29.09
28.99
28.36
27.37
26.35
25.55
24.97
24.34
23.18
21.03
17.74
13.51
8.79
4.00
-0.71
-5.47
-10.64
-16.56
-23.43
-31.22
-39.70
-48.39
-56.59
-63.38
-67.67
-68.52
-65.40
-58.48
-48.61
-37.15
-25.48
-14.61
-5.06
3.06
9.86
15.44
19.80
22.97
25.01
26.16
26.76
27.18
27.75
28.67
29.99
31.59
33.17
34.29
34.51
33.56
31.54
28.78
25.70
22.55
19.29
15.64
11.33
6.27
0.71
-4.90
-10.11
-14.69
-18.74
-22.57
-26.64
-31.33
-36.92
-43.58
-51.22
-59.39
-67.28
-73.67
-77.23
-77.00
-72.62
-64.63
-54.19
-42.69
-31.29
-20.65
-10.93
-2.07
5.95
13.00
18.86
23.39
26.68
29.04
30.87
32.57
34.39
36.33
38.32
40.07
41.34
41.88
41.61
40.59
39.06
37.27
35.37
33.39
31.20
28.60
25.47
21.83
17.90
13.92
10.05
6.28
2.43
-1.81
-6.72
-12.48
-19.16
-26.72
-35.02
-43.62
-51.76
-58.36
-62.21
-62.40
-58.55
-51.16
-41.27
-30.22
-19.15
-8.74
0.78
9.38
17.04
23.62
28.91
32.73
35.16
36.50
37.29
38.06
39.23
40.94
43.07
45.25
47.09
48.28
48.72
48.48
47.69
46.48
44.85
42.80
40.33
37.56
34.67
31.90
29.41
27.25
25.32
23.50
21.62
19.60
17.38
14.84
11.84
8.25
3.99
-0.78
-5.59
-9.67
-12.07
-11.81
-8.10
-0.52
10.97
25.76
42.56
59.39
73.84
83.54
86.79
82.97
72.70
57.55
39.62
21.13
4.11
-9.66
-18.83
-22.70
-21.48
-16.39
-9.43
-2.89
1.35
2.35
0.26
-3.99
-9.25
-14.62
-19.68
-24.44
-29.10
-33.82
-38.56
-43.16
-47.42
-51.24
-54.61
-57.60
-60.26
-62.57
-64.54
-66.25
-67.95
-69.95
-72.49
-75.45
-78.26
-79.92
-79.27
-75.39
-67.97
-57.49
-45.07
-32.07
-19.71
-8.81
0.40
7.98
14.17
19.15
23.01
25.75
27.48
28.37
28.74
28.96
29.32
29.94
30.76
31.58
32.11
32.13
31.54
30.41
28.87
27.06
25.06
22.87
20.42
17.62
14.45
10.93
7.12
3.13
-0.92
-4.97
-8.90
-12.70
-16.42
-20.21
-24.40
-29.35
-35.31
-42.30
-49.95
-57.36
-63.31
-66.53
-66.03
-61.48
-53.38
-42.84
-31.29
-20.00
-9.71
-0.61
7.48
14.75
21.16
26.43
30.18
32.27
32.94
32.84
32.73
33.22
34.52
36.40
38.39
39.97
40.76
40.63
39.65
37.99
35.87
33.41
30.62
27.39
23.62
19.29
14.53
9.63
4.91
0.57
-3.41
-7.23
-11.18
-15.44
-20.08
-25.11
-30.59
-36.61
-43.16
-49.89
-56.01
-60.38
-61.86
-59.72
-53.94
-45.24
-34.80
-23.91
-13.59
-4.40
3.45
9.98
15.28
19.37
22.25
23.96
24.75
25.00
25.20
25.73
26.68
27.89
29.01
29.71
29.81
29.41
28.75
28.09
27.56
27.06
26.36
25.12
23.12
20.26
16.61
12.39
7.92
3.51
-0.60
-4.32
-7.73
-10.96
-14.21
-17.73
-21.80
-26.76
-32.91
-40.19
-47.96
-54.98
-59.60
-60.39
-56.68
-48.94
-38.50
-27.07
-16.07
-6.25
2.18
9.36
15.30
19.86
22.89
24.40
24.73
24.49
24.23
24.31
24.81
25.57
26.35
26.97
27.35
27.51
27.52
27.44
27.23
26.74
25.76
24.13
21.81
18.98
15.92
12.92
10.09
7.28
4.20
0.58
-3.65
-8.28
-13.00
-17.60
-22.19
-27.25
-33.36
-40.88
-49.61
-58.61
-66.39
-71.31
-72.14
-68.41
-60.54
-49.67
-37.21
-24.49
-12.47
-1.73
7.45
14.95
20.76
24.99
27.86
29.67
30.75
31.43
31.95
32.54
33.30
34.22
35.11
35.72
35.75
35.12
33.96
32.56
31.21
30.03
28.85
27.32
25.05
21.82
17.69
12.92
7.92
3.03
-1.55
-5.79
-9.80
-13.78
-17.91
-22.42
-27.59
-33.74
-41.06
-49.37
-57.93
-65.45
-70.37
-71.41
-68.01
-60.59
-50.32
-38.72
-27.09
-16.23
-6.47
2.16
9.64
15.90
20.83
24.46
26.94
28.61
29.90
31.12
32.44
33.86
35.22
36.28
36.83
36.72
36.03
34.94
33.68
32.49
31.39
30.28
28.91
27.02
24.41
21.07
17.18
13.06
9.12
5.68
2.89
0.68
-1.21
-3.16
-5.58
-8.81
-13.10
-18.37
-24.08
-29.20
-32.36
-32.19
-27.78
-19.00
-6.61
8.03
23.39
38.22
51.87
64.28
75.85
87.00
97.86
107.99
116.28
121.26
121.44
115.87
104.42
87.75
67.20
44.51
21.59
0.39
-17.35
-30.38
-38.20
-41.26
-40.84
-38.69
-36.54
-35.64
-36.61
-39.51
-43.97
-49.46
-55.36
-61.12
-66.27
-70.51
-73.75
-76.19
-78.27
-80.61
-83.83
-88.21
-93.48
-98.70
-102.43
-103.13
-99.66
-91.72
-79.89
-65.47
-50.02
-35.00
-21.37
-9.61
0.24
8.29
14.71
19.59
23.01
25.15
26.27
26.78
27.10
27.54
28.21
29.00
29.69
30.07
30.04
29.60
28.77
27.55
25.85
23.54
20.54
16.83
12.54
7.86
3.04
-1.70
-6.20
-10.38
-14.24
-17.88
-21.48
-25.29
-29.57
-34.57
-40.49
-47.43
-55.20
-63.17
-70.22
-74.91
-75.91
-72.48
-64.86
-54.12
-41.94
-29.88
-18.92
-9.39
-1.06
6.31
12.72
17.87
21.43
23.29
23.77
23.50
23.15
23.15
23.56
24.23
24.89
25.39
25.72
25.86
25.80
25.40
24.53
23.13
21.24
18.99
16.46
13.64
10.46
6.85
2.88
-1.18
-5.04
-8.49
-11.58
-14.68
-18.30
-22.95
-28.94
-36.28
-44.61
-53.24
-61.18
-67.21
-70.11
-68.92
-63.37
-53.91
-41.71
-28.21
-14.75
-2.27
8.75
18.05
25.53
31.04
34.60
36.41
36.95
36.89
36.85
37.27
38.33
39.96
41.88
43.75
45.22
46.02
46.02
45.27
43.96
42.30
40.46
38.45
36.14
33.33
29.83
25.56
20.59
15.17
9.64
4.34
-0.50
-4.86
-8.91
-13.07
-17.78
-23.45
-30.20
-37.79
-45.58
-52.54
-57.44
-59.13
-56.89
-50.64
-41.07
-29.43
-17.17
-5.54
4.70
13.23
20.11
25.46
29.40
31.98
33.33
33.72
33.53
33.22
33.17
33.58
34.47
35.70
37.00
38.13
38.88
39.16
38.97
38.36
37.38
36.04
34.25
31.88
28.82
24.99
20.47
15.49
10.30
5.24
0.47
-3.96
-8.20
-12.44
-16.96
-21.98
-27.72
-34.34
-41.89
-50.03
-57.96
-64.30
-67.48
-66.21
-60.01
-49.45
-36.03
-21.74
-8.36
2.92
11.67
18.07
22.55
25.50
27.16
27.69
27.29
26.35
25.37
24.89
25.27
26.55
28.43
30.38
31.80
32.27
31.66
30.12
28.04
25.84
23.83
22.08
20.40
18.44
15.84
12.41
8.19
3.45
-1.45
-6.24
-10.81
-15.23
-19.73
-24.56
-29.99
-36.21
-43.33
-51.11
-58.94
-65.73
-70.10
-70.75
-66.94
-58.80
-47.31
-34.03
-20.53
-8.00
3.01
12.47
20.51
27.22
32.51
36.23
38.33
39.06
38.97
38.70
38.78
39.41
40.45
41.53
