1707223813.00
64.000000
-0.00
-0.00
-0.00
-0.00
-0.00
-0.00
-0.00
-0.00
-0.00
-0.00
0.00
0.01
0.01
-0.00
-0.03
-0.05
-0.05
0.00
0.13
0.36
0.66
1.01
1.37
1.72
2.06
2.40
2.79
3.24
3.80
4.42
5.06
5.66
6.20
6.68
7.15
7.68
8.31
9.14
10.09
11.04
11.88
12.56
13.14
13.76
14.65
15.96
17.91
20.32
22.90
25.38
27.58
29.57
31.68
34.32
37.81
42.54
48.15
54.10
59.83
64.97
69.58
74.14
79.34
85.71
93.76
103.00
112.62
121.73
129.77
136.75
143.30
150.75
157.77
166.64
177.95
191.79
206.97
220.57
228.25
225.36
208.53
176.87
132.76
80.05
23.07
-34.94
-92.44
-149.16
-205.23
-260.37
-313.74
-363.87
-409.83
-450.90
-486.48
-515.70
-537.17
-549.14
-549.85
-538.22
-514.02
-478.44
-433.59
-382.11
-326.62
-269.38
-212.11
-156.07
-102.30
-51.65
-5.11
36.46
72.38
102.40
126.64
145.63
160.06
170.64
178.00
182.53
184.53
184.22
181.87
177.84
172.53
166.36
159.66
152.68
145.58
138.41
131.23
124.08
117.01
110.11
103.44
97.05
90.98
85.24
79.86
74.82
70.15
65.85
61.94
58.40
55.24
52.46
50.07
48.06
46.41
45.13
44.17
43.49
42.99
42.57
42.08
41.35
40.23
38.55
36.19
33.08
29.21
24.64
19.45
13.82
7.96
2.11
-3.50
-8.65
-13.15
-16.88
-19.77
-21.80
-23.00
-23.42
-23.17
-22.36
-21.09
-19.47
-17.59
-15.51
-13.29
-10.96
-8.58
-6.18
-3.80
-1.45
0.87
3.16
5.45
7.76
10.14
12.58
15.06
17.59
20.18
22.86
25.63
28.51
31.55
34.79
38.15
41.59
45.08
48.64
52.31
56.11
60.14
64.48
69.24
74.31
79.61
85.10
90.74
96.50
102.33
108.20
114.10
120.01
125.64
130.71
135.00
138.25
140.21
140.54
138.79
134.33
128.57
122.09
115.29
108.49
101.91
95.72
90.05
84.98
80.54
76.80
73.47
70.33
67.23
64.06
60.79
57.42
54.04
50.78
47.82
45.10
42.64
40.46
38.57
36.97
35.64
34.54
33.64
32.95
32.30
31.59
30.74
29.68
28.37
26.81
25.00
23.02
20.97
18.88
16.81
14.77
12.77
10.79
8.84
6.92
5.11
3.47
2.07
0.93
0.05
-0.66
-1.30
-1.98
-2.77
-3.64
-4.52
-5.32
-6.03
-6.73
-7.61
-8.97
-11.01
-13.82
-17.24
-20.98
-24.68
-28.13
-31.39
-34.79
-38.86
-44.02
-50.43
-57.87
-65.82
-73.68
-81.11
-88.27
-95.78
-104.53
-115.29
-128.36
-143.43
-159.74
-176.36
-192.62
-208.38
-224.01
-240.28
-258.25
-279.04
-303.60
-332.05
-363.04
-393.37
-418.46
-433.56
-435.49
-423.89
-401.44
-372.71
-342.39
-313.65
-287.57
-263.60
-240.58
-217.70
-194.72
-171.70
-148.61
-125.17
-101.08
-76.44
-51.99
-28.89
-8.42
8.59
22.02
32.39
40.56
47.44
53.70
59.70
65.59
71.27
76.54
81.10
84.64
87.00
88.26
88.75
88.83
88.70
88.26
87.13
84.90
81.34
76.57
70.97
65.10
59.43
54.23
49.52
45.12
40.77
36.23
31.35
26.00
20.12
13.66
6.70
-0.49
-7.47
-13.72
-18.98
-23.27
-26.95
-30.29
-33.26
-35.40
-36.09
-34.96
-32.24
-28.87
-26.18
-25.44
-27.39
-32.14
-39.13
-47.46
-56.30
-65.06
-73.48
-81.60
-89.48
-97.05
-104.18
-110.83
-117.01
-122.62
-126.95
-128.60
-125.92
-118.05
-105.74
-91.50
-78.63
-69.65
-65.11
-63.50
-62.44
-60.38
-57.56
-55.79
-56.87
-60.98
-65.91
-67.78
-62.65
-48.30
-24.94
5.10
38.56
72.37
104.38
133.22
157.69
176.39
187.75
190.53
184.66
171.59
154.11
135.44
118.38
104.48
94.10
86.64
81.27
77.25
74.12
71.61
69.42
67.20
64.56
61.28
57.41
53.34
49.72
47.30
46.77
48.54
52.66
58.76
66.23
74.32
82.32
89.59
95.60
100.01
102.63
103.53
102.95
101.27
99.01
96.69
94.88
94.21
95.27
98.45
103.81
111.10
119.94
130.05
141.31
153.40
165.21
174.36
177.32
170.34
150.82
118.58
76.36
29.06
-17.62
-58.86
-91.89
-116.10
-132.51
-142.87
-148.99
-152.28
-153.69
-153.42
-150.70
-143.75
-130.19
-108.14
-77.42
-40.32
-1.31
34.40
62.65
81.73
92.66
98.11
100.85
102.55
103.40
102.51
98.69
91.02
79.24
63.81
45.90
27.15
9.52
-5.24
-15.98
-22.48
-25.28
-25.34
-23.66
-21.13
-18.48
-16.46
-15.73
-16.67
-19.11
-22.45
-25.85
-28.64
-30.68
-32.19
-33.55
-34.94
-36.15
-36.56
-35.51
-32.60
-27.99
-22.32
-16.56
-11.71
-8.39
-6.72
-6.22
-6.11
-5.54
-4.07
-1.84
0.46
1.90
1.78
0.01
-2.91
-6.10
-8.76
-10.53
-11.58
-12.31
-13.16
-14.33
-15.87
-17.76
-20.03
-22.75
-25.96
-29.58
-33.40
-37.14
-40.54
-43.36
-45.38
-46.35
-46.16
-44.80
-42.55
-39.89
-37.36
-35.44
-34.44
-34.61
-36.17
-39.29
-43.96
-49.86
-56.27
-62.26
-66.91
-69.49
-69.54
-66.87
-61.47
-53.61
-43.95
-33.54
-23.66
-15.47
-9.70
-6.58
-5.87
-7.10
-9.67
-13.00
-16.33
-18.77
-19.40
-17.50
-12.81
-5.57
3.47
13.30
22.89
31.46
38.52
43.98
48.03
51.12
53.88
57.06
61.50
67.82
76.19
86.05
96.25
105.27
111.85
115.25
115.30
112.12
105.86
96.55
84.24
69.35
52.71
35.35
18.12
1.40
-14.69
-30.05
-44.11
-55.74
-63.64
-66.88
-65.36
-59.88
-51.88
-42.85
-34.00
-26.13
-19.70
-15.04
-12.33
-11.55
-12.27
-13.73
-15.03
-15.44
-14.78
-13.37
-11.89
-11.03
-11.14
-12.12
-13.55
-14.99
-16.17
-17.14
-18.23
-19.70
-21.59
-23.52
-24.73
-24.32
-21.56
-16.17
-8.52
0.62
10.22
19.30
27.05
32.94
36.68
38.35
38.37
37.45
36.39
35.83
35.90
36.16
35.83
34.08
30.51
25.24
18.78
11.81
4.85
-1.95
-8.69
-15.58
-22.75
-30.12
-37.32
-43.76
-48.65
-51.08
-50.16
-45.31
-36.52
-24.59
-10.97
2.44
13.81
21.74
25.52
25.19
21.40
15.23
7.92
0.81
-4.95
-8.60
-9.92
-9.31
-7.57
-5.62
-4.13
-3.32
-2.93
-2.52
-1.72
-0.54
0.67
1.36
1.02
-0.66
-3.62
-7.57
-11.97
-16.09
-19.12
-20.30
-19.16
-15.70
-10.50
-4.54
1.13
5.73
8.91
10.76
11.58
11.80
11.84
12.06
12.76
14.02
15.66
17.22
18.10
17.73
15.88
12.70
8.68
4.50
0.78
-2.07
-3.92
-5.04
-6.00
-7.44
-9.80
-12.92
-15.91
-17.35
-15.86
-10.80
-2.62
7.19
16.66
24.15
28.95
31.53
33.11
35.09
38.40
43.20
49.01
55.00
60.46
65.03
68.76
72.13
75.95
81.37
89.76
102.52
120.37
142.62
166.54
187.58
200.50
201.17
188.18
163.40
131.26
97.02
65.01
37.55
15.06
-3.06
-17.42
-28.22
-35.41
-39.22
-40.57
-40.87
-41.49
-43.19
-45.84
-48.61
-50.41
-50.52
-48.88
-46.09
-43.12
-40.75
-39.29
-38.36
-37.24
-35.24
-32.15
-28.37
-24.73
-22.15
-21.05
-21.32
-22.36
-23.45
-24.05
-23.93
-23.19
-21.98
-20.38
-18.37
-15.95
-13.16
-10.23
-7.52
-5.33
-3.91
-3.30
-3.37
-3.89
-4.72
-5.79
-7.02
-8.36
-9.57
-10.46
-10.86
-10.87
-10.75
-10.81
-11.22
-11.96
-12.87
-13.71
-14.45
-15.20
-16.21
-17.67
-19.54
-21.55
-23.29
-24.42
-24.68
-24.02
-22.53
-20.46
-18.24
-16.24
-14.84
-14.18
-14.21
-14.66
-15.18
-15.42
-15.23
-14.65
-13.93
-13.33
-13.02
-12.92
-12.82
-12.51
-11.84
-10.89
-9.91
-9.11
-8.65
-8.55
-8.75
-9.25
-10.09
-11.24
-12.50
-13.39
-13.33
-11.93
-9.21
-5.62
-1.84
1.55
4.28
6.36
7.90
8.97
9.47
9.30
8.49
7.30
6.12
5.30
4.98
5.03
5.20
5.23
5.03
4.65
4.24
3.86
3.51
3.06
2.41
1.52
0.56
-0.27
-0.83
-1.18
-1.46
-1.71
-1.76
-1.14
0.61
3.69
7.77
12.17
16.03
18.74
20.20
20.68
20.60
20.14
19.28
17.82
15.81
13.56
11.60
10.32
9.73
9.42
8.86
7.74
6.20
4.73
3.80
3.56
3.70
3.69
3.19
2.18
0.97
-0.21
-1.48
-3.26
-5.93
-9.47
-13.28
-16.36
-17.83
-17.37
-15.30
-12.39
-9.42
-6.85
-4.70
-2.79
-1.01
0.59
1.78
2.35
2.26
1.60
0.64
-0.34
-1.07
-1.33
-1.01
-0.24
0.63
1.11
0.66
-0.96
-3.62
-6.85
-10.08
-12.96
-15.53
-18.09
-20.99
-24.30
-27.74
-30.84
-33.20
-34.66
-35.29
-35.20
-34.41
-32.80
-30.31
-27.06
-23.49
-20.13
-17.46
-15.64
-14.52
-13.75
-13.04
-12.29
-11.52
-10.80
-10.12
-9.38
-8.52
-7.64
-6.93
-6.69
-7.07
-8.00
-9.25
-10.47
-11.47
-12.28
-13.13
-14.27
-15.85
-17.78
-19.83
-21.83
-23.71
-25.53
-27.28
-28.74
-29.52
-29.11
-27.25
-24.04
-20.02
-15.97
-12.69
-10.59
-9.73
-9.82
-10.48
-11.42
-12.59
-14.11
-16.11
-18.63
-21.47
-24.21
-26.39
-27.65
-27.83
-27.03
-25.49
-23.45
-21.09
-18.47
-15.64
-12.70
-9.93
-7.85
-7.00
-7.80
-10.38
-14.36
-18.99
-23.31
-26.38
-27.42
-26.00
-22.07
-15.95
-8.30
0.06
8.26
15.56
21.46
25.70
28.22
29.10
28.53
26.85
24.49
22.01
19.90
18.50
17.93
18.06
18.57
19.07
19.17
18.64
17.45
15.74
13.76
11.73
9.87
8.30
7.08
6.17
5.34
4.28
2.60
0.14
-2.83
-5.48
-6.68
-5.42
-1.28
5.33
13.31
21.32
28.32
33.85
38.02
41.17
43.48
44.84
44.94
43.61
41.10
38.07
35.39
33.67
33.02
33.02
32.95
32.16
30.42
27.93
25.13
22.52
20.33
18.50
16.75
14.68
11.94
8.31
3.84
-1.21
-6.41
-11.27
-15.35
-18.36
-20.15
-20.76
-20.38
-19.39
-18.29
-17.65
-17.86
-19.06
-21.19
-24.00
-27.27
-30.86
-34.67
-38.54
-42.11
-44.86
-46.27
-46.05
-44.23
-41.26
-37.73
-34.02
-30.12
-25.58
-19.71
-11.96
-2.13
9.46
22.02
34.42
45.45
53.89
58.69
59.08
54.91
47.03
37.25
27.93
21.21
18.24
18.86
21.98
26.28
30.83
35.35
39.87
44.26
47.93
50.01
49.71
46.70
41.19
33.79
25.13
15.84
6.46
-2.41
-10.25
-16.73
-21.81
-25.66
-28.51
-30.48
-31.71
-32.40
-32.92
-33.78
-35.29
-37.37
-39.53
-41.02
-41.22
-39.84
-37.01
-33.04
-28.21
-22.71
-16.72
-10.54
-4.70
0.14
3.43
4.90
4.66
3.14
0.99
-1.12
-2.65
-3.45
-3.82
-4.49
-6.42
-10.39
-16.72
-25.05
-34.40
-43.48
-51.06
-56.42
-59.35
-60.20
-59.71
-58.69
-57.78
-57.11
-56.16
-54.04
-49.91
-43.41
-34.92
-25.41
-15.89
-7.13
0.53
6.95
11.92
15.06
16.00
14.64
11.45
7.37
3.41
0.22
-2.12
-3.98
-5.80
-7.68
-9.38
-10.39
-10.38
-9.33
-7.54
-5.42
-3.39
-1.71
-0.65
-0.54
-1.67
-4.06
-7.27
-10.28
-11.79
-10.70
-6.50
0.59
9.72
19.91
30.29
40.26
49.43
57.40
63.70
67.92
69.80
69.42
67.17
63.67
59.55
55.39
51.50
47.96
44.66
41.29
37.54
33.20
28.25
22.88
17.49
12.51
8.28
4.95
2.45
0.49
-1.32
-3.37
-5.99
-9.17
-12.63
-15.78
-17.98
-18.69
-17.69
-15.12
-11.37
-6.97
-2.38
2.01
5.91
9.12
11.50
13.09
14.00
14.50
14.78
14.98
15.06
14.94
14.54
13.78
12.75
11.53
10.30
9.24
8.49
8.07
7.87
7.66
7.16
6.10
4.28
1.60
-1.87
-5.89
-10.08
-13.91
-16.83
-18.49
-18.74
-17.80
-16.02
-13.72
-11.10
-8.21
-5.10
-1.89
1.15
3.68
5.39
6.16
6.05
5.23
4.08
2.99
2.29
2.21
2.78
3.85
5.16
6.43
7.40
7.97
8.07
7.79
7.18
6.30
5.25
4.08
2.85
1.57
0.25
-1.17
-2.76
-4.52
-6.31
-7.84
-8.72
-8.59
-7.30
-4.95
-1.94
1.26
4.26
6.86
9.04
10.87
12.34
13.39
13.84
13.65
12.94
12.00
11.24
10.97
11.31
12.22
13.44
14.63
15.48
15.72
15.23
14.03
12.28
10.19
7.99
5.79
3.59
1.40
-0.80
-2.94
-4.97
-6.82
-8.58
-10.44
-12.50
-14.75
-16.93
-18.58
-19.22
-18.52
-16.43
-13.24
-9.44
-5.58
-2.11
0.75
2.90
4.36
5.14
5.32
5.04
4.61
4.45
4.88
6.04
7.78
9.67
11.32
12.54
13.44
14.31
15.32
16.35
17.12
17.28
16.61
15.22
13.43
11.60
10.03
8.75
7.59
6.25
4.47
2.14
-0.64
-3.58
-6.26
-8.22
-9.13
-8.92
-7.73
-5.92
-3.96
-2.10
-0.41
1.25
3.14
5.44
8.08
10.72
12.83
13.94
13.80
12.49
10.35
7.84
5.41
3.43
2.10
1.48
1.43
1.71
2.08
2.31
2.34
2.21
2.07
2.02
2.08
2.19
2.28
2.24
1.93
1.26
0.13
-1.48
-3.45
-5.53
-7.36
-8.56
-8.94
-8.48
-7.27
-5.55
-3.52
-1.39
0.67
2.53
4.05
5.19
5.98
6.59
7.21
7.91
8.60
9.12
9.20
8.79
8.09
7.45
7.26
7.65
8.49
9.33
9.71
9.40
8.44
7.26
6.28
5.75
5.58
5.43
4.91
3.76
2.07
0.14
-1.62
-2.96
-3.87
-4.53
-5.09
-5.65
-6.25
-6.92
-7.83
-9.21
-11.19
-13.58
-15.85
-17.30
-17.32
-15.75
-12.89
-9.42
-6.08
-3.36
-1.36
0.04
1.10
2.02
2.96
3.98
5.10
6.28
7.44
8.44
9.14
9.41
9.19
8.47
7.36
6.03
4.77
3.80
3.18
2.80
2.37
1.64
0.61
-0.54
-1.54
-2.16
-2.38
-2.39
-2.44
-2.69
-3.18
-3.92
-4.90
-6.18
-7.79
-9.58
-11.26
-12.38
-12.67
-12.04
-10.63
-8.77
-6.82
-4.99
-3.34
-1.80
-0.18
1.53
3.28
4.82
5.90
6.41
6.40
6.07
5.69
5.43
5.23
4.95
4.52
4.00
3.62
3.58
3.88
4.30
4.49
4.25
3.58
2.78
2.17
1.93
1.95
1.93
1.59
0.85
-0.21
-1.41
-2.57
-3.72
-4.98
-6.49
-8.35
-10.52
-12.77
-14.90
-16.70
-17.98
-18.63
-18.45
-17.33
-15.15
-11.97
-8.04
-3.82
0.10
3.22
5.22
6.13
6.25
6.07
6.02
6.37
7.17
8.21
9.22
9.89
10.08
9.81
9.20
8.48
7.84
7.42
7.25
7.22
7.17
6.85
6.07
4.73
2.92
0.90
-1.07
-2.84
-4.35
-5.66
-6.82
-7.80
-8.58
-9.18
-9.78
-10.68
-12.18
-14.32
-16.83
-19.09
-20.36
-20.02
-17.87
-14.21
-9.76
-5.42
-1.96
0.24
1.27
1.62
1.86
2.48
3.66
5.34
7.31
9.37
11.31
12.95
14.10
14.61
14.45
13.84
13.10
12.51
12.08
11.55
10.51
8.73
6.33
3.69
1.32
-0.51
-1.87
-2.97
-4.08
-5.20
-6.19
-6.90
-7.34
-7.74
-8.43
-9.69
-11.58
-13.90
-16.26
-18.25
-19.53
-19.87
-19.13
-17.42
-14.94
-12.06
-9.13
-6.40
-3.85
-1.36
1.17
3.72
5.98
7.59
8.30
8.10
7.36
6.52
5.88
5.48
5.03
4.19
2.77
0.86
-1.19
-2.96
-4.16
-4.85
-5.38
-6.30
-8.14
-11.22
-15.44
-20.41
-25.61
-30.65
-35.45
-40.25
-45.42
-51.25
-57.76
-64.67
-71.57
-78.09
-84.14
-89.90
-95.74
-102.18
-109.74
-118.89
-129.85
-142.39
-155.67
-167.98
-176.85
-179.26
-172.20
-153.28
-121.19
-75.88
-18.63
48.09
120.58
193.93
262.19
319.04
358.93
378.50
377.54
359.18
328.89
292.88
256.22
221.89
190.66
162.02
135.15
109.66
85.80
64.04
44.76
27.91
13.22
0.38
-10.82
-20.38
-28.32
-34.77
-39.98
-44.25
-47.87
-50.94
-53.48
-55.36
-56.43
-56.53
-55.58
-53.71
-51.17
-48.39
-45.77
-43.62
-42.02
-40.91
-40.00
-38.92
-37.40
-35.33
-32.88
-30.41
-28.28
-26.66
-25.44
-24.26
-22.79
-20.87
-18.67
-16.56
-14.91
-13.93
-13.56
-13.57
-13.72
-13.79
-13.75
-13.67
-13.69
-13.85
-14.05
-13.97
-13.18
-11.44
-8.84
-5.87
-3.17
-1.32
-0.49
-0.43
-0.63
-0.64
-0.27
0.32
0.76
0.75
0.16
-0.91
-2.23
-3.51
-4.55
-5.21
-5.47
-5.44
-5.42
-5.76
-6.74
-8.43
-10.58
-12.67
-14.17
-14.77
-14.55
-13.92
-13.41
-13.47
-14.25
-15.73
-17.74
-20.13
-22.66
-25.04
-26.85
-27.71
-27.52
-26.46
-24.98
-23.57
-22.52
-21.74
-20.92
-19.80
-18.47
-17.46
-17.42
-18.74
-21.26
-24.23
-26.55
-27.26
-25.77
-21.82
-15.53
-7.22
2.50
12.69
22.01
29.02
32.56
32.17
28.35
22.18
14.99
7.81
1.20
-4.74
-10.14
-15.17
-19.94
-24.42
-28.46
-31.68
-33.63
-33.88
-32.16
-28.51
-23.36
-17.27
-10.82
-4.49
1.42
6.69
11.20
14.90
17.87
20.25
22.16
23.69
24.79
25.45
25.75
25.84
25.92
26.05
26.06
25.64
24.56
22.82
20.66
18.45
16.41
14.60
12.86
11.06
9.18
7.30
5.49
3.73
1.82
-0.54
-3.58
-7.27
-11.32
-15.19
-18.35
-20.30
-20.80
-19.75
-17.25
-13.51
-8.92
-3.95
0.89
5.27
9.04
12.26
15.09
17.50
19.30
20.23
20.16
19.33
18.26
17.57
17.53
18.00
18.41
18.19
17.00
14.89
12.26
9.57
7.10
4.88
2.73
0.32
-2.67
-6.39
-10.71
-15.21
-19.34
-22.66
-25.16
-27.37
-30.24
-34.69
-41.17
-49.26
-57.61
-64.38
-67.89
-67.35
-63.27
-57.39
-52.05
-49.16
-49.34
-51.77
-54.56
-55.80
-54.54
-51.39
-48.49
-48.94
-55.65
-70.20
-91.37
-114.61
-132.06
-134.33
-113.23
-64.86
8.15
96.50
186.44
263.61
317.09
342.08
340.41
318.78
285.77
248.98
213.23
180.34
150.26
122.46
96.83
73.65
52.99
34.03
15.28
-4.62
-25.86
-46.94
-65.09
-77.58
-82.97
-81.87
-76.47
-69.68
-63.83
-59.96
-57.81
-56.28
-54.14
-50.65
-45.84
-40.39
-35.33
-31.52
-29.34
-28.60
-28.66
-28.75
-28.29
-27.07
-25.19
-22.97
-20.75
-18.79
-17.22
-16.03
-15.14
-14.46
-13.89
-13.50
-13.46
-14.00
-15.19
-16.97
-19.12
-21.38
-23.63
-25.93
-28.46
-31.26
-34.00
-36.08
-36.77
-35.55
-32.37
-27.63
-21.92
-15.77
-9.47
-3.12
3.14
8.98
13.99
17.85
20.43
21.97
22.76
23.13
23.19
22.96
22.51
22.00
21.69
21.73
22.05
22.30
22.08
21.04
19.09
16.38
13.19
9.77
6.30
2.88
-0.54
-3.98
-7.47
-10.98
-14.47
-17.95
-21.39
-24.73
-27.64
-29.63
-30.14
-28.68
-25.17
-19.92
-13.61
-7.03
-0.84
4.53
9.01
12.65
15.64
18.12
20.32
22.39
24.36
26.08
27.30
27.74
27.30
26.18
24.85
23.80
23.40
23.68
24.30
24.72
24.45
23.16
20.83
17.68
13.98
10.07
6.11
2.20
-1.67
-5.55
-9.48
-13.48
-17.42
-21.08
-24.05
-25.89
-26.14
-24.55
-21.17
-16.40
-10.87
-5.29
-0.26
3.83
6.86
8.93
10.22
10.91
11.11
10.95
10.56
10.20
10.08
10.35
10.94
11.53
11.65
10.91
9.19
6.73
3.99
1.51
-0.42
-1.88
-3.17
-4.66
-6.64
-9.09
-11.88
-14.85
-17.79
-20.56
-22.89
-24.43
-24.77
-23.58
-20.76
-16.43
-10.99
-4.90
1.37
7.43
12.88
17.41
20.68
22.49
22.87
22.05
20.55
18.95
17.70
16.99
16.69
16.42
15.71
14.25
11.96
9.06
5.88
2.83
0.19
-1.92
-3.62
-5.20
-6.97
-9.23
-12.03
-15.33
-18.95
-22.79
-26.77
-30.73
-34.25
-36.56
-36.75
-34.14
-28.69
-21.22
-13.06
-5.62
0.22
4.37
7.38
9.99
12.77
15.80
18.69
20.76
21.38
20.10
16.93
12.36
7.29
2.83
-0.05
-1.00
-0.51
0.10
-0.79
-4.45
-11.04
-19.34
-27.27
-32.70
-34.59
-33.57
-31.79
-32.04
-36.50
-45.67
-58.13
-71.02
-80.98
-85.25
-82.42
-72.98
-59.50
-46.38
-38.91
-41.17
-53.76
-72.15
-87.08
-87.47
-64.72
-16.56
51.49
127.76
198.40
251.92
282.39
290.13
280.17
259.28
233.41
206.12
178.62
150.80
122.54
94.56
68.28
45.01
25.05
7.40
-9.54
-26.88
-44.27
-60.03
-72.08
-79.23
-81.97
-82.19
-82.35
-84.30
-88.62
-94.50
-100.17
-103.61
-103.30
-98.72
-90.47
-80.06
-69.22
-59.28
-50.64
-42.85
-35.03
-26.56
-17.49
-8.59
-0.97
4.58
7.90
9.45
10.10
10.55
11.08
11.63
11.96
11.85
11.34
10.61
9.86
9.27
8.91
8.68
8.50
8.20
7.59
6.41
4.53
1.94
-1.07
-4.17
-7.10
-9.90
-13.00
-16.94
-22.00
-27.84
-33.52
-37.68
-39.22
-37.64
-33.15
-26.57
-18.75
-10.38
-1.89
6.43
14.20
20.88
26.03
29.44
31.19
31.65
31.18
30.01
28.27
26.08
23.69
21.47
19.69
18.32
17.08
15.44
13.07
9.96
6.45
3.06
0.07
-2.51
-5.02
-7.85
-11.28
-15.42
-20.21
-25.49
-31.01
-36.31
-40.74
-43.41
-43.47
-40.42
-34.40
-26.16
-16.90
-7.77
0.46
7.53
13.58
18.76
23.01
26.02
27.45
27.21
25.60
23.32
21.08
19.31
18.00
16.85
15.44
13.58
11.37
9.05
6.85
4.71
2.40
-0.47
-4.19
-8.74
-13.87
-19.23
-24.56
-29.87
-35.36
-41.17
-47.09
-52.48
-56.25
-57.31
-54.89
-48.85
-39.75
-28.67
-16.91
-5.60
4.45
12.86
19.56
24.62
28.08
30.00
30.54
30.04
29.16
28.57
28.84
30.10
32.08
34.11
35.50
35.74
34.66
32.39
29.23
25.55
21.67
17.88
14.32
11.03
7.83
4.51
0.86
-3.13
-7.13
-10.52
-12.48
-12.21
-9.19
-3.39
4.70
14.19
24.01
33.14
40.86
46.84
51.19
54.24
56.38
57.83
58.62
58.58
57.60
55.68
53.09
50.24
47.37
44.43
41.07
36.83
31.53
25.40
18.98
12.83
7.26
2.25
-2.32
-6.54
-10.39
-13.79
-16.79
-19.63
-22.70
-26.23
-30.05
-33.57
-35.98
-36.53
-34.76
-30.59
-24.35
-16.72
-8.75
-1.69
3.32
5.64
5.36
3.30
0.70
-1.29
-1.85
-0.82
1.55
4.79
8.54
12.60
16.92
21.37
25.67
29.39
32.05
33.35
33.27
32.09
30.28
28.28
26.39
24.68
23.11
21.72
20.59
19.88
19.64
19.76
20.02
20.24
20.36
20.60
21.22
22.33
23.65
24.56
24.36
22.60
19.36
15.12
10.44
5.56
0.35
-5.48
-11.95
-18.56
-24.38
-28.49
-30.43
-30.37
-28.96
-26.94
-24.81
-22.73
-20.80
-19.24
-18.46
-18.89
-20.71
-23.71
-27.34
-30.97
-34.08
-36.47
-38.11
-39.05
-39.27
-38.74
-37.45
-35.63
-33.73
-32.24
-31.49
-31.43
-31.68
-31.79
-31.48
-30.84
-30.19
-29.95
-30.40
-31.60
-33.49
-35.93
-38.70
-41.45
-43.68
-44.96
-45.25
-45.14
-45.74
-48.18
-53.02
-59.78
-67.14
-73.43
-77.35
-78.30
-76.29
-71.66
-64.72
-55.74
-45.02
-33.12
-20.78
-8.78
2.56
13.39
24.29
35.60
47.10
57.83
66.32
71.23
71.81
68.20
61.31
52.60
43.68
36.25
31.80
31.46
35.55
43.21
52.25
59.63
62.34
58.48
48.02
32.72
15.41
-1.17
-15.27
-26.36
-34.83
-41.15
-45.36
-47.03
-45.54
-40.80
-33.43
-24.77
-16.29
-9.06
-3.39
1.09
5.06
9.04
13.07
16.79
19.68
21.43
22.09
22.07
21.91
22.01
22.52
23.25
23.84
23.96
23.45
22.34
20.89
19.33
17.78
16.10
13.93
10.83
6.50
0.99
-5.20
-11.14
-15.79
-18.26
-18.04
-15.03
-9.50
-2.00
6.77
15.97
24.72
32.21
37.82
41.33
42.84
42.66
41.13
38.52
35.05
30.95
26.60
22.41
18.74
15.70
13.12
10.66
8.06
5.21
2.29
-0.52
-3.11
-5.56
-8.17
-11.26
-15.10
-19.82
-25.29
-31.15
-36.74
-41.24
-43.76
-43.60
-40.47
-34.60
-26.79
-18.11
-9.62
-2.06
4.15
8.84
12.01
13.60
13.69
12.48
10.44
8.23
6.43
5.34
4.83
4.40
3.50
1.71
-1.02
-4.48
-8.27
-12.05
-15.57
-18.83
-21.97
-25.20
-28.70
-32.51
-36.38
-39.82
-42.23
-43.01
-41.84
-38.79
-34.18
-28.46
-22.00
-15.03
-7.73
-0.49
6.00
10.82
13.14
12.61
9.56
4.98
0.08
-4.10
-7.02
-8.79
-9.80
-10.48
-10.96
-11.04
-10.40
-8.78
-6.19
-2.97
0.18
2.33
2.37
-0.61
-7.02
-16.30
-26.84
-36.19
-41.73
-41.58
-35.14
-23.37
-8.32
7.64
22.53
35.22
45.53
53.84
60.76
66.74
71.91
76.09
78.86
79.70
78.26
74.50
68.66
61.27
52.85
43.91
34.92
26.44
19.28
14.26
11.95
12.18
13.93
15.43
14.82
10.74
2.90
-7.78
-19.49
-29.97
-37.25
-39.99
-37.92
-31.76
-23.00
-13.51
-5.07
0.91
3.60
2.74
-1.41
-8.17
-16.53
-25.24
-33.12
-39.27
-43.34
-45.56
-46.56
-47.14
-47.84
-48.89
-50.11
-51.15
-51.63
-51.36
-50.38
-48.97
-47.60
-46.90
-47.52
-49.94
-54.15
-59.43
-64.45
-67.62
-67.72
-64.29
-57.62
-48.50
-37.70
-25.73
-12.84
0.68
14.31
27.21
38.51
47.62
54.41
59.23
62.67
65.39
67.89
70.45
73.14
75.80
78.10
79.66
80.15
79.39
77.45
74.50
70.88
66.88
62.69
58.29
53.34
47.24
39.41
29.57
17.93
5.32
-6.99
-17.64
-25.45
-29.61
-29.72
-25.88
-18.63
-9.08
1.26
10.89
18.67
24.18
27.68
29.79
31.07
31.72
31.64
30.74
29.11
27.15
25.26
23.60
22.02
20.20
17.95
15.39
12.85
10.58
8.56
6.52
4.07
0.95
-2.87
-7.30
-12.27
-17.84
-23.98
-30.34
-36.07
-39.90
-40.66
-37.66
-31.14
-22.05
-11.84
-1.90
6.82
13.89
19.29
23.24
25.92
27.50
28.07
27.79
26.97
25.96
25.17
24.75
24.54
24.04
22.60
19.75
15.51
10.32
4.87
-0.32
-5.17
-9.93
-15.04
-20.85
-27.48
-34.78
-42.40
-49.81
-56.41
-61.40
-64.05
-63.85
-60.79
-55.37
-48.57
-41.42
-34.84
-29.35
-25.12
-21.98
-19.52
-17.26
-14.74
-11.70
-8.18
-4.49
-1.04
1.76
3.71
4.75
4.95
4.42
3.24
1.57
-0.34
-2.15
-3.68
-5.04
-6.73
-9.41
-13.62
-19.38
-25.97
-32.13
-36.40
-37.69
-35.60
-30.47
-23.13
-14.51
-5.41
3.65
12.34
20.32
27.21
32.56
35.98
37.46
37.33
36.25
34.99
34.19
34.12
34.72
35.71
36.73
37.55
37.96
37.73
36.56
34.03
29.95
24.40
17.79
10.72
3.74
-2.79
-8.73
-13.93
-18.13
-20.94
-22.00
-21.14
-18.50
-14.40
-9.29
-3.56
2.36
8.02
12.98
16.90
19.75
21.85
23.78
26.00
28.66
31.37
33.38
33.97
32.79
30.02
26.26
22.14
18.02
13.87
9.51
4.78
-0.20
-5.14
-9.72
-13.70
-16.92
-19.07
-19.54
-17.47
-12.15
-3.54
7.45
19.16
29.71
37.72
42.78
45.38
46.47
46.92
47.15
47.03
46.19
44.33
41.36
37.53
33.19
28.66
24.09
19.42
14.46
8.96
2.70
-4.33
-11.87
-19.45
-26.50
-32.62
-37.65
-41.72
-45.15
-48.24
-51.21
-54.22
-57.29
-60.30
-62.93
-64.65
-64.90
-63.25
-59.54
-54.03
-47.21
-39.65
-31.81
-23.95
-16.24
-8.88
-2.16
3.57
8.04
11.18
13.16
14.37
15.19
15.94
16.75
17.65
18.56
19.46
20.38
21.31
22.16
22.68
22.64
21.89
20.48
18.68
16.84
15.25
13.97
12.82
11.44
9.47
6.73
3.54
0.79
-0.21
1.98
8.31
18.90
32.87
48.59
64.04
77.45
87.45
93.21
94.32
90.67
82.37
69.91
54.12
36.35
18.32
2.06
-10.20
-16.27
-14.41
-3.83
14.83
39.35
66.33
91.95
113.02
127.67
135.65
137.91
135.84
130.71
123.28
113.81
102.41
89.22
74.53
58.77
42.43
26.11
10.48
-3.61
-15.26
-23.72
-28.53
-29.66
-27.62
-23.32
-17.97
-12.75
-8.64
-6.10
-5.01
-4.77
-4.58
-3.68
-1.64
1.57
5.60
9.81
13.36
15.41
15.14
11.97
5.66
-3.56
-15.14
-28.37
-42.49
-56.92
-71.17
-84.84
-97.47
-108.48
-117.18
-122.95
-125.56
-125.26
-122.87
-119.47
-115.96
-112.69
-109.30
-105.03
-99.02
-90.98
-81.39
-71.34
-62.13
-54.75
-49.53
-46.21
-44.21
-43.03
-42.50
-42.72
-43.79
-45.60
-47.62
-49.17
-49.70
-49.19
-48.16
-47.44
-47.79
-49.55
-52.50
-56.07
-59.64
-62.80
-65.35
-67.24
-68.34
-68.43
-67.34
-65.17
-62.37
-59.68
-57.76
-56.91
-56.80
-56.54
-55.02
-51.33
-45.13
-36.65
-26.69
-16.22
-6.11
3.04
10.96
17.63
23.13
27.50
30.75
32.88
33.97
34.22
33.92
33.38
32.78
32.15
31.43
30.53
29.41
28.16
26.87
25.61
24.43
23.32
22.29
21.37
20.57
19.84
19.02
17.89
16.30
14.31
12.27
10.72
10.30
11.54
14.65
19.48
25.51
31.93
37.91
42.72
45.86
47.07
46.27
43.54
39.11
33.42
27.17
21.22
16.31
12.84
10.65
9.16
7.66
5.72
3.40
1.16
-0.50
-1.48
-2.23
-3.62
-6.41
-10.74
-15.90
-20.60
-23.56
-24.05
-22.19
-18.63
-14.18
-9.36
-4.28
1.27
7.50
14.37
21.69
29.05
36.05
42.15
46.71
48.92
48.12
44.10
37.33
28.90
20.21
12.45
6.27
1.65
-1.98
-5.42
-9.45
-14.53
-20.85
-28.21
-36.21
-44.37
-52.25
-59.56
-66.21
-72.05
-76.83
-80.03
-80.97
-78.95
-73.51
-64.74
-53.28
-40.22
-26.94
-14.76
-4.54
3.35
9.15
13.30
16.26
18.18
18.91
18.25
16.08
12.67
8.54
4.36
0.68
-2.08
-3.68
-4.02
-3.11
-1.31
0.60
1.46
-0.02
-4.77
-13.07
-24.45
-38.08
-53.05
-68.82
-84.97
-101.05
-115.94
-127.79
-134.18
-132.64
-121.37
-99.63
-67.98
-28.29
16.55
62.88
106.64
143.87
171.29
186.89
190.47
183.67
169.64
152.23
134.99
120.24
108.68
99.53
91.17
82.07
71.49
59.70
47.78
36.85
27.57
19.88
13.25
7.20
1.87
-1.88
-2.88
-0.26
5.86
14.26
23.03
30.30
34.95
36.92
37.00
36.20
35.12
33.85
31.92
28.72
23.85
17.23
9.10
-0.27
-10.70
-22.24
-35.10
-49.32
-64.54
-79.97
-94.69
-107.90
-119.40
-129.53
-138.94
-148.16
-157.21
-165.49
-171.88
-175.26
-174.93
-170.92
-163.92
-154.88
-144.60
-133.40
-121.14
-107.53
-92.64
-77.15
-62.30
-49.38
-39.24
-31.86
-26.29
-21.06
-14.60
-5.67
6.11
19.89
33.37
43.07
45.06
36.38
16.24
-13.27
-47.33
-79.49
-103.43
-114.51
-110.80
-93.22
-64.84
-29.87
7.34
43.07
74.41
99.30
116.43
125.28
126.21
120.51
110.18
97.47
84.19
71.31
59.05
47.33
36.22
26.28
18.38
13.22
10.95
10.98
12.14
13.01
12.37
9.45
4.02
-3.63
-12.87
-22.85
-32.62
-41.18
-47.62
-50.99
-50.59
-45.95
-36.85
-23.44
-6.15
14.25
36.63
59.44
80.74
98.58
111.45
118.65
120.44
117.62
111.05
101.14
87.90
71.27
51.62
29.80
6.88
-16.21
-39.05
-61.49
-83.40
-104.40
-123.95
-141.69
-157.69
-172.33
-185.83
-197.79
-207.07
-212.19
-211.92
-205.81
-194.21
-177.86
-157.45
-133.43
-106.36
-77.12
-47.15
-18.12
8.60
32.43
53.77
73.72
93.28
112.80
131.76
148.94
163.04
173.33
179.84
183.34
184.89
185.35
185.12
184.17
182.20
178.98
174.38
168.35
160.91
152.07
142.06
131.42
121.11
112.24
105.81
102.34
101.78
103.54
106.77
110.60
114.37
117.64
120.11
121.46
121.23
118.94
114.31
107.56
99.65
92.09
86.37
83.36
82.77
83.13
82.29
78.13
69.18
54.77
34.84
9.77
-19.77
-52.48
-86.38
-119.06
-148.25
-172.66
-192.30
-208.09
-221.08
-231.48
-238.29
-239.66
-233.70
-219.40
-197.11
-168.40
-135.58
-101.15
-67.43
-36.48
-9.81
11.73
28.04
39.51
46.76
50.29
50.44
47.69
42.88
37.30
32.21
28.48
26.15
24.62
23.03
20.64
17.26
13.06
8.52
4.25
0.95
-0.48
0.79
5.27
12.59
21.44
29.81
35.62
37.57
35.56
30.83
25.38
21.30
19.97
21.70
25.76
30.94
36.16
40.78
44.58
47.33
48.57
47.53
43.48
36.24
26.38
15.19
4.13
-5.61
-13.58
-20.00
-25.46
-30.60
-35.77
-40.91
-45.60
-49.30
-51.59
-52.32
-51.73
-50.39
-48.99
-48.12
-48.15
-49.20
-51.26
-54.15
-57.53
-60.86
-63.33
-64.02
-62.21
-57.60
-50.43
-41.42
-31.54
-21.66
-12.48
-4.43
2.24
7.45
11.26
13.85
15.48
16.37
16.69
16.54
15.99
15.29
14.76
14.68
15.10
15.63
15.59
14.31
11.41
7.04
1.84
-3.52
-8.53
-13.17
-17.74
-22.62
-28.08
-34.04
-40.12
-45.76
-50.30
-53.04
-53.19
-50.02
-43.01
-32.18
-18.24
-2.52
13.29
27.61
39.42
48.34
54.58
58.55
60.64
61.07
60.04
57.91
55.25
52.84
51.27
50.81
51.25
52.03
52.55
52.28
50.94
48.44
44.78
40.07
34.45
28.14
21.46
14.66
7.96
1.35
-5.28
-12.10
-19.26
-26.80
-34.54
-42.01
-48.43
-52.82
-54.30
-52.38
-47.22
-39.63
-30.81
-22.08
-14.48
-8.61
-4.65
-2.45
-1.68
-2.00
-3.02
-4.44
-6.07
-7.81
-9.63
-11.37
-12.71
-13.11
-12.17
-9.88
-6.76
-3.79
-1.98
-1.98
-3.82
-6.86
-10.10
-12.61
-13.84
-13.73
-12.83
-12.12
-12.84
-16.27
-23.25
-33.87
-47.08
-60.73
-71.94
-78.04
-77.47
-70.46
-58.99
-46.00
-34.30
-25.52
-19.84
-16.33
-13.91
-11.98
-10.80
-11.09
-13.29
-17.06
-21.00
-23.17
-21.97
-17.04
-9.59
-2.22
1.95
0.65
-6.80
-19.10
-33.70
-47.94
-60.10
-69.67
-76.82
-81.63
-83.60
-82.24
-77.67
-71.01
-63.62
-55.92
-46.48
-32.46
-11.38
16.77
48.40
77.17
96.45
102.06
93.84
75.52
53.18
33.17
20.41
17.45
24.17
38.04
54.98
70.51
81.02
84.77
81.80
73.40
61.22
46.73
31.14
15.83
2.33
-8.25
-16.16
-23.71
-34.76
-52.97
-79.80
-113.10
-147.38
-175.65
-192.04
-193.71
-181.39
-158.20
-127.81
-93.00
-55.36
-16.09
22.99
59.05
88.83
109.74
120.91
123.27
119.02
110.71
100.44
89.61
79.14
69.87
62.67
58.32
57.15
58.60
61.29
63.41
63.47
60.85
56.10
50.53
45.58
42.11
40.07
38.52
36.30
32.52
27.18
21.30
16.69
15.43
19.27
29.08
44.57
64.38
86.36
108.13
127.65
143.44
154.76
161.28
163.00
160.13
153.16
142.88
130.37
116.86
103.46
90.93
79.54
68.93
58.23
46.39
32.46
16.02
-2.68
-22.81
-43.38
-63.56
-82.82
-100.80
-117.12
-131.25
-142.58
-150.67
-155.34
-156.42
-153.49
-145.68
-132.07
-112.31
-87.29
-59.21
-31.06
-5.60
15.51
32.02
44.61
54.30
61.75
67.22
70.71
72.15
71.50
68.64
63.38
55.73
46.18
35.89
26.52
19.54
15.52
13.73
12.45
9.71
4.17
-4.38
-15.13
-26.77
-38.23
-48.91
-58.63
-67.22
-74.21
-78.79
-79.98
-77.22
-70.66
-61.24
-50.46
-39.89
-30.66
-23.19
-17.24
-12.21
-7.58
-3.19
0.67
3.50
4.97
5.06
4.19
2.94
1.83
0.98
0.17
-1.08
-3.25
-6.57
-10.97
-16.04
-21.33
-26.42
-31.12
-35.56
-40.08
-45.20
-51.27
-58.43
-66.35
-74.31
-81.28
-86.13
-87.84
-85.77
-79.78
-70.28
-58.04
-43.96
-28.87
-13.45
1.70
15.90
28.34
38.31
45.41
49.76
52.09
53.42
54.68
56.35
58.34
60.20
61.40
61.66
61.06
60.03
59.18
59.02
59.77
61.21
62.69
63.31
62.22
58.90
53.29
45.73
36.82
27.35
18.24
10.54
5.39
3.70
5.95
11.92
20.77
31.36
42.58
53.68
64.33
74.36
83.59
91.73
98.42
103.49
106.92
108.79
109.11
107.74
104.42
99.16
92.37
84.95
78.01
72.43
68.51
65.89
63.75
61.30
58.09
54.13
49.80
45.54
41.81
38.95
37.29
37.16
38.77
42.12
46.76
51.80
56.07
58.45
58.11
54.77
48.61
40.18
30.04
18.68
6.49
-6.17
-18.96
-31.66
-44.26
-57.06
-70.49
-84.73
-99.23
-112.69
-123.45
-130.16
-132.38
-130.74
-126.51
-120.91
-114.63
-107.69
-99.81
-90.81
-80.98
-71.00
-61.67
-53.66
-47.26
-42.45
-39.11
-37.08
-36.30
-36.75
-38.37
-40.87
-43.72
-46.09
-46.98
-45.38
-40.56
-32.28
-20.91
-7.55
6.21
18.53
27.90
33.57
35.74
35.33
33.47
31.04
28.37
25.35
21.79
17.62
12.96
8.14
3.50
-0.65
-4.02
-6.35
-7.67
-8.23
-8.57
-9.29
-10.78
-13.09
-15.96
-19.08
-22.35
-25.92
-30.19
-35.34
-41.07
-46.60
-50.79
-52.53
-51.19
-46.82
-40.08
-31.99
-23.54
-15.32
-7.60
-0.46
5.92
11.10
14.53
15.87
15.22
13.16
10.48
8.03
6.39
5.94
6.81
8.92
11.90
15.04
17.32
17.69
15.41
10.40
3.30
-4.77
-12.69
-19.77
-25.89
-31.29
-36.15
-40.19
-42.60
-42.33
-38.72
-31.90
-22.94
-13.41
-4.79
2.09
7.18
10.99
14.08
16.63
18.50
19.39
19.20
18.22
16.96
15.95
15.48
15.49
15.70
15.78
15.47
14.69
13.48
11.96
10.30
8.68
7.22
5.88
4.42
2.36
-0.83
-5.49
-11.51
-18.21
-24.53
-29.31
-31.71
-31.42
-28.60
-23.75
-17.40
-10.00
-1.89
6.56
14.89
22.52
28.87
33.46
36.02
36.59
35.46
33.22
30.51
27.96
25.97
24.53
23.35
21.95
19.99
17.35
14.25
11.10
8.31
6.04
4.21
2.51
0.49
-2.25
-6.06
-11.12
-17.35
-24.34
-31.24
-36.87
-39.95
-39.49
-35.13
-27.36
-17.32
-6.49
3.72
12.35
18.94
23.46
26.08
27.06
26.68
25.27
23.18
20.83
18.57
16.64
15.08
13.73
12.38
10.79
8.91
6.79
4.55
2.34
0.21
-1.89
-4.17
-6.95
-10.54
-15.16
-20.72
-26.79
-32.47
-36.71
-38.54
-37.38
-33.19
-26.44
-17.87
-8.24
1.69
11.25
19.71
26.37
30.69
32.41
31.72
29.25
25.95
22.76
20.41
19.15
18.77
18.74
18.41
17.27
15.17
12.28
8.99
5.74
2.81
0.33
-1.77
-3.79
-6.18
-9.38
-13.72
-19.13
-24.95
-30.01
-32.97
-32.71
-28.90
-22.01
-13.17
-3.76
5.15
12.87
19.10
23.69
26.50
27.35
26.19
23.29
19.25
14.93
11.09
8.21
6.28
4.90
3.57
1.93
-0.03
-2.02
-3.64
-4.67
-5.16
-5.50
-6.18
-7.57
-9.85
-12.98
-16.74
-20.70
-24.35
-26.90
-27.55
-25.65
-20.97
-13.83
-5.06
4.22
12.89
20.08
25.19
28.03
28.60
27.21
24.34
20.60
16.58
12.76
9.40
6.63
4.45
2.83
1.68
0.84
0.13
-0.60
-1.37
-2.10
-2.76
-3.51
-4.76
-7.07
-10.86
-16.08
-22.14
-27.91
-32.10
-33.75
-32.47
-28.54
-22.72
-15.92
-8.89
-2.06
4.41
10.41
15.67
19.69
21.89
21.90
19.88
16.48
12.67
9.37
7.05
5.65
4.74
3.82
2.64
1.30
0.11
-0.73
-1.21
-1.69
-2.66
-4.58
-7.66
-11.85
-16.82
-22.00
-26.68
-30.00
-31.16
-29.58
-25.12
-18.17
-9.53
-0.21
8.93
17.27
24.48
30.39
34.78
37.40
38.01
36.62
33.66
30.00
26.65
24.36
23.23
22.68
21.70
19.37
15.29
9.76
3.58
-2.36
-7.46
-11.55
-14.83
-17.67
-20.41
-23.31
-26.48
-29.90
-33.26
-35.97
-37.20
-36.12
-32.24
-25.66
-17.13
-7.79
1.07
8.43
13.70
16.72
17.69
16.98
15.02
12.30
9.27
6.37
3.86
1.82
0.11
-1.51
-3.23
-5.12
-7.14
-9.19
-11.23
-13.24
-15.32
-17.61
-20.35
-23.83
-28.19
-33.36
-38.79
-43.47
-46.23
-46.04
-42.43
-35.67
-26.62
-16.46
-6.37
2.74
10.25
15.82
19.35
20.92
20.74
19.23
16.91
14.30
11.87
9.86
8.33
7.11
6.08
5.22
4.66
4.64
5.29
6.50
7.84
8.66
8.31
6.21
2.02
-4.23
-12.16
-20.91
-29.22
-35.61
-38.76
-37.90
-33.21
-25.75
-17.07
-8.68
-1.49
4.36
9.25
13.60
17.46
20.35
21.53
20.49
17.39
13.07
8.72
5.28
3.02
1.59
0.36
-1.14
-2.93
-4.77
-6.42
-7.83
-9.20
-10.79
-12.76
-15.14
-18.03
-21.65
-26.33
-32.21
-38.80
-44.98
-49.17
-49.95
-46.62
-39.46
-29.51
-18.23
-6.96
3.27
11.78
18.12
22.05
23.53
22.78
20.25
16.54
12.28
8.07
4.38
1.56
-0.27
-1.28
-1.91
-2.72
-4.26
-6.81
-10.36
-14.79
-19.94
-25.71
-31.97
-38.49
-44.79
-50.36
-54.78
-57.81
-59.39
-59.48
-57.88
-54.29
-48.30
-39.67
-28.46
-15.20
-0.82
13.45
26.40
37.11
45.22
50.87
54.52
56.56
57.11
56.08
53.36
49.13
44.00
38.75
34.05
30.18
27.10
24.51
22.23
20.24
18.60
17.32
16.28
15.25
14.04
12.54
10.68
8.35
5.24
1.10
-4.06
-9.70
-14.68
-17.49
-16.71
-11.56
-2.29
9.90
23.24
35.98
46.84
55.25
61.10
64.50
65.55
64.35
61.16
56.55
51.46
46.79
43.26
40.92
39.26
37.47
34.70
30.46
24.62
17.43
9.36
1.02
-7.06
-14.40
-20.80
-26.32
-31.28
-36.15
-41.32
-46.98
-53.10
-59.51
-65.93
-72.07
-77.47
-81.51
-83.33
-82.10
-77.29
-68.88
-57.46
-44.05
-29.74
-15.56
-2.24
9.66
19.67
27.38
32.56
35.25
35.91
35.30
34.29
33.57
33.52
34.08
34.97
35.70
35.92
35.44
34.32
32.78
31.06
29.21
27.03
24.16
20.26
15.23
9.40
3.38
-2.19
-6.89
-10.82
-14.42
-18.22
-22.64
-27.92
-34.14
-41.29
-49.18
-57.20
-64.21
-68.74
-69.36
-65.25
-56.54
-44.32
-30.23
-15.94
-2.78
8.50
17.55
24.37
29.05
31.80
32.89
32.63
31.31
29.25
26.74
24.08
21.56
19.40
17.68
16.29
14.98
13.40
11.28
8.45
4.78
0.31
-5.04
-11.34
-18.63
-26.82
-35.76
-45.08
-54.43
-63.57
-72.40
-80.99
-89.70
-98.97
-109.24
-120.80
-133.53
-146.67
-158.92
-168.62
-174.13
-174.35
-168.93
-158.21
-143.01
-124.44
-103.75
-82.31
-61.26
-41.09
-21.32
-0.45
23.39
51.49
83.67
118.00
151.34
180.45
203.02
218.19
226.44
228.83
226.55
220.59
211.77
200.84
188.60
175.72
162.72
149.92
137.39
125.09
112.88
100.62
88.11
75.28
62.25
49.35
37.00
25.62
15.37
6.13
-2.46
-10.83
-19.30
-27.99
-36.69
-44.88
-51.79
-56.61
-58.65
-57.62
-53.63
-47.15
-38.70
-28.83
-18.04
-7.00
3.44
12.34
18.95
22.97
24.61
24.49
23.20
21.20
18.80
16.30
14.14
12.77
12.45
13.06
14.04
14.71
14.57
13.50
11.74
9.63
7.38
5.00
2.35
-0.61
-3.81
-7.03
-10.08
-12.98
-15.94
-19.27
-23.17
-27.72
-32.84
-38.43
-44.40
-50.59
-56.65
-61.88
-65.33
-66.09
-63.72
-58.33
-50.63
-41.44
-31.53
-21.24
-10.79
-0.32
9.67
18.49
25.42
30.13
32.73
33.74
33.73
33.15
32.19
30.93
29.61
28.61
28.33
28.89
29.92
30.68
30.38
28.54
25.32
21.27
17.07
12.98
8.84
4.24
-1.09
-6.96
-12.77
-17.78
-21.53
-24.18
-26.50
-29.49
-34.13
-40.81
-49.26
-58.49
-67.07
-73.45
-76.35
-75.08
-69.65
-60.77
-49.51
-37.07
-24.57
-12.87
-2.54
6.13
13.17
18.85
23.56
27.63
31.22
34.28
36.70
38.45
39.72
40.89
42.35
44.29
46.55
48.69
50.18
50.64
49.92
48.03
44.98
40.65
34.91
27.75
19.41
10.46
1.60
-6.51
-13.50
-19.38
-24.46
-29.28
-34.45
-40.55
-47.99
-56.78
-66.33
-75.41
-82.21
-84.83
-81.79
-72.46
-57.35
-38.02
-16.66
4.34
23.07
38.35
49.89
58.01
63.34
66.49
67.91
67.84
66.50
64.18
61.21
57.90
54.38
50.61
46.42
41.72
36.70
31.76
27.36
23.78
20.89
18.27
15.30
11.59
7.16
2.45
-1.91
-5.43
-8.03
-10.11
-12.30
-15.26
-19.43
-24.88
-31.27
-37.80
-43.32
-46.50
-46.11
-41.51
-32.85
-21.13
-7.93
5.07
16.58
25.91
32.94
37.86
40.94
42.43
42.57
41.62
39.86
37.62
35.20
32.89
30.90
29.34
28.22
27.34
26.39
24.97
22.79
19.68
15.68
10.98
5.87
0.64
-4.38
-8.99
-13.18
-17.15
-21.26
-25.88
-31.16
-36.94
-42.70
-47.79
-51.42
-52.77
-51.18
-46.17
-37.69
-26.28
-13.00
0.76
13.62
24.58
33.12
39.05
42.35
43.09
41.44
37.76
32.76
27.32
22.31
18.23
15.12
12.62
10.17
7.28
3.68
-0.55
-5.15
-9.67
-13.73
-17.16
-20.00
-22.58
-25.26
-28.31
-31.67
-35.08
-38.18
-40.88
-43.43
-46.18
-49.41
-52.92
-55.94
-57.40
-56.29
-52.05
-44.86
-35.52
-25.18
-15.12
-6.36
0.39
4.90
7.20
7.63
6.54
4.31
1.32
-2.06
-5.35
-8.12
-10.16
-11.67
-13.20
-15.48
-18.95
-23.40
-28.10
-31.98
-34.26
-34.79
-34.14
-33.22
-32.89
-33.47
-34.75
-36.18
-37.18
-37.37
-36.58
-34.78
-31.82
-27.44
-21.38
-13.56
-4.36
5.58
15.48
24.81
33.50
41.77
49.75
57.00
62.44
64.61
62.48
55.92
45.94
34.35
23.07
13.59
6.73
2.70
1.29
1.97
3.82
5.60
6.04
4.38
0.60
-4.51
-9.82
-14.53
-18.48
-22.22
-26.58
-32.13
-38.96
-46.58
-54.17
-60.74
-65.29
-66.81
-64.54
-58.16
-48.01
-35.12
-21.04
-7.26
5.11
15.56
24.10
30.91
36.09
39.60
41.36
41.55
40.82
40.05
40.07
41.22
43.10
44.85
45.60
44.95
43.20
41.13
39.51
38.72
38.65
38.89
39.17
39.37
39.40
38.73
36.22
30.40
20.21
5.81
-11.08
-27.60
-40.78
-48.68
-50.96
-48.80
-44.04
-38.30
-32.40
-26.44
-20.25
-13.96
-8.12
-3.46
-0.48
0.84
1.03
0.83
0.75
0.98
1.40
1.72
1.80
1.59
1.18
0.67
0.09
-0.62
-1.58
-2.88
-4.57
-6.65
-9.09
-11.82
-14.81
-18.06
-21.70
-25.93
-30.89
-36.51
-42.18
-46.86
-49.21
-48.19
-43.39
-35.33
-25.25
-14.62
-4.70
3.89
10.99
16.68
20.94
23.57
24.36
23.32
20.87
17.72
14.66
12.21
10.50
9.28
8.15
6.78
5.03
2.97
0.70
-1.72
-4.33
-7.20
-10.31
-13.59
-17.02
-20.71
-25.03
-30.45
-37.18
-44.93
-52.68
-58.90
-61.99
-60.91
-55.47
-46.33
-34.69
-21.80
-8.60
4.34
16.74
28.30
38.53
46.79
52.43
55.11
54.95
52.58
49.02
45.33
42.36
40.48
39.50
38.85
37.80
35.80
32.61
28.41
23.64
18.79
14.24
10.06
6.05
1.85
-2.99
-8.77
-15.66
-23.65
-32.52
-41.86
-50.89
-58.41
-62.96
-63.15
-58.23
-48.47
-35.25
-20.68
-6.90
4.51
12.91
18.48
21.72
23.09
22.86
21.23
18.66
15.89
13.80
12.97
13.46
14.70
15.90
16.34
15.73
14.15
11.91
9.37
6.81
4.43
2.40
0.81
-0.35
-1.22
-2.06
-3.09
-4.45
-6.23
-8.51
-11.41
-14.99
-19.07
-23.04
-25.86
-26.36
-23.62
-17.37
-8.06
3.20
15.06
26.20
35.80
43.49
49.34
53.62
56.59
58.39
59.07
58.71
57.49
55.76
53.87
52.10
50.57
49.24
48.12
47.18
46.47
45.92
45.30
44.26
42.51
39.99
36.84
33.33
29.63
25.76
21.74
17.66
13.79
10.43
7.62
4.87
1.34
-3.82
-10.93
-19.34
-27.55
-33.75
-36.47
-35.21
-30.55
-23.73
-16.23
-9.22
-3.41
0.86
3.40
4.11
2.96
0.16
-3.82
-8.28
-12.52
-16.04
-18.63
-20.24
-21.00
-21.00
-20.43
-19.48
-18.49
-17.74
-17.44
-17.61
-18.08
-18.65
-19.17
-19.64
-20.13
-20.69
-21.17
-21.27
-20.69
-19.32
-17.37
-15.30
-13.63
-12.59
-11.96
-11.11
-9.12
-5.13
1.23
9.69
19.34
28.90
37.15
43.26
47.04
48.82
49.07
48.13
46.02
42.45
37.21
30.24
21.87
12.67
3.38
-5.23
-12.37
-17.25
-19.44
-18.94
-16.46
-13.21
-10.53
-9.37
-10.06
-12.27
-15.35
-18.75
-22.24
-25.83
-29.64
-33.68
-37.86
-42.11
-46.50
-51.17
-56.15
-61.14
-65.43
-68.10
-68.26
-65.36
-59.43
-50.94
-40.71
-29.68
-18.73
-8.55
0.31
7.62
13.32
17.49
20.31
21.99
22.72
22.74
22.28
21.61
20.87
20.01
18.75
16.81
14.05
10.67
7.11
3.87
1.18
-1.06
-3.28
-5.96
-9.36
-13.34
-17.50
-21.21
-24.03
-25.85
-26.93
-27.84
-29.19
-31.30
-33.96
-36.32
-37.13
-35.20
-29.92
-21.45
-10.79
0.74
11.93
21.99
30.56
37.55
42.91
46.54
48.39
48.52
47.26
45.12
42.64
40.27
38.30
36.79
35.63
34.68
33.74
32.70
31.49
29.95
27.90
25.07
21.23
16.35
10.66
4.69
-1.01
-5.99
-10.19
-13.84
-17.40
-21.41
-26.27
-32.08
-38.61
-45.15
-50.61
-53.68
-53.21
-48.62
-40.21
-29.10
-16.94
-5.40
4.34
11.81
17.15
20.88
23.55
25.43
26.59
26.92
26.30
24.79
22.63
20.20
17.95
16.24
15.28
14.97
15.12
15.40
15.55
15.39
14.77
13.55
11.48
8.36
4.14
-0.90
-6.18
-11.02
-14.99
-18.16
-21.12
-24.68
-29.46
-35.39
-41.67
-47.01
-50.09
-49.98
-46.44
-39.87
-31.02
-20.81
-10.10
0.33
9.88
18.04
24.55
29.29
32.36
33.91
34.15
33.34
31.86
30.21
28.90
28.34
28.62
29.47
30.44
30.99
30.81
29.79
28.03
25.71
23.01
20.00
16.68
13.01
8.96
4.53
-0.18
-5.01
-9.81
-14.43
-19.00
-23.82
-29.35
-35.84
-43.12
-50.37
-56.27
-59.35
-58.42
-53.09
-43.91
-32.18
-19.53
-7.36
3.40
12.36
19.46
24.72
28.09
29.51
29.06
27.12
24.38
21.65
19.50
18.08
17.01
15.65
13.43
10.26
6.50
2.86
0.03
-1.61
-2.13
-2.03
-2.03
-2.76
-4.50
-7.11
-10.05
-12.67
-14.52
-15.55
-16.31
-17.63
-20.22
-24.33
-29.56
-35.05
-39.83
-43.06
-44.19
-42.84
-38.75
-31.85
-22.44
-11.37
0.10
10.57
18.95
24.78
28.26
29.93
30.36
29.89
28.69
26.94
24.92
23.01
21.45
20.20
18.94
17.31
15.17
12.69
10.26
8.20
6.60
5.21
3.67
1.70
-0.86
-3.97
-7.54
-11.55
-16.03
-20.94
-26.17
-31.50
-36.56
-40.94
-44.22
-45.88
-45.38
-42.28
-36.43
-28.15
-18.18
-7.59
2.54
11.35
18.43
23.74
27.42
29.65
30.52
30.03
28.28
25.60
22.61
19.99
18.26
17.47
17.29
17.08
16.27
14.59
12.15
9.37
6.63
4.05
1.41
-1.66
-5.48
-10.14
-15.39
-20.91
-26.45
-32.05
-37.82
-43.76
-49.39
-53.72
-55.43
-53.31
-46.93
-36.78
-24.22
-10.94
1.57
12.34
21.08
27.80
32.73
35.97
37.57
37.60
36.25
33.88
31.01
28.18
25.86
24.24
23.23
22.46
21.48
20.01
18.04
15.78
13.50
11.23
8.73
5.63
1.69
-3.10
-8.49
-14.22
-20.13
-26.21
-32.50
-38.85
-44.75
-49.46
-52.13
-52.10
-49.07
-43.23
-35.20
-25.88
-16.20
-6.94
1.35
8.33
13.90
17.97
20.58
21.82
21.91
21.13
19.87
18.42
17.03
15.88
15.06
14.60
14.43
14.34
14.07
13.28
11.76
9.44
6.48
3.13
-0.35
-3.76
-7.01
-10.12
-13.23
-16.55
-20.34
-24.83
-29.99
-35.39
-40.13
-43.00
-42.84
-38.99
-31.56
-21.51
-10.23
0.77
10.37
17.93
23.22
26.24
27.16
26.19
23.73
20.39
16.90
13.93
11.93
10.94
10.71
10.86
10.97
10.73
9.93
8.44
6.22
3.31
-0.13
-3.92
-7.88
-11.86
-15.81
-19.65
-23.31
-26.74
-30.04
-33.38
-37.03
-40.96
-44.67
-47.18
-47.32
-44.30
-37.96
-28.97
-18.51
-7.83
2.04
10.53
17.33
22.28
25.31
26.47
26.12
25.01
23.98
23.68
24.29
25.32
25.77
24.65
21.45
16.61
11.34
7.28
5.90
7.88
12.92
19.84
26.99
32.69
35.69
35.22
31.10
23.70
13.85
2.80
-7.93
-16.78
-22.44
-24.13
-21.81
-16.18
-8.52
-0.38
6.81
12.09
15.21
16.47
16.55
16.03
15.24
14.12
12.43
10.02
7.05
3.92
1.15
-0.95
-2.40
-3.47
-4.52
-5.73
-7.03
-8.25
-9.21
-9.82
-10.10
-10.04
-9.58
-8.64
-7.25
-5.55
-3.73
-1.86
0.26
3.11
7.25
13.12
20.73
29.70
39.37
49.04
58.13
66.29
73.27
78.85
82.75
84.71
84.66
82.90
80.18
77.48
75.64
74.91
74.77
74.11
71.67
66.62
58.90
49.19
38.58
28.14
18.55
9.99
2.33
-4.71
-11.35
-17.76
-24.12
-30.68
-37.72
-45.44
-53.74
-62.04
-69.33
-74.40
-76.17
-74.20
-68.88
-61.27
-52.76
-44.64
-37.65
-32.01
-27.51
-23.82
-20.66
-17.96
-15.80
-14.27
-13.35
-12.89
-12.73
-12.70
-12.73
-12.85
-13.13
-13.58
-14.19
-14.88
-15.59
-16.35
-17.23
-18.31
-19.50
-20.58
-21.32
-21.67
-21.82
-22.21
-23.42
-25.84
-29.52
-34.02
-38.46
-41.68
-42.58
-40.47
-35.23
-27.38
-17.93
-8.07
1.14
8.94
14.94
19.06
21.34
21.97
21.30
19.85
18.21
16.83
15.92
15.38
15.01
14.62
14.20
13.79
13.40
12.91
12.09
10.73
8.78
6.34
3.63
0.77
-2.22
-5.37
-8.64
-11.93
-15.08
-18.07
-21.11
-24.47
-28.31
-32.43
-36.16
-38.53
-38.61
-35.84
-30.27
-22.52
-13.62
-4.64
3.45
10.06
14.88
17.89
19.23
19.11
17.79
15.70
13.37
11.39
10.30
10.31
11.28
12.76
14.18
15.15
15.52
15.33
14.68
13.62
12.11
10.17
7.89
5.40
2.86
0.29
-2.52
-5.85
-9.93
-14.93
-20.71
-26.91
-32.93
-37.96
-41.14
-41.63
-38.91
-32.88
-24.03
-13.32
-1.97
8.74
17.85
24.77
29.30
31.59
31.94
30.70
28.23
24.91
21.17
17.45
14.16
11.58
9.78
8.69
8.10
7.83
7.77
7.87
8.15
8.60
9.13
9.52
9.50
8.76
7.12
4.63
1.39
-2.42
-6.77
-11.62
-16.87
-22.10
-26.46
-28.84
-28.21
-24.13
-16.84
-7.30
3.26
13.73
23.45
32.04
39.34
45.23
49.55
52.31
53.75
54.36
54.79
55.62
57.14
59.25
61.42
62.93
63.12
61.68
58.74
54.83
50.53
46.04
41.05
34.78
26.36
15.25
1.52
-14.10
-30.40
-46.07
-59.90
-70.92
-78.49
-82.30
-82.42
-79.28
-73.69
-66.63
-59.06
-51.66
-44.59
-37.61
-30.28
-22.41
-14.35
-7.05
-1.59
1.25
1.44
-0.21
-2.47
-4.16
-4.66
-4.01
-2.71
-1.42
-0.72
-0.88
-1.95
-3.84
-6.34
-9.12
-11.82
-14.08
-15.77
-17.01
-18.26
-20.05
-22.66
-25.86
-28.69
-29.75
-27.58
-21.29
-11.03
1.99
15.82
28.42
38.23
44.44
46.88
45.80
41.60
34.74
25.88
15.98
6.21
-2.26
-8.71
-13.06
-15.79
-17.69
-19.42
-21.38
-23.73
-26.58
-30.14
-34.61
-39.96
-45.72
-51.06
-54.99
-56.77
-56.19
-53.52
-49.30
-44.03
-38.02
-31.41
-24.36
-17.27
-10.71
-5.43
-2.13
-1.28
-2.92
-6.75
-12.15
-18.56
-25.70
-33.71
-43.13
-54.51
-67.91
-82.46
-96.33
-107.04
-112.26
-110.58
-102.00
-88.02
-71.19
-54.53
-40.91
-32.57
-30.67
-34.99
-43.83
-54.30
-63.05
-67.39
-66.21
-60.36
-51.94
-43.16
-35.06
-27.12
-17.79
-5.63
9.62
26.66
43.12
56.64
65.80
70.55
71.95
71.53
70.49
69.43
68.29
66.76
64.58
61.85
58.97
56.45
54.75
54.20
55.20
58.40
64.59
74.10
85.99
97.33
103.61
100.24
84.66
57.98
25.13
-6.87
-31.49
-45.00
-47.28
-40.93
-29.50
-15.90
-1.77
12.10
25.05
36.18
44.46
49.31
50.79
49.72
47.14
43.93
40.56
37.03
33.07
28.37
22.84
16.69
10.49
4.96
0.65
-2.24
-4.08
-5.66
-7.88
-11.45
-16.67
-23.38
-31.13
-39.43
-47.91
-56.37
-64.54
-71.95
-77.70
-80.65
-79.84
-74.85
-66.17
-55.01
-42.99
-31.53
-21.54
-13.31
-6.81
-1.98
1.17
2.52
2.23
0.76
-1.07
-2.43
-2.79
-2.09
-0.78
0.47
1.01
0.45
-1.22
-3.71
-6.51
-9.13
-11.21
-12.69
-13.80
-15.12
-17.31
-20.99
-26.31
-32.84
-39.46
-44.63
-46.77
-44.74
-38.24
-27.76
-14.53
-0.08
14.16
27.09
38.01
46.53
52.44
55.63
56.26
54.80
52.11
49.24
47.13
46.28
46.58
47.35
47.77
47.18
45.50
43.14
40.79
39.05
38.08
37.60
36.93
35.19
31.58
25.57
17.05
6.52
-4.95
-15.81
-24.39
-29.32
-29.94
-26.39
-19.56
-10.76
-1.29
7.86
16.03
22.83
28.00
31.33
32.64
31.97
29.65
26.30
22.69
19.56
17.38
16.31
16.16
16.49
16.73
16.42
15.33
13.53
11.35
9.23
7.46
6.00
4.51
2.42
-0.78
-5.39
-11.46
-18.70
-26.51
-33.96
-39.78
-42.50
-40.84
-34.18
-22.95
-8.58
6.83
21.21
33.05
41.74
47.41
50.69
52.20
52.37
51.43
49.51
46.79
43.61
40.40
37.55
35.24
33.33
31.41
28.97
25.60
21.30
16.41
11.54
7.20
3.67
0.86
-1.55
-3.93
-6.59
-9.76
-13.65
-18.41
-23.95
-29.75
-34.78
-37.68
-37.15
-32.46
-23.80
-12.23
0.58
12.89
23.41
31.48
37.05
40.35
41.67
41.16
38.96
35.38
31.07
26.91
23.76
22.07
21.71
21.97
22.02
21.24
19.49
17.04
14.25
11.39
8.48
5.35
1.85
-2.08
-6.39
-11.11
-16.33
-22.13
-28.32
-34.28
-38.98
-41.27
-40.21
-35.49
-27.58
-17.57
-6.84
3.33
12.09
19.09
24.26
27.65
29.18
28.76
26.47
22.69
18.21
14.04
11.05
9.65
9.61
10.29
10.89
10.76
9.60
7.38
4.35
0.85
-2.71
-6.02
-8.95
-11.62
-14.35
-17.59
-21.65
-26.51
-31.67
-36.17
-38.77
-38.34
-34.25
-26.55
-16.10
-4.30
7.42
17.94
26.76
33.97
39.86
44.67
48.35
50.68
51.47
50.77
48.97
46.64
44.44
42.96
42.59
43.49
45.59
48.55
51.86
54.88
57.06
57.97
57.35
55.06
51.03
45.32
38.17
30.15
21.99
14.48
8.24
3.63
0.87
0.15
1.61
5.20
10.62
17.18
24.04
30.47
36.04
40.64
44.25
46.68
47.56
46.51
43.53
39.11
34.14
29.51
25.66
22.42
19.18
15.38
10.88
6.17
2.12
-0.46
-1.21
-0.55
0.53
0.69
-1.22
-5.78
-12.78
-21.32
-30.13
-38.03
-44.43
-49.57
-54.37
-60.08
-67.74
-77.73
-89.50
-101.20
-109.83
-111.69
-103.51
-83.75
-53.63
-17.30
19.29
50.26
71.61
82.18
83.31
77.59
67.52
54.87
40.85
26.60
13.58
3.34
-3.18
-6.06
-6.49
-6.18
-6.66
-8.70
-12.11
-16.07
-19.64
-22.37
-24.45
-26.71
-30.11
-35.29
-42.07
-49.46
-56.02
-60.51
-62.39
-62.19
-61.18
-60.82
-62.19
-65.70
-70.97
-77.02
-82.58
-86.25
-86.77
-83.28
-75.60
-64.29
-50.51
-35.59
-20.64
-6.34
7.03
19.33
30.28
39.53
46.75
51.88
55.21
57.24
58.43
59.08
59.35
59.40
59.47
59.77
60.36
60.99
61.11
60.11
57.55
53.29
47.47
40.38
32.43
24.02
15.62
7.68
0.53
-5.81
-11.64
-17.48
-23.73
-30.48
-37.24
-43.11
-46.94
-47.68
-44.63
-37.71
-27.49
-15.16
-2.23
9.77
19.70
26.97
31.58
33.96
34.70
34.30
33.13
31.43
29.33
27.02
24.66
22.40
20.33
18.40
16.48
14.33
11.65
8.11
3.46
-2.35
-9.11
-16.41
-23.68
-30.40
-36.22
-40.94
-44.54
-47.15
-49.03
-50.78
-53.14
-56.82
-61.96
-67.86
-72.96
-75.40
-73.75
-67.61
-57.74
-45.70
-33.18
-21.45
-11.23
-2.90
3.29
7.16
8.67
8.10
6.09
3.40
0.66
-1.77
-3.74
-5.21
-6.10
-6.35
-5.99
-5.16
-4.15
-3.29
-2.85
-3.02
-3.90
-5.56
-7.97
-10.97
-14.23
-17.38
-20.23
-22.87
-25.72
-29.32
-34.05
-39.78
-45.75
-50.68
-53.14
-52.05
-47.01
-38.31
-26.84
-13.67
0.07
13.42
25.45
35.32
42.40
46.45
47.71
46.82
44.53
41.45
37.90
34.05
30.07
26.25
22.90
20.23
18.16
16.38
14.51
12.29
9.66
6.76
3.75
0.71
-2.34
-5.47
-8.78
-12.33
-16.26
-20.77
-26.11
-32.43
-39.66
-47.27
-54.27
-59.41
-61.45
-59.49
-53.37
-43.69
-31.67
-18.81
-6.53
4.22
12.97
19.74
24.83
28.69
31.74
34.26
36.35
38.00
39.21
40.07
40.80
41.64
42.66
43.68
44.25
43.87
42.15
39.02
34.68
29.52
23.98
18.37
12.95
7.93
3.50
-0.31
-3.70
-7.12
-11.13
-16.11
-22.04
-28.31
-33.86
-37.44
-38.03
-35.17
-29.12
-20.73
-11.22
-1.81
6.60
13.52
18.79
22.41
24.36
24.60
23.12
20.23
16.63
13.27
11.09
10.55
11.51
13.26
14.91
15.76
15.65
14.83
13.72
12.66
11.68
10.62
9.16
7.05
4.04
-0.07
-5.63
-12.88
-21.89
-32.26
-43.08
-53.03
-60.72
-65.07
-65.50
-62.11
-55.59
-47.03
-37.68
-28.65
-20.79
-14.58
-10.08
-7.15
-5.54
-4.97
-5.22
-6.09
-7.32
-8.58
-9.47
-9.60
-8.70
-6.71
-3.81
-0.50
2.53
4.55
5.05
3.94
1.60
-1.35
-4.25
-6.80
-9.12
-11.64
-14.87
-19.13
-24.37
-30.17
-35.81
-40.39
-42.90
-42.40
-38.34
-30.75
-20.41
-8.73
2.62
12.23
19.32
23.74
25.89
26.30
25.58
24.23
22.66
21.27
20.24
19.56
18.93
17.97
16.32
13.82
10.47
6.45
1.96
-2.68
-7.07
-10.75
-13.40
-14.99
-15.85
-16.58
-17.75
-19.69
-22.49
-26.01
-30.10
-34.51
-38.73
-41.92
-42.96
-40.78
-34.91
-25.75
-14.43
-2.53
8.53
17.86
25.07
30.16
33.19
34.29
33.63
31.61
28.83
25.92
23.46
21.76
20.89
20.74
21.06
21.47
21.54
20.80
18.98
16.12
12.60
8.94
5.61
2.75
0.11
-2.77
-6.36
-10.96
-16.58
-23.01
-29.82
-36.37
-41.79
-45.07
-45.22
-41.66
-34.39
-24.19
-12.36
-0.41
10.37
19.15
25.60
29.72
31.67
31.62
29.84
26.67
22.67
18.46
14.64
11.68
9.77
8.85
8.61
8.60
8.34
7.48
5.90
3.75
1.30
-1.18
-3.68
-6.46
-10.03
-14.85
-21.12
-28.55
-36.45
-43.80
-49.52
-52.65
-52.55
-48.92
-41.90
-32.12
-20.57
-8.53
2.75
12.30
19.67
24.83
28.01
29.46
29.28
27.60
24.71
21.17
17.79
15.34
14.19
14.11
14.40
14.19
12.87
10.34
6.97
3.35
-0.05
-3.11
-6.09
-9.45
-13.69
-19.09
-25.68
-33.18
-41.00
-48.22
-53.70
-56.22
-54.92
-49.46
-40.27
-28.44
-15.37
-2.42
9.33
19.21
26.92
32.42
35.81
37.39
37.55
36.70
35.17
33.18
30.86
28.41
26.09
24.20
22.87
21.95
20.99
19.44
16.86
13.20
8.81
4.25
-0.04
-3.87
-7.37
-10.90
-14.88
-19.68
-25.47
-32.30
-39.86
-47.53
-54.21
-58.55
-59.22
-55.39
-47.03
-34.96
-20.61
-5.63
8.55
20.92
30.95
38.50
43.65
46.62
47.73
47.45
46.29
44.82
43.51
42.57
41.89
41.12
39.78
37.58
34.57
31.20
28.11
25.71
24.04
22.55
20.49
17.21
12.59
7.10
1.47
-3.62
-7.92
-11.69
-15.49
-19.89
-25.23
-31.65
-39.09
-47.32
-55.76
-63.42
-68.88
-70.59
-67.45
-59.23
-46.79
-31.78
-16.06
-1.17
11.99
23.07
32.04
38.87
43.56
46.19
47.10
46.88
46.23
45.70
45.51
45.54
45.46
45.05
44.28
43.35
42.48
41.79
41.12
40.13
38.44
35.83
32.39
28.43
24.32
20.37
16.64
12.92
8.98
4.59
-0.27
-5.46
-10.73
-15.88
-20.84
-25.70
-30.62
-35.81
-41.45
-47.72
-54.64
-61.86
-68.60
-73.49
-75.01
-71.88
-63.61
-50.82
-35.10
-18.53
-2.97
10.35
21.09
29.44
35.80
40.49
43.55
45.02
45.05
44.08
42.79
41.85
41.58
41.92
42.47
42.76
42.51
41.83
40.97
40.15
39.31
38.06
35.84
32.33
27.67
22.45
17.54
13.58
10.79
8.81
6.96
4.57
1.31
-2.73
-7.23
-11.81
-16.31
-20.69
-25.05
-29.49
-34.17
-39.29
-45.07
-51.56
-58.37
-64.55
-68.64
-69.18
-65.19
-56.59
-44.31
-29.98
-15.43
-2.14
8.96
17.53
23.64
27.60
29.78
30.57
30.33
29.38
28.09
26.76
25.69
25.13
25.13
25.62
26.37
27.16
27.83
28.31
28.60
28.67
28.44
27.76
26.47
24.45
21.71
18.38
14.63
10.68
6.71
2.84
-0.86
-4.42
-7.89
-11.39
-15.01
-18.77
-22.63
-26.58
-30.74
-35.29
-40.50
-46.45
-52.86
-58.95
-63.54
-65.30
-63.13
-56.63
-46.17
-32.88
-18.37
-4.38
7.58
16.44
21.72
23.48
22.45
19.91
17.60
17.40
20.83
28.51
39.88
53.16
65.86
75.55
80.62
80.66
76.49
69.56
61.33
52.83
44.36
35.81
26.96
17.84
8.85
0.62
-6.22
-11.34
-14.81
-17.11
-18.89
-20.80
-23.26
-26.42
-30.29
-34.84
-40.03
-45.70
-51.44
-56.38
-59.43
-59.48
-55.84
-48.58
-38.53
-27.04
-15.49
-4.97
4.01
11.37
17.29
21.99
25.62
28.22
29.86
30.60
30.51
29.67
28.15
25.95
23.11
19.75
16.14
12.69
9.81
7.72
6.43
5.57
4.59
2.94
0.32
-3.18
-7.09
-10.85
-14.05
-16.69
-19.21
-22.22
-26.18
-31.10
-36.48
-41.52
-45.46
-47.88
-48.68
-48.04
-46.22
-43.42
-39.92
-36.12
-32.50
-29.54
-27.45
-26.02
-24.82
-23.42
-21.61
-19.55
-17.53
-15.70
-14.04
-12.34
-10.47
-8.54
-6.91
-5.92
-5.72
-6.18
-6.97
-7.78
-8.57
-9.62
-11.36
-14.18
-18.25
-23.39
-29.12
-34.71
-39.26
-41.85
-41.64
-38.03
-30.85
-20.46
-7.87
5.50
18.09
28.68
36.71
42.39
46.55
50.20
54.12
58.46
62.79
66.23
67.85
67.04
63.76
58.48
51.98
45.11
38.50
32.47
27.04
22.10
17.48
13.06
8.68
4.10
-1.04
-7.12
-14.35
-22.63
-31.43
-39.90
-47.08
-52.02
-54.07
-52.96
-48.83
-42.26
-34.14
-25.45
-17.12
-9.76
-3.61
1.48
5.87
9.86
13.45
16.27
17.76
17.54
15.66
12.72
9.70
7.45
6.30
5.91
5.44
4.11
1.58
-1.89
-5.64
-9.08
-12.13
-15.21
-18.93
-23.73
-29.50
-35.76
-41.91
-47.53
-52.50
-56.78
-60.13
-61.84
-60.96
-56.71
-48.94
-38.39
-26.47
-14.71
-4.23
4.54
11.81
17.99
23.34
27.82
31.17
33.22
34.13
34.37
34.58
35.25
36.69
38.98
42.21
46.50
51.94
58.42
65.61
72.90
79.55
84.83
88.22
89.45
88.63
86.27
83.14
80.07
77.59
75.57
73.25
69.39
62.82
52.93
39.92
24.73
8.84
-6.12
-18.72
-27.82
-32.66
-32.98
-28.91
-21.02
-10.21
2.48
16.15
30.38
45.25
60.92
77.00
92.09
103.74
109.31
107.15
97.55
82.78
66.25
51.09
38.95
29.75
22.24
15.02
7.37
-0.63
-8.40
-15.43
-21.59
-27.08
-32.20
-37.14
-41.93
-46.46
-50.72
-54.78
-58.78
-62.85
-66.98
-71.05
-74.89
-78.32
-81.28
-83.87
-86.33
-88.96
-91.95
-95.17
-98.10
-99.78
-99.08
-95.13
-87.65
-77.25
-65.16
-52.95
-41.97
-33.06
-26.39
-21.68
-18.41
-16.05
-14.27
-12.89
-11.94
-11.52
-11.77
-12.73
-14.33
-16.36
-18.48
-20.40
-21.91
-23.01
-23.75
-24.14
-24.04
-23.11
-21.05
-17.80
-13.74
-9.65
-6.42
-4.73
-4.77
-6.20
-8.43
-10.94
-13.55
-16.45
-19.92
-24.15
-29.03
-34.27
-39.46
-44.09
-47.59
-49.23
-48.22
-43.92
-36.11
-25.28
-12.53
0.67
13.03
23.75
32.68
40.06
46.20
51.22
55.06
57.57
58.77
58.94
58.51
57.90
57.36
56.93
56.46
55.75
54.63
52.97
50.72
47.91
44.69
41.26
37.83
34.53
31.33
28.08
24.54
20.54
16.07
11.20
6.10
0.91
-4.29
-9.54
-14.96
-20.80
-27.43
-35.28
-44.62
-55.32
-66.72
-77.55
-86.18
-91.03
-91.00
-85.83
-76.17
-63.39
-49.14
-34.90
-21.62
-9.66
1.04
10.67
19.17
26.20
31.28
34.13
34.92
34.31
33.21
32.41
32.32
32.92
33.91
35.04
36.16
37.20
38.02
38.19
37.17
34.54
30.37
25.23
20.04
15.49
11.82
8.66
5.37
1.43
-3.21
-8.16
-12.82
-16.73
-19.86
-22.51
-25.25
-28.55
-32.73
-37.73
-43.11
-47.99
-51.16
-51.38
-47.81
-40.39
-29.94
-17.95
-6.06
4.44
12.91
19.27
23.80
26.75
28.28
28.53
27.72
26.29
24.73
23.53
22.86
22.61
22.45
22.03
21.20
20.01
18.67
17.37
16.11
14.74
13.00
10.73
7.86
4.53
1.01
-2.40
-5.36
-7.68
-9.28
-10.32
-11.16
-12.32
-14.40
-17.83
-22.76
-28.85
-35.32
-41.05
-44.80
-45.62
-43.05
-37.30
-29.11
-19.51
-9.50
0.12
8.85
16.32
22.20
26.24
28.28
28.40
26.95
24.58
21.98
19.79
18.42
17.96
18.24
18.91
19.61
20.04
20.06
19.64
18.84
17.70
16.13
13.94
10.96
7.06
2.36
-2.84
-8.05
-12.76
-16.55
-19.26
-21.04
-22.49
-24.36
-27.39
-31.87
-37.41
-42.90
-46.77
-47.56
-44.45
-37.51
-27.66
-16.30
-4.83
5.64
14.51
21.52
26.70
30.06
31.79
32.04
31.12
29.40
27.27
25.05
22.92
20.95
19.01
17.03
14.98
12.96
11.19
9.83
8.82
7.82
6.33
3.86
0.27
-4.19
-8.83
-12.86
-15.71
-17.33
-18.27
-19.48
-21.92
-26.14
-31.96
-38.42
-44.05
-47.29
-46.98
-42.71
-34.87
-24.45
-12.78
-1.14
9.40
18.14
24.70
28.98
31.19
31.67
30.88
29.24
27.05
24.49
21.62
18.59
15.67
13.21
11.55
10.77
10.75
11.07
11.21
10.70
9.25
6.79
3.42
-0.57
-4.85
-9.06
-12.88
-16.08
-18.68
-20.98
-23.50
-26.74
-30.88
-35.49
-39.49
-41.49
-40.15
-34.84
-25.80
-14.15
-1.51
10.54
20.76
28.50
33.64
36.39
37.18
36.53
35.04
33.20
31.39
29.73
28.15
26.48
24.59
22.49
20.34
18.37
16.71
15.35
14.13
12.81
11.15
9.07
6.56
3.58
0.14
-3.78
-8.02
-12.25
-16.07
-19.35
-22.39
-25.80
-30.13
-35.34
-40.51
-44.05
-44.37
-40.55
-32.78
-22.21
-10.46
0.97
11.16
19.68
26.49
31.60
35.00
36.61
36.47
34.79
32.01
28.82
25.92
23.92
22.97
22.79
22.86
22.68
22.01
20.99
19.86
18.80
17.67
16.16
13.96
11.08
7.85
4.71
1.96
-0.47
-2.93
-5.89
-9.53
-13.67
-17.91
-21.89
-25.48
-28.70
-31.51
-33.48
-33.79
-31.47
-25.80
-16.77
-5.19
7.59
20.08
31.04
39.72
45.87
49.49
50.84
50.27
48.25
45.26
41.77
38.02
33.96
29.25
23.43
16.21
7.70
-1.39
-9.95
-16.81
-21.10
-22.63
-21.95
-20.11
-18.28
-17.38
-17.81
-19.44
-21.79
-24.26
-26.45
-28.24
-29.82
-31.56
-33.90
-37.07
-40.98
-45.15
-48.77
-50.90
-50.66
-47.45
-41.10
-32.02
-21.08
-9.54
1.28
10.38
17.23
21.88
24.72
26.22
26.63
25.99
24.29
21.72
18.80
16.26
14.74
14.41
14.88
15.42
15.33
14.32
12.54
10.32
7.89
5.19
1.94
-1.97
-6.29
-10.34
-13.36
-14.93
-15.24
-15.10
-15.57
-17.49
-21.04
-25.71
-30.43
-34.02
-35.50
-34.25
-30.11
-23.32
-14.47
-4.39
5.96
15.55
23.52
29.26
32.49
33.35
32.29
29.95
27.09
24.39
22.28
20.92
20.10
19.42
18.49
17.11
15.36
13.57
12.01
10.74
9.68
8.57
7.19
5.40
3.18
0.54
-2.54
-6.07
-9.98
-14.15
-18.39
-22.54
-26.50
-30.27
-33.76
-36.70
-38.61
-38.79
-36.64
-31.88
-24.71
-15.81
-6.17
3.17
11.36
17.87
22.50
25.36
26.65
26.68
25.80
24.35
22.67
21.02
19.54
18.22
17.04
15.94
14.93
14.00
13.14
12.18
10.90
9.05
6.48
3.27
-0.31
-3.87
-7.09
-9.79
-12.07
-14.12
-16.29
-18.89
-22.16
-26.22
-30.95
-35.87
-40.17
-42.79
-42.71
-39.37
-32.89
-24.10
-14.25
-4.60
3.95
10.99
16.50
20.62
23.44
24.97
25.28
24.58
23.27
21.84
20.62
19.73
19.05
18.36
17.53
16.55
15.56
14.68
13.92
13.13
12.00
10.25
7.67
4.24
0.20
-4.02
-7.93
-11.11
-13.46
-15.24
-17.01
-19.42
-22.90
-27.49
-32.75
-37.80
-41.59
-43.12
-41.61
-36.81
-28.96
-18.88
-7.75
3.09
12.55
19.95
25.12
28.27
29.78
30.05
29.43
28.23
26.73
25.10
23.47
21.82
20.15
18.56
17.19
16.20
15.64
15.26
14.69
13.51
11.51
8.70
5.25
1.39
-2.72
-6.98
-11.29
-15.55
-19.62
-23.51
-27.38
-31.45
-35.84
-40.23
-43.76
-45.31
-43.87
-38.90
-30.71
-20.31
-9.09
1.54
10.54
17.41
22.09
24.83
26.02
26.05
25.28
23.97
22.37
20.62
18.91
17.39
16.16
15.28
14.65
14.05
13.23
11.95
10.17
8.00
5.68
3.41
1.17
-1.26
-4.14
-7.59
-11.47
-15.36
-18.90
-22.03
-25.02
-28.29
-32.02
-35.79
-38.55
-39.08
-36.44
-30.48
-21.93
-12.07
-2.31
6.28
13.13
18.21
21.74
24.03
25.33
25.88
25.82
25.23
24.15
22.58
20.59
18.33
16.14
14.40
13.41
13.18
13.33
13.28
12.41
10.43
7.37
3.61
-0.43
-4.47
-8.39
-12.23
-16.02
-19.81
-23.68
-27.75
-32.12
-36.70
-41.03
-44.27
-45.35
-43.39
-37.99
-29.46
-18.83
-7.46
3.25
12.25
19.05
23.57
26.02
26.74
26.06
24.37
22.14
19.94
18.23
17.31
17.09
17.16
17.09
16.57
15.70
14.80
14.20
13.94
13.74
13.07
11.46
8.78
5.20
1.22
-2.71
-6.36
-9.84
-13.45
-17.55
-22.33
-27.69
-33.25
-38.30
-41.95
-43.31
-41.69
-36.85
-29.17
-19.55
-9.21
0.65
9.18
16.05
21.23
24.95
27.35
28.41
28.04
26.32
23.56
20.32
17.28
14.94
13.58
13.08
13.15
13.42
13.67
13.66
13.29
12.37
10.67
8.04
4.50
0.33
-3.99
-7.96
-11.30
-14.10
-16.72
-19.68
-23.37
-27.86
-32.73
-37.09
-39.75
-39.60
-36.02
-29.08
-19.58
-8.84
1.76
11.06
18.37
23.48
26.51
27.77
27.68
26.70
25.29
23.79
22.29
20.79
19.23
17.70
16.43
15.67
15.53
15.76
15.91
15.47
14.14
12.00
9.36
6.61
4.02
1.57
-0.89
-3.61
-6.73
-10.35
-14.54
-19.33
-24.59
-29.93
-34.55
-37.32
-37.11
-33.25
-25.85
-15.90
-4.95
5.43
14.05
20.35
24.39
26.54
27.22
26.74
25.27
22.99
20.14
17.14
14.49
12.73
12.21
12.91
14.44
16.02
16.89
16.52
14.97
12.79
10.84
9.84
10.13
11.38
12.65
12.47
9.05
0.85
-12.72
-30.60
-49.69
-65.35
-72.78
-68.72
-52.87
-28.20
0.07
26.27
46.05
57.34
60.21
56.13
47.05
34.86
21.38
8.44
-2.21
-9.34
-12.64
-12.89
-11.59
-10.30
-10.05
-11.00
-12.70
-14.47
-15.82
-16.59
-16.94
-17.04
-17.04
-17.13
-17.52
-18.47
-20.21
-22.80
-26.10
-29.90
-33.95
-37.98
-41.62
-44.29
-45.29
-43.96
-39.92
-33.27
-24.65
-15.00
-5.33
3.49
10.86
16.50
20.29
22.32
22.77
21.91
20.12
17.78
15.39
13.38
12.08
11.57
11.66
11.89
11.72
10.77
8.96
6.50
3.79
1.17
-1.21
-3.43
-5.70
-8.26
-11.33
-15.07
-19.55
-24.76
-30.36
-35.69
-39.78
-41.55
-40.24
-35.62
-28.11
-18.66
-8.47
1.43
10.28
17.65
23.39
27.37
29.49
29.69
28.10
25.21
21.84
18.86
16.94
16.17
16.17
16.25
15.82
14.68
12.96
10.97
8.84
6.51
3.74
0.39
-3.46
-7.61
-11.94
-16.50
-21.52
-27.13
-33.05
-38.45
-42.12
-42.85
-39.89
-33.32
-23.98
-13.23
-2.52
7.08
15.10
21.49
26.42
29.92
31.77
31.70
29.64
25.99
21.63
17.61
14.70
13.14
12.62
12.53
12.28
11.57
10.31
8.61
6.56
4.19
1.53
-1.42
-4.61
-8.12
-12.10
-16.81
-22.39
-28.73
-35.27
-41.06
-44.89
-45.67
-42.68
-35.86
-25.95
-14.28
-2.45
8.12
16.55
22.62
26.58
28.81
29.58
28.91
26.85
23.72
20.22
17.25
15.47
14.95
15.12
15.07
14.02
11.78
8.67
5.39
2.49
0.17
-1.76
-3.73
-6.27
-9.87
-14.86
-21.31
-28.82
-36.43
-42.69
-45.98
-45.08
-39.57
-30.13
-18.26
-5.83
5.54
14.81
21.70
26.48
29.68
31.73
32.87
33.15
32.57
31.24
29.51
27.78
26.37
25.41
24.82
24.31
23.60
22.42
20.63
18.19
15.16
11.67
7.85
3.77
-0.49
-4.93
-9.59
-14.52
-19.82
-25.61
-31.95
-38.72
-45.39
-50.94
-54.10
-53.68
-49.09
-40.62
-29.41
-16.96
-4.71
6.40
16.04
24.13
30.63
35.36
38.06
38.69
37.56
35.39
32.93
30.81
29.18
27.86
26.56
25.18
23.95
23.29
23.56
24.65
25.96
26.56
25.56
22.53
17.66
11.67
5.51
-0.11
-4.89
-9.02
-13.02
-17.44
-22.72
-29.02
-36.15
-43.58
-50.38
-55.32
-57.08
-54.65
-47.78
-37.10
-24.06
-10.40
2.38
13.38
22.36
29.50
35.00
38.91
41.12
41.63
40.74
39.06
37.30
35.93
35.00
34.21
33.16
31.62
29.66
27.56
25.65
24.11
22.84
21.50
19.69
17.08
13.54
9.16
4.21
-0.92
-5.85
-10.22
-13.86
-16.84
-19.47
-22.31
-26.00
-30.92
-36.97
-43.33
-48.64
-51.28
-50.06
-44.55
-35.30
-23.65
-11.16
0.73
11.16
19.77
26.60
31.84
35.66
38.17
39.46
39.72
39.08
37.71
35.72
33.27
30.61
28.14
26.30
25.42
25.51
26.16
26.73
26.64
25.62
23.78
21.45
18.92
16.22
13.17
9.46
5.03
-0.01
-5.25
-10.22
-14.54
-18.04
-20.78
-23.07
-25.33
-28.10
-31.85
-36.80
-42.74
-48.87
-53.89
-56.31
-54.96
-49.38
-40.05
-28.23
-15.59
-3.66
6.57
14.74
20.94
25.47
28.53
30.18
30.46
29.48
27.62
25.45
23.65
22.66
22.58
23.05
23.47
23.30
22.40
21.11
20.05
19.66
19.83
19.86
18.72
15.70
10.75
4.61
-1.62
-7.03
-11.30
-14.69
-17.75
-21.00
-24.64
-28.66
-33.08
-37.89
-43.01
-48.00
-51.93
-53.58
-51.97
-46.73
-38.37
-28.05
-17.17
-6.84
2.35
10.26
16.94
22.45
26.71
29.62
31.18
31.54
30.99
29.93
28.72
27.62
26.78
26.23
25.87
25.56
25.18
24.67
24.04
23.27
22.20
20.58
18.16
14.83
10.72
6.27
1.96
-1.82
-4.97
-7.71
-10.36
-13.16
-16.22
-19.46
-22.80
-26.23
-29.84
-33.85
-38.36
-43.19
-47.87
-51.53
-53.17
-51.94
-47.39
-39.68
-29.58
-18.26
-6.93
3.35
11.94
18.58
23.32
26.42
28.32
29.61
30.82
32.28
33.95
35.42
36.17
35.85
34.52
32.63
30.83
29.65
29.30
29.57
29.98
29.95
28.99
26.86
23.63
19.77
15.94
12.80
10.69
9.36
8.09
6.03
2.62
-2.08
-7.32
-12.05
-15.37
-16.97
-17.23
-16.96
-17.25
-19.20
-23.65
-30.75
-39.37
-46.80
-49.02
-42.07
-23.87
4.28
37.44
68.53
90.83
100.35
96.92
83.56
64.59
43.93
24.09
6.34
-8.50
-19.68
-26.47
-28.68
-27.10
-23.37
-19.39
-16.68
-15.80
-16.38
-17.52
-18.37
-18.47
-17.91
-17.13
-16.67
-16.97
-18.27
-20.53
-23.52
-26.81
-29.87
-32.32
-34.00
-35.15
-36.21
-37.70
-39.94
-42.97
-46.61
-50.49
-54.15
-57.00
-58.35
-57.45
-53.67
-46.85
-37.38
-26.17
-14.40
-3.16
6.78
14.96
21.23
25.57
28.07
28.92
28.55
27.48
26.27
25.36
24.90
24.78
24.72
24.49
23.94
23.14
22.19
21.18
20.04
18.62
16.81
14.67
12.37
10.08
7.81
5.33
2.32
-1.33
-5.40
-9.37
-12.69
-15.15
-17.00
-18.90
-21.58
-25.46
-30.51
-36.26
-41.96
-46.84
-50.19
-51.37
-49.89
-45.49
-38.28
-28.85
-18.19
-7.56
1.98
9.72
15.48
19.48
22.11
23.69
24.40
24.32
23.65
22.77
22.21
22.37
23.35
24.86
26.40
27.47
27.84
27.56
26.82
25.81
24.58
23.11
21.31
19.09
16.40
13.15
9.29
4.90
0.26
-4.21
-8.10
-11.29
-14.04
-16.89
-20.41
-24.96
-30.42
-36.28
-41.74
-45.82
-47.68
-46.58
-42.17
-34.62
-24.65
-13.42
-2.32
7.46
15.18
20.63
24.02
25.73
26.10
25.38
23.82
21.69
19.34
17.13
15.29
13.94
13.09
12.69
12.72
13.08
13.55
13.72
13.10
11.24
7.99
3.58
-1.46
-6.50
-11.07
-14.98
-18.33
-21.47
-24.82
-28.73
-33.30
-38.21
-42.70
-45.66
-45.97
-42.93
-36.59
-27.74
-17.69
-7.74
1.20
8.68
14.59
18.95
21.77
23.08
23.08
22.13
20.71
19.12
17.56
16.12
14.90
14.06
13.78
13.97
14.22
13.96
12.72
10.39
7.29
3.95
0.80
-2.09
-4.99
-8.25
-12.05
-16.22
-20.45
-24.60
-28.93
-33.93
-39.89
-46.45
-52.40
-56.00
-55.67
-50.70
-41.61
-29.94
-17.59
-6.16
3.52
11.32
17.52
22.43
26.10
28.47
29.45
29.14
27.87
26.10
24.27
22.67
21.36
20.28
19.24
18.12
16.81
15.26
13.42
11.26
8.78
6.10
3.35
0.68
-1.87
-4.36
-6.98
-9.90
-13.30
-17.37
-22.24
-27.94
-34.15
-40.13
-44.69
-46.54
-44.81
-39.39
-31.07
-21.20
-11.15
-1.76
6.69
14.30
21.14
27.00
31.47
34.17
35.11
34.74
33.77
32.80
32.10
31.61
31.10
30.40
29.56
28.77
28.20
27.81
27.30
26.28
24.40
21.55
17.83
13.54
9.03
4.61
0.44
-3.43
-7.11
-10.78
-14.74
-19.32
-24.80
-31.27
-38.41
-45.47
-51.25
-54.46
-54.02
-49.51
-41.29
-30.42
-18.36
-6.54
4.03
12.92
20.12
25.83
30.27
33.42
35.17
35.49
34.54
32.79
30.86
29.47
29.09
29.82
31.30
32.83
33.61
33.07
31.11
28.10
24.76
21.73
19.36
17.49
15.69
13.42
10.35
6.45
1.92
-2.83
-7.39
-11.37
-14.55
-17.00
-19.14
-21.74
-25.57
-31.16
-38.38
-46.36
-53.57
-58.24
-58.90
-54.79
-46.15
-34.08
-20.28
-6.61
5.47
15.19
22.50
27.77
31.49
33.88
34.93
34.55
32.87
30.30
27.53
25.21
23.65
22.71
22.03
21.25
20.24
19.18
18.33
17.81
17.49
16.99
15.93
14.00
11.21
7.74
3.93
0.14
-3.36
-6.46
-9.17
-11.66
-14.14
-16.90
-20.24
-24.44
-29.57
-35.34
-41.09
-45.74
-48.12
-47.27
-42.84
-35.10
-24.94
-13.62
-2.34
7.86
16.34
22.80
27.18
29.61
30.34
29.71
28.13
26.05
23.89
22.03
20.68
19.91
19.56
19.40
19.13
18.48
17.27
15.44
13.12
10.57
8.06
5.75
3.59
1.38
-1.08
-3.90
-7.09
-10.45
-13.83
-17.18
-20.58
-24.25
-28.42
-33.25
-38.73
-44.57
-50.04
-54.14
-55.78
-54.17
-49.06
-40.88
-30.54
-19.11
-7.51
3.56
13.61
22.18
28.78
33.06
34.93
34.73
33.17
31.08
29.08
27.42
26.07
24.94
23.95
23.21
22.87
22.96
23.39
23.89
24.13
23.80
22.60
20.34
16.97
12.73
8.09
3.60
-0.25
-3.37
-6.10
-9.08
-13.02
-18.37
-25.04
-32.35
-39.20
-44.28
-46.47
-45.17
-40.43
-32.85
-23.43
-13.09
-2.56
7.84
18.02
27.92
37.41
46.07
53.11
57.31
57.34
52.23
42.24
29.43
17.59
11.14
13.46
25.21
43.84
64.37
81.41
91.12
92.26
85.85
73.87
58.01
39.27
18.44
-3.12
-23.15
-39.05
-49.02
-53.04
-53.04
-52.02
-52.75
-56.64
-63.36
-71.25
-78.21
-82.53
-83.33
-80.50
-74.50
-65.99
-55.74
-44.51
-33.10
-22.30
-12.77
-4.97
0.91
4.90
7.15
7.87
7.36
6.02
4.36
2.98
2.37
2.86
4.42
6.70
9.10
10.99
11.88
11.52
10.05
7.83
5.33
2.94
0.85
-1.02
-2.94
-5.26
-8.31
-12.25
-17.14
-22.90
-29.13
-35.14
-39.91
-42.29
-41.35
-36.78
-29.05
-19.32
-9.08
0.43
8.45
14.77
19.55
22.96
25.04
25.68
24.80
22.50
19.24
15.68
12.53
10.34
9.25
8.95
8.91
8.57
7.60
6.05
4.16
2.28
0.58
-1.02
-2.77
-4.95
-7.85
-11.67
-16.51
-22.30
-28.67
-34.84
-39.77
-42.29
-41.51
-37.15
-29.59
-19.85
-9.25
0.98
9.94
17.16
22.58
26.33
28.57
29.42
28.98
27.42
25.07
22.39
19.84
17.82
16.36
15.25
14.04
12.26
9.67
6.40
2.84
-0.52
-3.45
-6.00
-8.55
-11.58
-15.34
-19.89
-25.07
-30.65
-36.36
-41.72
-45.91
-47.90
-46.69
-41.77
-33.50
-23.00
-11.75
-1.10
8.13
15.65
21.47
25.65
28.21
29.20
28.82
27.47
25.63
23.66
21.85
20.39
19.43
19.01
18.95
18.84
18.10
16.23
13.10
9.07
4.74
0.72
-2.73
-5.75
-8.73
-12.12
-16.25
-21.22
-26.94
-33.03
-38.76
-43.19
-45.22
-43.96
-39.01
-30.51
-19.15
-5.98
7.78
20.93
32.46
41.60
47.94
51.53
52.70
51.95
49.72
46.23
41.69
36.27
30.38
24.56
19.41
15.39
12.58
10.66
9.07
7.18
4.56
1.17
-2.65
-6.44
-9.71
-12.26
-14.24
-16.07
-18.28
-21.34
-25.47
-30.65
-36.58
-42.61
-47.86
-51.18
-51.49
-48.02
-40.66
-30.09
-17.61
-4.83
6.87
16.55
23.89
29.00
32.19
33.73
33.95
33.12
31.65
30.05
28.64
27.53
26.60
25.61
24.33
22.83
21.37
20.24
19.64
19.39
19.08
18.09
16.01
12.71
8.47
3.77
-0.87
-5.16
-9.12
-13.04
-17.37
-22.47
-28.47
-35.06
-41.49
-46.66
-49.32
-48.42
-43.40
-34.46
-22.52
-9.10
4.12
15.75
24.91
31.35
35.29
37.15
37.37
36.31
34.25
31.48
28.38
25.32
22.72
20.77
19.50
18.70
18.14
17.55
16.80
15.78
14.32
12.26
9.41
5.71
1.38
-3.15
-7.41
-11.09
-14.24
-17.29
-20.81
-25.23
-30.66
-36.66
-42.38
-46.72
-48.54
-46.98
-41.72
-33.09
-22.05
-10.00
1.65
11.78
19.73
25.40
29.00
30.93
31.67
31.56
30.76
29.35
27.29
24.68
21.80
19.03
16.80
15.42
14.84
14.72
14.51
13.64
11.75
8.79
5.02
0.88
-3.20
-6.95
-10.43
-13.85
-17.61
-21.94
-26.83
-32.00
-36.92
-40.85
-42.99
-42.54
-38.85
-31.83
-21.99
-10.51
1.05
11.28
19.28
24.85
28.30
30.17
30.84
30.56
29.45
27.73
25.72
23.71
21.91
20.37
19.06
17.88
16.81
15.80
14.73
13.44
11.72
9.47
6.69
3.44
-0.19
-4.05
-8.00
-11.85
-15.41
-18.67
-21.91
-25.71
-30.60
-36.71
-43.38
-49.24
-52.61
-52.12
-47.29
-38.72
-27.77
-16.04
-4.86
5.04
13.37
20.10
25.20
28.67
30.59
31.14
30.66
29.48
27.86
25.97
23.98
22.07
20.40
19.13
18.26
17.72
17.32
16.94
16.45
15.76
14.71
13.12
10.89
8.05
4.83
1.50
-1.76
-5.09
-8.86
-13.56
-19.51
-26.58
-34.15
-41.05
-45.91
-47.48
-45.07
-38.79
-29.50
-18.59
-7.51
2.60
11.17
18.15
23.70
27.92
30.68
31.74
30.96
28.59
25.22
21.65
18.56
16.33
15.03
14.52
14.55
14.84
15.08
14.85
13.74
11.45
7.98
3.65
-0.91
-5.07
-8.44
-11.03
-13.29
-15.88
-19.38
-24.03
-29.47
-34.81
-38.75
-40.02
-37.74
-31.75
-22.70
-11.86
-0.81
9.02
16.66
21.77
24.53
25.49
25.14
23.84
21.72
18.85
15.48
12.07
9.27
7.67
7.53
8.60
10.21
11.45
11.60
10.35
7.97
5.20
2.96
1.95
2.35
3.63
4.65
3.99
0.32
-7.02
-17.68
-29.97
-41.05
-47.49
-46.19
-35.57
-16.37
8.36
33.94
55.64
70.10
76.21
74.86
68.06
57.82
45.45
31.68
17.19
3.10
-9.12
-18.14
-23.40
-25.52
-25.99
-26.47
-28.07
-30.95
-34.52
-37.88
-40.31
-41.62
-42.18
-42.76
-44.24
-47.20
-51.61
-56.65
-60.90
-62.71
-60.88
-55.05
-45.87
-34.68
-22.93
-11.82
-1.96
6.41
13.25
18.47
22.01
23.92
24.40
23.86
22.67
21.16
19.49
17.76
16.02
14.26
12.47
10.53
8.31
5.82
3.24
0.85
-1.13
-2.75
-4.43
-6.73
-10.28
-15.31
-21.68
-28.73
-35.49
-40.83
-43.63
-43.14
-39.08
-31.87
-22.42
-11.92
-1.41
8.32
16.88
24.10
29.78
33.66
35.48
35.09
32.72
28.90
24.46
20.15
16.59
14.01
12.25
10.91
9.45
7.46
4.84
1.83
-1.17
-3.82
-6.07
-8.12
-10.38
-13.25
-16.94
-21.43
-26.48
-31.68
-36.44
-39.99
-41.43
-39.94
-35.14
-27.29
-17.37
-6.73
3.35
12.05
19.16
24.76
29.00
31.80
32.95
32.30
30.05
26.80
23.40
20.60
18.78
17.89
17.50
17.15
16.49
15.44
14.11
12.70
11.26
9.73
7.89
5.49
2.36
-1.53
-6.18
-11.58
-17.56
-23.76
-29.45
-33.66
-35.36
-33.77
-28.69
-20.61
-10.54
0.22
10.41
19.17
26.05
31.04
34.36
36.21
36.71
35.93
34.01
31.33
28.48
26.12
24.61
23.87
23.38
22.49
20.81
18.38
15.65
13.18
11.29
9.88
8.45
6.44
3.42
-0.73
-5.88
-11.83
-18.37
-25.39
-32.63
-39.44
-44.76
-47.29
-45.95
-40.33
-30.98
-19.30
-7.12
3.98
13.06
19.94
24.91
28.27
30.07
30.12
28.28
24.85
20.59
16.50
13.42
11.68
10.99
10.77
10.38
9.53
8.27
6.79
5.29
3.70
1.83
-0.53
-3.47
-6.97
-10.95
-15.34
-20.18
-25.49
-31.07
-36.37
-40.47
-42.30
-41.02
-36.34
-28.73
-19.27
-9.25
0.28
8.67
15.71
21.39
25.55
27.92
28.29
26.69
23.63
19.95
16.54
14.06
12.62
11.97
11.60
11.06
9.98
8.26
5.92
3.08
-0.08
-3.39
-6.78
-10.22
-13.78
-17.64
-21.93
-26.67
-31.68
-36.54
-40.59
-42.95
-42.80
-39.54
-33.10
-24.01
-13.34
-2.41
7.58
15.78
21.86
25.81
27.78
28.01
26.75
24.37
21.43
18.58
16.42
15.19
14.77
14.63
14.19
13.01
11.01
8.42
5.65
3.01
0.59
-1.68
-4.09
-6.94
-10.48
-14.83
-19.90
-25.43
-31.02
-36.14
-40.11
-42.13
-41.40
-37.39
-30.16
-20.48
-9.68
0.75
9.70
16.71
21.92
25.72
28.36
29.68
29.47
27.65
24.64
21.24
18.31
16.36
15.40
15.07
14.78
14.20
13.14
11.64
9.78
7.60
5.05
2.08
-1.33
-5.15
-9.32
-13.86
-18.80
-24.13
-29.70
-35.04
-39.40
-41.88
-41.66
-38.28
-31.83
-22.91
-12.45
-1.54
8.83
17.88
25.04
29.97
32.60
33.13
31.96
29.62
26.67
23.67
21.00
18.91
17.44
16.48
15.85
15.30
14.63
13.66
12.28
10.44
8.15
5.43
2.32
-1.10
-4.71
-8.36
-11.94
-15.45
-19.00
-22.76
-26.85
-31.05
-34.84
-37.32
-37.53
-34.77
-28.89
-20.38
-10.20
0.47
10.60
19.37
26.21
30.76
32.82
32.49
30.22
26.76
23.02
19.82
17.65
16.60
16.45
16.86
17.49
18.07
18.33
17.98
16.82
14.71
11.77
8.30
4.66
1.14
-2.19
-5.50
-9.05
-13.10
-17.79
-23.07
-28.81
-34.65
-40.07
-44.28
-46.35
-45.37
-40.81
-32.82
-22.21
-10.39
1.07
10.85
18.21
23.09
25.96
27.44
28.06
28.08
27.54
26.40
24.71
22.67
20.64
18.88
17.53
16.41
15.23
13.63
11.37
8.48
5.19
1.92
-0.94
-3.08
-4.51
-5.50
-6.58
-8.31
-11.04
-14.91
-19.76
-25.30
-31.07
-36.49
-40.75
-42.94
-42.19
-38.02
-30.58
-20.67
-9.63
1.23
10.80
18.48
24.05
27.58
29.26
29.34
28.22
26.34
24.19
22.15
20.37
18.84
17.46
16.19
15.06
14.16
13.42
12.63
11.43
9.51
6.81
3.49
-0.16
-3.88
-7.53
-11.17
-14.83
-18.58
-22.44
-26.39
-30.48
-34.62
-38.43
-41.20
-41.97
-39.89
-34.56
-26.31
-16.09
-5.20
5.11
13.81
20.28
24.23
25.68
24.87
22.37
18.99
15.65
13.16
11.94
11.92
12.65
13.47
13.80
13.33
12.07
10.23
8.22
6.31
4.74
3.48
2.32
0.87
-1.26
-4.35
-8.40
-13.17
-18.30
-23.50
-28.63
-33.59
-38.05
-41.30
-42.33
-40.26
-34.70
-26.05
-15.51
-4.58
5.40
13.58
19.65
23.69
25.95
26.75
26.36
25.15
23.49
21.68
19.96
18.45
17.20
16.21
15.48
14.94
14.46
13.80
12.77
11.28
9.38
7.26
5.03
2.62
-0.23
-3.75
-8.00
-12.71
-17.45
-21.84
-25.83
-29.71
-33.84
-38.25
-42.29
-44.80
-44.42
-40.27
-32.37
-21.66
-9.65
2.13
12.51
20.92
27.11
31.02
32.69
32.26
30.17
27.12
23.92
21.23
19.32
18.07
17.11
16.12
14.99
13.81
12.70
11.68
10.53
8.93
6.70
3.85
0.71
-2.36
-5.08
-7.39
-9.52
-11.85
-14.81
-18.63
-23.36
-28.74
-34.30
-39.40
-43.27
-45.22
-44.60
-41.05
-34.56
-25.55
-14.85
-3.63
6.85
15.53
21.74
25.34
26.64
26.26
24.82
22.88
20.85
18.97
17.40
16.16
15.24
14.55
13.98
13.50
13.06
12.72
12.44
12.08
11.44
10.24
8.31
5.63
2.36
-1.19
-4.75
-8.11
-11.32
-14.56
-18.19
-22.59
-27.93
-34.04
-40.27
-45.51
-48.43
-47.93
-43.56
-35.69
-25.52
-14.44
-3.74
5.76
13.72
20.05
24.74
27.83
29.45
29.86
29.50
28.79
27.95
27.00
25.82
24.28
22.42
20.48
18.73
17.45
16.68
16.23
15.73
14.72
12.84
10.06
6.64
3.01
-0.37
-3.26
-5.68
-7.80
-9.90
-12.17
-14.86
-18.17
-22.27
-27.07
-32.09
-36.40
-38.72
-38.04
-33.85
-26.52
-17.14
-7.11
2.30
10.19
16.12
20.03
22.05
22.45
21.56
19.78
17.55
15.26
13.17
11.39
9.84
8.35
6.74
4.93
2.96
0.99
-0.80
-2.23
-3.24
-3.88
-4.22
-4.32
-4.17
-3.78
-3.26
-2.89
-3.19
-4.82
-8.28
-13.66
-20.34
-27.01
-32.06
-33.96
-31.94
-26.16
-17.62
-7.79
1.93
10.55
17.56
22.76
26.18
27.84
27.93
26.76
24.80
22.51
20.25
18.21
16.38
14.67
12.94
11.14
9.24
7.35
5.54
3.90
2.39
0.87
-0.83
-2.86
-5.21
-7.74
-10.34
-12.99
-15.88
-19.33
-23.63
-28.78
-34.40
-39.67
-43.70
-45.58
-44.73
-41.01
-34.70
-26.48
-17.21
-7.86
0.79
8.14
13.84
17.70
19.73
20.07
19.02
17.09
14.83
12.81
11.36
10.63
10.46
10.58
10.71
10.59
10.03
8.90
7.15
4.87
2.24
-0.51
-3.20
-5.72
-8.16
-10.66
-13.41
-16.57
-20.27
-24.52
-29.18
-33.89
-38.04
-40.87
-41.60
-39.60
-34.65
-26.94
-17.16
-6.35
4.33
13.76
21.13
26.08
28.82
29.87
29.89
29.42
28.71
27.77
26.49
24.85
22.99
21.19
19.67
18.58
17.80
17.12
16.25
14.92
12.92
10.05
6.23
1.54
-3.79
-9.35
-14.68
-19.38
-23.31
-26.62
-29.68
-32.94
-36.69
-40.77
-44.48
-46.71
-46.18
-42.00
-34.04
-23.07
-10.59
1.64
12.16
20.16
25.51
28.60
30.02
30.32
29.94
29.15
28.17
27.13
26.17
25.33
24.58
23.92
23.37
22.93
22.54
22.03
21.15
19.60
17.27
14.28
10.97
7.71
4.67
1.78
-1.18
-4.39
-7.91
-11.71
-15.89
-20.70
-26.48
-33.24
-40.43
-46.73
-50.52
-50.40
-45.84
-37.36
-26.27
-14.21
-2.55
7.80
16.38
23.00
27.61
30.29
31.28
30.98
29.95
28.73
27.67
26.90
26.31
25.69
24.80
23.52
21.89
20.08
18.28
16.65
15.17
13.70
11.99
9.78
6.94
3.52
-0.28
-4.17
-7.87
-11.25
-14.39
-17.58
-21.24
-25.76
-31.34
-37.74
-44.16
-49.34
-51.90
-50.75
-45.53
-36.76
-25.73
-14.02
-3.07
6.27
13.65
19.13
22.94
25.22
26.18
25.99
24.98
23.42
21.64
19.78
17.92
16.09
14.32
12.70
11.32
10.29
9.61
9.15
8.60
7.57
5.66
2.68
-1.24
-5.69
-10.21
-14.49
-18.61
-22.98
-28.01
-33.77
-39.72
-44.76
-47.58
-47.13
-42.93
-35.32
-25.21
-13.86
-2.50
7.88
16.61
23.38
28.05
30.66
31.42
30.69
29.01
26.90
24.82
22.98
21.39
19.86
18.25
16.63
15.17
14.01
13.12
12.18
10.72
8.35
4.99
0.94
-3.33
-7.38
-11.09
-14.69
-18.59
-23.25
-28.82
-35.11
-41.58
-47.40
-51.57
-53.05
-51.06
-45.32
-36.14
-24.46
-11.61
0.89
11.81
20.38
26.42
30.28
32.48
33.58
33.95
33.72
32.88
31.45
29.57
27.48
25.52
24.00
23.03
22.51
22.09
21.37
19.98
17.75
14.71
11.05
6.97
2.52
-2.29
-7.46
-12.92
-18.54
-24.16
-29.76
-35.37
-40.96
-46.17
-50.20
-51.90
-50.20
-44.55
-35.25
-23.32
-10.32
2.22
13.11
21.76
28.08
32.29
34.77
35.82
35.70
34.73
33.23
31.58
30.05
28.73
27.43
25.87
23.85
21.43
18.88
16.64
14.96
13.80
12.77
11.33
9.06
5.79
1.71
-2.83
-7.45
-11.98
-16.50
-21.30
-26.73
-33.03
-40.05
-47.12
-53.07
-56.49
-56.10
-51.20
-41.99
-29.45
-15.18
-0.83
12.18
22.96
31.09
36.45
39.25
39.87
38.96
37.26
35.48
34.10
33.26
32.80
32.37
31.71
30.65
29.15
27.38
25.55
23.86
22.42
21.15
19.78
17.93
15.22
11.47
6.75
1.35
-4.28
-9.82
-15.01
-19.86
-24.60
-29.61
-35.23
-41.45
-47.81
-53.19
-56.14
-55.32
-50.06
-40.62
-28.17
-14.35
-0.80
11.24
21.09
28.55
33.69
36.71
37.82
37.29
35.47
32.85
30.03
27.51
25.65
24.46
23.74
23.19
22.62
22.03
21.55
21.20
20.77
19.76
17.63
14.09
9.30
3.87
-1.45
-6.01
-9.59
-12.33
-14.76
-17.49
-21.12
-26.06
-32.39
-39.63
-46.58
-51.49
-52.38
-47.86
-37.69
-23.14
-6.59
9.20
22.03
31.00
36.51
39.86
42.44
45.20
48.27
51.05
52.40
51.02
45.84
36.40
23.36
8.69
-4.65
-13.49
-15.60
-10.43
0.57
14.59
28.34
39.09
45.13
45.72
40.90
31.12
17.33
0.89
-16.47
-32.98
-47.30
-58.72
-67.25
-73.09
-76.36
-76.79
-73.93
-67.47
-57.61
-45.23
-31.64
-18.34
-6.51
3.08
10.11
14.64
16.94
17.50
16.87
15.63
14.18
12.67
11.06
9.30
7.39
5.56
4.13
3.30
3.07
3.12
2.87
1.75
-0.70
-4.58
-9.47
-14.47
-18.38
-20.04
-18.79
-14.79
-9.07
-3.32
0.74
1.87
-0.23
-4.79
-10.29
-14.87
-17.00
-15.77
-11.17
-3.94
4.71
13.57
21.68
28.52
33.80
37.35
39.10
39.01
37.32
34.59
31.54
28.86
26.90
25.54
24.34
22.82
20.75
18.23
15.65
13.44
11.84
10.73
9.68
8.10
5.53
1.80
-2.91
-8.10
-13.17
-17.65
-21.24
-23.99
-26.21
-28.43
-31.26
-35.23
-40.53
-46.89
-53.42
-58.75
-61.40
-60.24
-54.95
-46.08
-34.90
-22.93
-11.47
-1.35
7.21
14.31
20.09
24.55
27.56
28.93
28.77
27.57
26.07
24.95
24.58
24.80
25.09
24.90
23.97
22.46
20.83
19.48
18.49
17.53
16.07
13.64
10.10
5.66
0.78
-4.03
-8.42
-12.22
-15.48
-18.51
-21.65
-25.32
-29.85
-35.39
-41.78
-48.52
-54.67
-59.07
-60.54
-58.22
-51.80
-41.71
-28.97
-14.99
-1.18
11.22
21.40
28.95
33.84
36.35
36.88
36.00
34.27
32.22
30.29
28.77
27.81
27.34
27.20
27.13
26.92
26.41
25.58
24.50
23.32
22.16
20.99
19.59
17.59
14.59
10.44
5.31
-0.19
-5.37
-9.72
-13.14
-16.01
-18.99
-22.66
-27.37
-33.10
-39.51
-45.99
-51.74
-55.75
-56.98
-54.64
-48.39
-38.58
-26.19
-12.61
0.75
12.75
22.77
30.54
36.07
39.40
40.59
39.76
37.20
33.51
29.50
25.95
23.35
21.75
20.85
20.18
19.43
18.51
17.56
16.73
15.98
15.11
13.77
11.66
8.63
4.72
0.19
-4.61
-9.32
-13.64
-17.46
-20.93
-24.36
-28.20
-32.84
-38.30
-44.11
-49.23
-52.34
-52.17
-48.05
-40.15
-29.42
-17.30
-5.26
5.61
14.72
21.89
27.17
30.68
32.59
33.16
32.65
31.35
29.60
27.68
25.82
24.23
22.98
21.94
20.92
19.69
18.16
16.44
14.65
12.81
10.75
8.05
4.35
-0.41
-5.92
-11.50
-16.45
-20.40
-23.44
-26.16
-29.33
-33.58
-39.08
-45.39
-51.56
-56.34
-58.51
-57.20
-52.04
-43.23
-31.54
-18.14
-4.37
8.52
19.53
28.09
34.10
37.79
39.54
39.75
38.77
36.89
34.50
32.02
29.94
28.64
28.23
28.51
29.04
29.27
28.80
27.50
25.54
23.30
21.16
19.30
17.70
16.02
13.82
10.66
6.33
0.97
-4.97
-10.81
-15.91
-19.82
-22.39
-23.81
-24.49
-25.11
-26.43
-29.17
-33.56
-38.97
-43.71
-45.25
-41.12
-29.80
-11.75
10.67
33.79
53.97
68.66
76.87
78.85
75.43
67.46
55.68
41.06
25.07
9.70
-3.04
-11.74
-16.15
-17.10
-16.07
-14.56
-13.56
-13.35
-13.77
-14.47
-15.20
-15.92
-16.82
-18.19
-20.29
-23.17
-26.65
-30.38
-33.89
-36.97
-39.73
-42.63
-46.16
-50.50
-55.02
-58.35
-58.87
-55.31
-47.38
-35.93
-22.64
-9.30
2.70
12.68
20.54
26.44
30.60
33.11
34.10
33.77
32.48
30.60
28.47
26.35
24.42
22.82
21.65
20.98
20.75
20.83
20.99
20.99
20.59
19.56
17.70
14.86
11.09
6.61
1.85
-2.71
-6.71
-10.09
-13.26
-16.94
-21.87
-28.48
-36.48
-44.76
-51.71
-55.60
-55.13
-49.95
-40.63
-28.50
-15.22
-2.35
9.03
18.30
25.29
30.01
32.60
33.12
31.80
28.95
25.18
21.21
17.76
15.30
13.90
13.29
13.02
12.68
12.04
11.05
9.70
8.02
6.03
3.78
1.40
-0.99
-3.42
-6.08
-9.31
-13.52
-18.95
-25.48
-32.56
-39.21
-44.21
-46.45
-45.21
-40.38
-32.48
-22.54
-11.72
-1.17
8.23
15.88
21.42
24.73
25.95
25.44
23.74
21.35
18.69
16.03
13.50
11.20
9.25
7.77
6.77
6.06
5.31
4.16
2.38
-0.09
-3.12
-6.49
-10.00
-13.56
-17.28
-21.43
-26.42
-32.47
-39.39
-46.40
-52.15
-55.05
-53.86
-48.12
-38.43
-26.29
-13.49
-1.62
8.42
16.44
22.69
27.50
30.97
33.01
33.46
32.39
30.12
27.27
24.44
22.04
20.25
19.01
18.15
17.47
16.76
15.73
14.10
11.62
8.17
3.79
-1.25
-6.64
-11.97
-16.97
-21.69
-26.47
-31.85
-38.26
-45.66
-53.28
-59.70
-63.23
-62.49
-56.92
-46.99
-33.90
-19.26
-4.54
9.14
21.04
30.67
37.75
42.23
44.31
44.43
43.23
41.34
39.25
37.18
35.12
32.93
30.58
28.18
26.06
24.57
23.85
23.63
23.25
21.89
18.95
14.32
8.42
1.99
-4.18
-9.61
-14.22
-18.31
-22.46
-27.25
-33.17
-40.28
-48.10
-55.49
-60.96
-62.98
-60.49
-53.31
-42.12
-28.23
-13.20
1.51
14.76
25.84
34.44
40.60
44.63
46.85
47.58
47.03
45.41
43.04
40.40
38.06
36.53
35.95
36.12
36.56
36.67
35.98
34.38
31.97
29.06
25.97
22.87
19.81
16.57
12.87
8.48
3.46
-1.94
-7.29
-12.29
-16.85
-21.10
-25.34
-29.92
-35.16
-41.33
-48.47
-56.25
-63.85
-69.98
-73.15
-72.11
-66.32
-56.15
-42.79
-27.86
-12.90
0.99
13.16
23.41
31.71
38.07
42.50
44.97
45.55
44.47
42.11
39.05
35.96
33.49
32.10
32.00
32.99
34.53
35.87
36.33
35.51
33.43
30.38
26.72
22.71
18.54
14.30
10.19
6.40
2.96
-0.28
-3.73
-7.80
-12.57
-17.74
-22.67
-26.77
-29.98
-32.84
-36.25
-40.97
-47.17
-54.17
-60.58
-64.77
-65.29
-61.31
-52.70
-40.11
-24.81
-8.43
7.33
20.99
31.52
38.60
42.54
44.15
44.43
44.31
44.30
44.52
44.72
44.54
43.80
42.63
41.58
41.37
42.61
45.54
49.78
54.40
58.01
59.04
55.97
47.74
34.20
16.47
-3.02
-20.91
-33.80
-39.40
-37.21
-28.74
-16.79
-4.51
5.54
11.88
13.96
11.78
5.56
-4.30
-16.97
-31.01
-44.46
-55.21
-61.56
-62.68
-58.78
-50.97
-40.82
-29.99
-19.76
-10.84
-3.44
2.60
7.44
11.09
13.34
14.03
13.21
11.36
9.27
7.78
7.42
8.21
9.70
11.20
12.06
11.95
10.88
9.21
7.44
6.06
5.28
4.96
4.65
3.80
1.95
-1.00
-4.82
-9.07
-13.32
-17.31
-20.99
-24.45
-27.76
-31.08
-34.60
-38.63
-43.53
-49.34
-55.64
-61.40
-65.21
-65.68
-62.04
-54.29
-43.18
-29.80
-15.11
0.21
15.80
31.23
45.78
58.41
67.94
73.51
74.78
72.14
66.38
58.48
49.33
39.63
29.88
20.59
12.31
5.59
0.88
-1.74
-2.63
-2.50
-2.22
-2.53
-3.78
-5.89
-8.47
-11.04
-13.27
-15.08
-16.67
-18.29
-20.22
-22.65
-25.62
-29.14
-33.15
-37.66
-42.57
-47.54
-51.90
-54.64
-54.58
-50.80
-43.07
-31.95
-18.80
-5.28
7.12
17.47
25.43
31.11
34.81
36.78
37.20
36.24
34.14
31.29
28.26
25.59
23.71
22.79
22.63
22.79
22.78
22.28
21.29
20.04
18.78
17.48
15.82
13.34
9.75
5.20
0.26
-4.37
-8.20
-11.26
-13.95
-16.99
-20.98
-26.14
-32.17
-38.29
-43.31
-46.00
-45.34
-40.88
-32.94
-22.51
-11.00
0.17
9.90
17.61
23.19
26.74
28.36
28.08
26.00
22.36
17.75
12.96
8.83
6.08
4.98
5.38
6.65
7.99
8.64
8.13
6.49
4.07
1.39
-1.20
-3.62
-6.12
-9.07
-12.78
-17.34
-22.61
-28.27
-33.86
-38.82
-42.45
-43.94
-42.58
-37.95
-30.21
-20.07
-8.68
2.68
12.87
21.07
26.80
29.88
30.42
28.79
25.59
21.61
17.65
14.32
11.92
10.45
9.65
9.20
8.74
7.95
6.52
4.24
1.12
-2.64
-6.62
-10.46
-14.02
-17.52
-21.38
-26.00
-31.55
-37.85
-44.32
-50.11
-54.18
-55.52
-53.35
-47.40
-38.11
-26.59
-14.34
-2.80
7.02
14.72
20.35
24.17
26.41
27.16
26.48
24.59
21.96
19.17
16.79
15.13
14.21
13.71
13.22
12.38
11.01
9.14
6.97
4.69
2.41
0.12
-2.35
-5.25
-8.85
-13.44
-19.18
-25.99
-33.36
-40.29
-45.36
-47.17
-44.73
-37.87
-27.37
-14.73
-1.74
10.05
19.64
26.71
31.41
34.12
35.24
34.96
33.44
30.87
27.63
24.31
21.50
19.63
18.66
18.12
17.34
15.70
13.00
9.51
5.75
2.23
-0.84
-3.64
-6.58
-10.10
-14.46
-19.67
-25.52
-31.69
-37.75
-43.05
-46.78
-48.02
-45.98
-40.32
-31.31
-19.81
-7.02
5.75
17.42
27.22
34.66
39.54
41.82
41.70
39.58
36.06
31.91
27.88
24.53
22.14
20.62
19.70
19.04
18.36
17.45
16.19
14.45
12.18
9.35
6.02
2.35
-1.46
-5.25
-8.94
-12.58
-16.38
-20.70
-25.89
-32.03
-38.70
-44.87
-49.03
-49.76
-46.11
-38.15
-26.86
-13.80
-0.68
11.20
21.06
28.56
33.72
36.73
37.94
37.78
36.70
35.05
33.08
30.92
28.73
26.76
25.33
24.68
24.80
25.34
25.70
25.26
23.63
20.82
17.12
12.94
8.58
4.15
-0.33
-4.78
-9.05
-13.04
-16.86
-20.97
-26.05
-32.62
-40.56
-48.87
-55.76
-59.27
-57.96
-51.43
-40.44
-26.62
-11.92
2.00
13.92
23.27
29.96
34.17
36.21
36.47
35.28
32.98
30.00
26.77
23.78
21.46
20.06
19.56
19.67
19.93
19.89
19.26
17.92
15.82
13.02
9.53
5.45
0.98
-3.67
-8.25
-12.74
-17.28
-22.22
-27.90
-34.51
-41.76
-48.83
-54.43
-57.01
-55.27
-48.67
-37.67
-23.70
-8.80
4.99
16.29
24.62
30.23
33.71
35.59
36.14
35.45
33.65
31.11
28.32
25.76
23.69
22.06
20.64
19.24
17.85
16.65
15.86
15.54
15.33
14.60
12.62
8.99
3.87
-2.02
-7.66
-12.17
-15.29
-17.53
-20.01
-23.84
-29.47
-36.19
-42.18
-44.98
-42.38
-33.25
-17.90
1.89
23.36
43.23
58.28
65.87
64.78
55.93
42.59
29.82
22.67
24.19
34.04
48.63
62.79
72.10
74.59
70.81
62.71
51.93
39.06
23.94
6.73
-11.21
-27.47
-39.63
-46.48
-48.61
-48.10
-47.36
-48.07
-50.75
-54.93
-59.85
-65.05
-70.41
-75.83
-80.77
-84.08
-84.11
-79.55
-69.94
-56.03
-39.64
-22.97
-7.92
4.37
13.61
20.05
24.18
26.48
27.27
26.84
25.48
23.51
21.32
19.32
17.88
17.25
17.41
18.15
18.99
19.47
19.28
18.29
16.61
14.33
11.49
8.10
4.12
-0.32
-4.97
-9.61
-14.20
-18.93
-24.17
-30.18
-36.86
-43.50
-48.91
-51.72
-50.71
-45.37
-35.96
-23.59
-9.82
3.72
15.76
25.51
32.73
37.46
39.90
40.31
38.97
36.32
32.92
29.37
26.27
23.98
22.59
21.99
21.88
21.82
21.37
20.19
18.14
15.27
11.82
8.06
4.14
0.09
-4.08
-8.35
-12.62
-16.92
-21.50
-26.83
-33.29
-40.67
-47.90
-53.22
-54.69
-51.12
-42.46
-29.94
-15.53
-1.21
11.54
22.06
30.23
36.25
40.32
42.47
42.68
41.01
37.72
33.29
28.43
23.80
19.96
17.15
15.35
14.28
13.62
13.02
12.22
11.01
9.23
6.83
3.77
0.16
-3.83
-7.96
-12.09
-16.18
-20.42
-25.12
-30.60
-36.89
-43.46
-49.14
-52.43
-51.91
-46.81
-37.33
-24.65
-10.46
3.44
15.59
25.16
31.82
35.65
36.90
35.94
33.15
28.97
23.95
18.77
14.14
10.71
8.83
8.44
8.97
9.59
9.51
8.26
5.89
2.85
-0.30
-3.25
-6.01
-8.91
-12.38
-16.77
-22.24
-28.70
-35.80
-42.88
-48.99
-52.87
-53.28
-49.40
-41.11
-29.25
-15.45
-1.58
10.71
20.46
27.49
32.22
35.27
37.06
37.59
36.57
33.77
29.41
24.22
19.35
15.80
13.98
13.52
13.49
12.92
11.25
8.57
5.40
2.32
-0.47
-3.18
-6.27
-10.17
-15.04
-20.85
-27.45
-34.69
-42.29
-49.82
-56.35
-60.55
-61.05
-56.86
-47.85
-34.91
-19.75
-4.36
9.52
20.85
29.39
35.36
39.16
41.09
41.28
39.86
37.13
33.61
29.97
26.78
24.33
22.63
21.45
20.55
19.78
19.06
18.28
17.23
15.58
13.04
9.48
4.99
-0.06
-5.24
-10.18
-14.74
-19.10
-23.76
-29.29
-35.94
-43.39
-50.53
-55.64
-56.96
-53.36
-44.78
-32.45
-18.29
-4.34
7.88
17.67
24.90
29.73
32.33
32.84
31.51
28.88
25.80
23.09
21.31
20.51
20.32
20.18
19.67
18.74
17.67
16.78
16.18
15.68
14.81
13.12
10.33
6.52
1.95
-2.99
-7.99
-12.89
-17.66
-22.44
-27.60
-33.46
-40.17
-47.33
-53.90
-58.23
-58.69
-54.19
-44.75
-31.55
-16.50
-1.60
11.60
22.34
30.50
36.21
39.65
40.83
39.91
37.31
33.81
30.45
28.09
27.09
27.24
27.98
28.61
28.74
28.28
27.37
26.16
24.72
22.94
20.64
17.72
14.20
10.23
6.05
1.92
-2.03
-5.85
-9.79
-14.19
-19.39
-25.56
-32.52
-39.75
-46.42
-51.49
-53.88
-52.77
-47.73
-39.03
-27.58
-14.72
-1.93
9.47
18.63
25.11
28.98
30.55
30.35
28.97
26.90
24.57
22.22
20.03
18.22
16.98
16.48
16.74
17.53
18.45
19.07
19.09
18.46
17.20
15.32
12.75
9.38
5.19
0.42
-4.58
-9.45
-14.06
-18.61
-23.54
-29.26
-35.87
-42.86
-49.16
-53.25
-53.64
-49.34
-40.33
-27.66
-13.20
0.96
13.14
22.47
28.87
32.74
34.53
34.56
32.98
30.11
26.49
22.83
19.79
17.71
16.52
15.95
15.68
15.56
15.56
15.64
15.58
15.01
13.49
10.73
6.73
1.80
-3.56
-8.87
-13.82
-18.29
-22.39
-26.41
-30.80
-36.00
-42.26
-49.27
-56.01
-60.81
-61.80
-57.60
-47.98
-34.02
-17.77
-1.64
12.52
23.66
31.64
36.83
39.71
40.67
40.03
38.09
35.28
32.16
29.26
27.07
25.77
25.27
25.20
25.03
24.31
22.80
20.57
17.90
14.99
11.90
8.48
4.56
0.15
-4.55
-9.19
-13.54
-17.56
-21.51
-25.79
-30.75
-36.42
-42.47
-48.08
-52.12
-53.30
-50.55
-43.36
-32.01
-17.62
-1.89
13.22
25.95
35.05
40.01
41.17
39.61
36.83
34.35
33.22
33.81
35.77
38.26
40.15
40.28
37.61
31.68
23.02
13.50
6.02
3.64
8.09
18.79
32.61
44.98
51.75
50.73
42.37
29.06
13.73
-1.60
-16.27
-30.68
-45.26
-59.59
-72.29
-81.40
-85.31
-83.44
-76.52
-66.23
-54.54
-42.99
-32.35
-22.76
-14.05
-6.17
0.60
5.73
8.80
9.76
9.08
7.61
6.33
5.96
6.73
8.42
10.42
12.13
13.10
13.19
12.58
11.55
10.35
9.01
7.40
5.20
2.20
-1.58
-5.86
-10.16
-14.08
-17.55
-20.95
-24.98
-30.24
-36.74
-43.67
-49.41
-52.08
-50.25
-43.49
-32.60
-19.30
-5.71
6.36
15.80
22.36
26.34
28.33
28.86
28.30
26.84
24.62
21.89
18.97
16.23
14.00
12.42
11.40
10.77
10.24
9.54
8.57
7.28
5.63
3.55
0.92
-2.34
-6.14
-10.27
-14.41
-18.43
-22.45
-26.90
-32.18
-38.31
-44.66
-49.95
-52.62
-51.36
-45.63
-35.85
-23.29
-9.59
3.55
14.83
23.46
29.25
32.42
33.44
32.88
31.24
28.86
25.95
22.61
19.01
15.39
12.14
9.56
7.82
6.80
6.14
5.40
4.24
2.56
0.46
-1.80
-4.08
-6.39
-8.95
-12.05
-15.96
-20.87
-26.77
-33.54
-40.71
-47.52
-52.76
-55.16
-53.65
-47.78
-38.00
-25.47
-11.74
1.65
13.55
23.29
30.53
35.19
37.39
37.37
35.66
32.97
29.98
27.25
25.04
23.41
22.28
21.54
21.10
20.80
20.43
19.67
18.21
15.83
12.49
8.36
3.79
-0.82
-5.13
-8.99
-12.51
-16.14
-20.51
-26.14
-33.05
-40.58
-47.34
-51.58
-51.79
-47.18
-37.99
-25.43
-11.29
2.63
14.93
24.84
32.16
37.00
39.58
40.18
39.08
36.68
33.54
30.19
27.06
24.39
22.21
20.42
18.92
17.63
16.54
15.59
14.59
13.26
11.32
8.59
5.06
0.95
-3.44
-7.79
-11.92
-15.90
-20.01
-24.69
-30.24
-36.68
-43.51
-49.74
-54.03
-55.05
-51.87
-44.21
-32.61
-18.35
-3.14
11.30
23.58
32.91
39.16
42.66
43.96
43.55
41.85
39.18
35.91
32.41
29.16
26.43
24.33
22.78
21.61
20.67
19.89
19.16
18.32
16.99
14.85
11.68
7.58
2.87
-1.98
-6.65
-11.03
-15.29
-19.75
-24.74
-30.48
-36.96
-43.84
-50.30
-55.21
-57.21
-55.17
-48.62
-38.05
-24.81
-10.73
2.33
13.14
21.20
26.73
30.25
32.24
32.89
32.17
29.99
26.55
22.44
18.53
15.65
14.22
14.06
14.54
14.82
14.32
12.85
10.66
8.11
5.48
2.76
-0.21
-3.72
-7.88
-12.68
-18.06
-23.93
-30.25
-36.75
-42.77
-47.23
-48.85
-46.59
-40.11
-29.96
-17.44
-4.17
8.33
19.01
27.28
32.91
35.88
36.32
34.56
31.22
27.05
22.83
19.15
16.35
14.49
13.47
12.99
12.65
12.03
10.83
8.93
6.50
3.85
1.23
-1.34
-4.13
-7.60
-12.13
-17.87
-24.69
-32.24
-40.02
-47.40
-53.53
-57.33
-57.71
-53.83
-45.50
-33.38
-18.90
-3.90
9.88
21.20
29.52
34.91
37.82
38.76
38.16
36.38
33.74
30.61
27.49
24.79
22.73
21.33
20.34
19.41
18.28
16.77
14.86
12.59
9.96
6.98
3.68
0.13
-3.56
-7.26
-10.90
-14.55
-18.52
-23.22
-29.05
-36.03
-43.59
-50.44
-54.78
-54.97
-50.07
-40.40
-27.44
-13.22
0.33
11.98
21.31
28.52
33.91
37.71
39.94
40.64
39.98
38.33
36.19
34.03
32.11
30.45
28.96
27.50
26.01
24.52
23.07
21.66
20.10
18.10
15.29
11.45
6.64
1.28
-4.15
-9.15
-13.49
-17.23
-20.76
-24.63
-29.40
-35.44
-42.70
-50.50
-57.51
-62.04
-62.51
-57.98
-48.59
-35.47
-20.44
-5.34
8.44
20.13
29.48
36.44
40.97
43.06
42.86
40.87
37.89
34.90
32.58
31.14
30.26
29.38
27.99
25.94
23.50
21.22
19.63
18.89
18.70
18.41
17.26
14.75
10.77
5.67
0.03
-5.52
-10.61
-15.08
-19.05
-22.76
-26.61
-30.98
-36.12
-41.99
-48.00
-52.96
-55.33
-53.73
-47.53
-37.11
-23.85
-9.63
3.83
15.33
24.32
30.69
34.54
35.97
35.21
32.78
29.45
26.17
23.79
22.69
22.79
23.48
23.98
23.69
22.41
20.40
18.25
16.48
15.26
14.29
12.95
10.58
6.91
2.08
-3.38
-8.81
-13.65
-17.72
-21.10
-24.16
-27.49
-31.73
-37.38
-44.52
-52.59
-60.29
-65.86
-67.48
-63.87
-54.80
-41.07
-24.37
-6.78
9.79
23.91
34.75
41.97
45.56
45.74
42.96
37.89
31.42
24.59
18.31
13.27
9.80
7.82
6.98
6.76
6.58
6.00
4.71
2.58
-0.30
-3.86
-8.02
-12.70
-17.75
-22.93
-27.90
-32.29
-36.01
-39.21
-42.36
-45.95
-50.27
-55.22
-60.33
-64.86
-67.87
-68.44
-65.74
-59.38
-49.51
-36.96
-23.09
-9.43
2.77
12.83
20.66
26.62
31.09
34.32
36.25
36.72
35.73
33.60
30.94
28.44
26.62
25.66
25.32
25.16
24.74
23.95
22.90
21.80
20.67
19.23
17.04
13.81
9.71
5.43
1.82
-0.62
-2.08
-3.44
-5.84
-10.05
-15.95
-22.45
-27.87
-30.55
-29.42
-24.38
-16.17
-6.11
4.30
13.74
21.28
26.53
29.57
30.89
31.11
30.80
30.24
29.43
28.29
26.82
25.22
23.76
22.68
21.91
21.11
19.79
17.62
14.61
11.06
7.41
3.99
0.85
-2.22
-5.45
-8.99
-12.81
-16.82
-21.15
-26.02
-31.63
-37.83
-43.87
-48.48
-50.22
-48.11
-41.99
-32.58
-21.19
-9.20
2.20
12.20
20.26
26.02
29.28
30.09
28.90
26.44
23.54
20.90
18.88
17.60
16.90
16.57
16.31
15.75
14.57
12.57
9.79
6.57
3.39
0.69
-1.40
-3.07
-4.87
-7.41
-11.16
-16.33
-22.78
-29.96
-36.98
-42.71
-45.93
-45.62
-41.25
-32.98
-21.72
-8.96
3.66
14.76
23.52
29.76
33.75
35.87
36.33
35.16
32.43
28.45
23.91
19.76
16.77
15.25
14.84
14.74
14.10
12.44
9.82
6.68
3.58
0.88
-1.40
-3.52
-5.86
-8.85
-12.75
-17.66
-23.46
-29.75
-35.82
-40.79
-43.74
-43.84
-40.65
-34.21
-25.10
-14.33
-3.15
7.21
15.84
22.28
26.59
29.06
30.04
29.66
27.85
24.64
20.27
15.43
11.02
7.84
6.27
6.08
6.64
7.15
7.06
6.11
4.36
1.95
-0.98
-4.41
-8.36
-12.87
-17.99
-23.66
-29.69
-35.54
-40.39
-43.19
-42.96
-39.20
-32.02
-22.20
-10.90
0.62
11.35
20.60
27.91
33.00
35.67
35.92
34.03
30.61
26.43
22.28
18.79
16.22
14.52
13.48
12.73
11.92
10.80
9.28
7.45
5.49
3.56
1.67
-0.39
-2.92
-6.27
-10.70
-16.27
-22.83
-29.89
-36.57
-41.66
-43.86
-42.19
-36.37
-27.00
-15.46
-3.43
7.63
16.79
23.78
28.75
31.94
33.52
33.45
31.68
28.39
24.07
19.51
15.57
12.88
11.48
10.87
10.25
8.87
6.42
3.14
-0.31
-3.27
-5.43
-6.99
-8.51
-10.67
-14.00
-18.64
-24.39
-30.82
-37.19
-42.54
-45.74
-45.70
-41.73
-33.86
-22.98
-10.68
1.28
11.56
19.49
25.11
28.77
30.84
31.41
30.45
28.08
24.66
20.90
17.57
15.26
14.15
13.94
14.05
13.85
12.92
11.22
9.00
6.66
4.48
2.52
0.42
-2.41
-6.60
-12.50
-19.96
-28.18
-35.85
-41.40
-43.46
-41.30
-35.07
-25.77
-14.78
-3.55
6.94
16.12
23.74
29.63
33.51
35.13
34.39
31.65
27.68
23.50
20.06
17.86
16.87
16.58
16.25
15.28
13.41
10.84
8.03
5.40
3.15
1.03
-1.44
-4.81
-9.37
-15.08
-21.65
-28.49
-34.83
-39.70
-42.04
-40.93
-35.93
-27.31
-16.11
-3.86
7.90
18.05
26.03
31.74
35.26
36.67
35.97
33.28
29.04
24.07
19.40
15.81
13.63
12.59
12.10
11.53
10.50
8.98
7.19
5.33
3.48
1.53
-0.80
-3.74
-7.52
-12.25
-17.96
-24.49
-31.36
-37.70
-42.28
-43.84
-41.51
-35.22
-25.72
-14.43
-2.93
7.47
16.09
22.76
27.66
30.94
32.67
32.76
31.18
28.17
24.20
20.00
16.32
13.80
12.71
12.87
13.67
14.27
13.96
12.46
9.93
6.85
3.69
0.62
-2.53
-6.09
-10.29
-15.15
-20.48
-26.05
-31.70
-37.10
-41.67
-44.42
-44.18
-40.17
-32.28
-21.42
-9.15
2.83
13.22
21.40
27.34
31.28
33.33
33.53
31.90
28.69
24.45
19.98
16.07
13.31
11.94
11.77
12.33
12.94
12.96
12.01
9.97
7.11
3.86
0.71
-2.04
-4.31
-6.34
-8.55
-11.45
-15.49
-20.87
-27.42
-34.44
-40.80
-45.11
-46.22
-43.44
-36.82
-27.20
-15.82
-4.07
6.88
16.23
23.52
28.56
31.30
31.84
30.45
27.60
23.94
20.13
16.76
14.15
12.30
11.00
9.98
9.04
8.15
7.30
6.47
5.51
4.28
2.68
0.70
-1.61
-4.24
-7.19
-10.59
-14.54
-19.15
-24.46
-30.38
-36.54
-42.23
-46.39
-47.85
-45.62
-39.37
-29.64
-17.68
-5.10
6.64
16.61
24.44
30.12
33.78
35.52
35.37
33.46
30.15
26.01
21.77
18.09
15.44
13.97
13.51
13.62
13.73
13.34
12.10
9.95
7.07
3.79
0.44
-2.71
-5.62
-8.31
-10.85
-13.32
-15.85
-18.62
-21.95
-26.07
-30.90
-35.77
-39.44
-40.43
-37.55
-30.53
-20.18
-8.21
3.46
13.34
20.75
25.79
28.85
30.28
30.11
28.29
24.97
20.66
16.20
12.47
10.03
8.92
8.77
9.00
9.04
8.49
7.11
4.90
2.04
-1.10
-4.12
-6.79
-9.13
-11.47
-14.21
-17.73
-22.14
-27.37
-33.02
-38.49
-42.94
-45.32
-44.59
-39.97
-31.42
-19.67
-6.27
6.90
18.16
26.44
31.48
33.62
33.50
31.75
28.81
24.98
20.55
16.01
11.96
9.04
7.55
7.30
7.62
7.63
6.66
4.50
1.50
-1.75
-4.73
-7.30
-9.70
-12.33
-15.57
-19.60
-24.45
-30.03
-36.15
-42.44
-48.20
-52.39
-53.82
-51.55
-45.23
-35.33
-23.09
-10.19
1.74
11.48
18.50
22.90
25.15
25.80
25.24
23.71
21.40
18.62
15.83
13.52
12.02
11.38
11.26
11.17
10.68
9.63
8.14
6.46
4.76
3.09
1.34
-0.65
-3.00
-5.83
-9.25
-13.51
-18.86
-25.45
-33.07
-40.93
-47.64
-51.56
-51.23
-45.95
-36.12
-23.22
-9.33
3.51
13.90
21.37
26.17
28.96
30.31
30.55
29.82
28.21
25.95
23.41
20.98
18.96
17.48
16.49
15.89
15.49
15.07
14.38
13.20
11.36
8.85
5.79
2.41
-1.00
-4.25
-7.29
-10.27
-13.50
-17.30
-21.98
-27.56
-33.67
-39.41
-43.58
-44.89
-42.43
-35.99
-26.22
-14.40
-2.08
9.34
18.93
26.22
31.16
33.87
34.53
33.42
30.97
27.79
24.53
21.75
19.75
18.56
18.05
18.03
18.29
18.64
18.81
18.48
17.34
15.22
12.18
8.44
4.37
0.28
-3.65
-7.35
-10.89
-14.48
-18.36
-22.80
-27.92
-33.50
-38.90
-43.08
-44.82
-43.07
-37.35
-27.97
-16.01
-3.10
9.04
18.99
26.04
30.12
31.71
31.53
30.19
28.10
25.43
22.32
19.04
15.97
13.63
12.34
12.10
12.53
12.95
12.71
11.42
9.18
6.36
3.55
1.14
-0.81
-2.58
-4.61
-7.31
-10.93
-15.51
-20.96
-27.01
-33.12
-38.36
-41.48
-41.26
-36.91
-28.61
-17.49
-5.38
5.86
14.97
21.55
25.93
28.66
30.12
30.28
28.92
25.93
21.58
16.64
12.06
8.69
6.91
6.53
6.84
7.02
6.39
4.69
2.12
-0.88
-3.89
-6.64
-9.15
-11.58
-14.20
-17.34
-21.33
-26.41
-32.59
-39.35
-45.70
-50.25
-51.65
-48.98
-42.05
-31.56
-18.87
-5.68
6.41
16.22
23.29
27.77
30.26
31.43
31.73
31.29
29.99
27.82
24.95
21.87
19.15
17.16
15.92
15.05
14.00
12.26
9.56
5.97
1.83
-2.42
-6.41
-10.02
-13.39
-16.73
-20.30
-24.28
-28.74
-33.76
-39.27
-44.95
-50.01
-53.18
-53.07
-48.59
-39.56
-26.94
-12.60
1.28
12.96
21.55
27.01
29.88
30.82
30.26
28.49
25.77
22.57
19.60
17.55
16.79
17.19
18.17
19.03
19.22
18.61
17.34
15.68
13.84
11.86
9.65
7.13
4.28
1.11
-2.31
-6.01
-10.18
-15.12
-21.19
-28.50
-36.62
-44.45
-50.34
-52.57
-50.00
-42.54
-31.26
-17.94
-4.44
7.81
18.02
25.88
31.28
34.26
34.97
33.85
31.55
28.80
26.19
24.00
22.26
20.90
19.85
19.17
18.89
18.92
19.01
18.80
17.95
16.29
13.83
10.78
7.38
3.86
0.30
-3.35
-7.19
-11.31
-15.82
-20.80
-26.34
-32.37
-38.42
-43.59
-46.56
-46.07
-41.33
-32.48
-20.63
-7.52
5.01
15.69
23.95
29.95
34.09
36.69
37.82
37.38
35.32
31.98
28.00
24.22
21.29
19.51
18.69
18.45
18.39
18.37
18.31
18.11
17.46
15.92
13.15
9.15
4.34
-0.61
-5.04
-8.71
-11.89
-15.27
-19.63
-25.45
-32.64
-40.41
-47.40
-52.02
-52.91
-49.35
-41.49
-30.42
-17.79
-5.32
5.66
14.51
21.14
25.81
28.81
30.29
30.23
28.77
26.23
23.25
20.52
18.61
17.72
17.74
18.33
19.05
19.52
19.43
18.57
16.82
14.23
10.95
7.23
3.28
-0.78
-4.96
-9.36
-14.08
-19.19
-24.76
-30.79
-37.13
-43.26
-48.18
-50.51
-48.94
-42.73
-32.19
-18.73
-4.46
8.43
18.42
24.93
28.29
29.31
28.89
27.62
25.72
23.28
20.34
17.14
14.14
11.84
10.59
10.37
10.77
11.22
11.14
10.22
8.42
5.85
2.75
-0.70
-4.37
-8.19
-12.11
-16.19
-20.58
-25.53
-31.31
-37.95
-45.03
-51.47
-55.75
-56.39
-52.45
-43.99
-32.08
-18.43
-4.86
7.27
17.21
24.79
30.14
33.49
35.05
35.03
33.66
31.24
28.05
24.53
21.10
18.25
16.45
15.89
16.41
17.44
18.20
17.99
16.42
13.45
9.36
4.54
-0.68
-5.99
-11.15
-16.05
-20.68
-25.26
-30.17
-35.70
-41.69
-47.31
-51.18
-51.75
-47.99
-39.88
-28.45
-15.48
-2.85
8.01
16.41
22.39
26.41
29.08
30.80
31.71
31.72
30.70
28.63
25.78
22.64
19.73
17.45
15.81
14.60
13.50
12.34
11.19
10.18
9.36
8.49
7.11
4.73
1.08
-3.75
-9.41
-15.46
-21.71
-28.15
-34.81
-41.37
-46.94
-50.20
-49.87
-45.26
-36.65
-25.21
-12.59
-0.36
10.43
19.28
26.06
30.73
33.23
33.55
31.83
28.56
24.46
20.36
16.95
14.67
13.61
13.52
13.96
14.41
14.42
13.75
12.39
10.52
8.34
5.96
3.39
0.47
-2.92
-6.83
-11.25
-16.16
-21.63
-27.79
-34.62
-41.65
-47.90
-51.97
-52.39
-48.27
-39.62
-27.51
-13.80
-0.48
10.95
19.84
26.31
30.94
34.20
36.21
36.82
35.83
33.40
30.13
26.86
24.32
22.80
22.06
21.56
20.79
19.56
17.91
16.01
13.91
11.45
8.46
4.85
0.83
-3.19
-6.83
-9.96
-12.91
-16.37
-21.08
-27.36
-34.91
-42.54
-48.61
-51.36
-49.57
-42.92
-32.21
-19.11
-5.63
6.46
16.12
23.04
27.52
30.02
30.91
30.33
28.39
25.38
21.83
18.50
16.01
14.66
14.24
14.22
14.01
13.20
11.72
9.69
7.38
5.01
2.69
0.44
-1.85
-4.37
-7.30
-10.86
-15.24
-20.50
-26.51
-32.84
-38.73
-43.12
-44.90
-43.15
-37.49
-28.32
-16.78
-4.47
7.04
16.59
23.62
28.13
30.40
30.70
29.17
25.93
21.33
16.04
11.06
7.39
5.65
5.74
6.98
8.30
8.80
7.95
5.81
2.79
-0.59
-3.93
-7.04
-9.93
-12.74
-15.78
-19.45
-24.22
-30.36
-37.70
-45.43
-52.17
-56.25
-56.30
-51.67
-42.76
-30.87
-17.72
-5.05
5.96
14.79
21.54
26.55
30.19
32.61
33.74
33.48
31.84
29.09
25.81
22.63
20.08
18.37
17.33
16.57
15.58
14.04
11.94
9.43
6.72
3.93
0.94
-2.44
-6.41
-11.03
-16.26
-21.95
-28.02
-34.31
-40.47
-45.79
-49.24
-49.70
-46.29
-38.80
-27.81
-14.64
-1.01
11.49
21.77
29.35
34.28
36.96
37.84
37.35
35.81
33.49
30.73
27.90
25.40
23.57
22.51
22.09
21.95
21.64
20.79
19.17
16.79
13.83
10.58
7.24
3.86
0.29
-3.75
-8.58
-14.45
-21.40
-29.29
-37.56
-45.35
-51.52
-54.79
-54.21
-49.37
-40.69
-29.33
-16.83
-4.73
5.87
14.40
20.82
25.30
28.04
29.18
28.88
27.41
25.16
22.57
19.98
17.55
15.24
12.99
10.80
8.81
7.18
5.85
4.53
2.58
-0.64
-5.59
-12.18
-19.83
-27.66
-34.81
-40.84
-45.85
-50.50
-55.68
-62.11
-69.96
-78.52
-86.18
-90.77
-90.08
-82.60
-68.02
-47.32
-22.39
4.55
31.58
57.34
81.03
102.26
120.74
136.26
148.58
157.52
162.91
164.80
163.44
159.57
154.35
149.17
145.12
142.51
140.65
138.12
133.31
125.17
113.68
99.74
84.68
69.66
55.27
41.40
27.51
13.00
-2.50
-19.07
-36.47
-54.22
-71.52
-87.19
-99.70
-107.40
-109.04
-104.28
-94.06
-80.38
-65.61
-51.70
-39.55
-29.12
-19.96
-11.92
-5.50
-1.58
-0.81
-2.92
-6.68
-10.40
-12.67
-12.97
-11.85
-10.44
-9.76
-10.25
-11.71
-13.59
-15.45
-17.22
-19.16
-21.55
-24.57
-28.06
-31.72
-35.26
-38.67
-42.27
-46.47
-51.41
-56.69
-61.35
-64.08
-63.77
-59.86
-52.57
-42.83
-31.91
-21.05
-11.18
-2.95
3.32
7.40
9.32
9.28
7.76
5.41
2.92
0.78
-0.72
-1.48
-1.58
-1.12
-0.27
0.69
1.31
1.13
-0.17
-2.54
-5.57
-8.65
-11.28
-13.32
-15.06
-17.02
-19.74
-23.53
-28.33
-33.78
-39.28
-43.99
-46.91
-47.02
-43.45
-35.95
-25.03
-12.01
1.30
13.26
22.80
29.76
34.58
37.87
39.97
40.85
40.22
37.98
34.43
30.23
26.20
22.89
20.45
18.54
16.56
13.99
10.58
6.50
2.20
-1.80
-5.10
-7.53
-9.31
-10.88
-12.82
-15.65
-19.66
-24.95
-31.30
-38.31
-45.22
-50.98
-54.42
-54.50
-50.63
-42.98
-32.42
-20.29
-8.11
2.89
11.86
18.46
22.78
25.19
26.22
26.43
26.28
25.94
25.44
24.71
23.74
22.74
21.96
21.57
21.54
21.61
21.41
20.70
19.41
17.58
15.25
12.34
8.66
4.15
-1.11
-6.81
-12.62
-18.37
-24.22
-30.51
-37.56
-45.18
-52.63
-58.58
-61.56
-60.38
-54.58
-44.68
-31.91
-18.02
-4.65
6.97
16.27
23.31
28.53
32.37
35.11
36.78
37.25
36.46
34.59
32.14
29.81
28.19
27.54
27.67
28.06
28.08
27.38
25.91
24.00
22.07
20.36
18.86
17.26
15.18
12.28
8.47
3.80
-1.47
-7.02
-12.62
-18.05
-23.23
-28.17
-33.03
-38.00
-43.36
-49.32
-55.88
-62.60
-68.57
-72.48
-72.97
-69.12
-60.73
-48.61
-34.18
-19.08
-4.67
8.26
19.41
28.76
36.29
41.98
45.82
47.91
48.54
48.13
47.04
45.57
43.82
41.84
39.67
37.43
35.29
33.34
31.55
29.73
27.64
25.09
21.99
18.49
14.84
11.31
8.01
4.88
1.75
-1.57
-5.10
-8.79
-12.47
-16.08
-19.70
-23.46
-27.56
-32.19
-37.50
-43.65
-50.72
-58.53
-66.41
-73.12
-77.00
-76.51
-70.76
-59.91
-45.18
-28.52
-11.98
2.76
14.79
23.96
30.66
35.48
38.91
41.14
42.20
42.06
40.90
39.10
37.21
35.66
34.70
34.34
34.42
34.81
35.37
35.95
36.28
35.96
34.57
31.78
27.59
22.31
16.55
10.96
6.03
1.94
-1.58
-4.98
-8.74
-13.05
-17.78
-22.52
-26.97
-31.18
-35.58
-40.75
-46.91
-53.65
-59.78
-63.74
-64.08
-59.99
-51.54
-39.65
-25.76
-11.49
1.77
13.07
21.94
28.36
32.56
34.79
35.27
34.24
32.03
29.18
26.45
24.56
23.87
24.25
25.17
25.95
26.07
25.46
24.36
23.24
22.48
22.14
22.00
21.58
20.40
18.11
14.67
10.34
5.61
0.99
-3.16
-6.81
-10.19
-13.70
-17.73
-22.56
-28.32
-34.95
-42.04
-48.76
-53.90
-56.09
-54.29
-48.15
-38.24
-25.92
-12.85
-0.54
9.96
18.24
24.15
27.78
29.27
28.85
26.88
23.99
20.87
18.20
16.46
15.79
15.93
16.38
16.56
16.08
14.94
13.47
12.13
11.26
10.86
10.55
9.74
7.97
5.05
1.21
-3.07
-7.31
-11.20
-14.78
-18.33
-22.23
-26.79
-32.07
-37.85
-43.58
-48.46
-51.46
-51.56
-48.06
-40.84
-30.52
-18.34
-5.79
5.84
15.70
23.52
29.32
33.14
34.95
34.68
32.43
28.67
24.14
19.69
15.97
13.34
11.79
11.09
10.91
10.97
11.02
10.88
10.36
9.34
7.73
5.50
2.77
-0.39
-3.84
-7.59
-11.68
-16.23
-21.33
-26.94
-32.76
-38.06
-41.92
-43.30
-41.44
-36.07
-27.63
-17.02
-5.52
5.59
15.29
22.91
28.16
31.03
31.70
30.46
27.70
23.89
19.56
15.34
11.80
9.34
8.10
7.87
8.17
8.41
8.16
7.16
5.45
3.23
0.78
-1.70
-4.12
-6.61
-9.49
-13.11
-17.83
-23.72
-30.42
-37.10
-42.47
-45.20
-44.27
-39.34
-30.86
-19.94
-8.05
3.38
13.26
20.95
26.24
29.21
30.05
29.00
26.33
22.47
17.98
13.58
9.98
7.66
6.78
7.01
7.72
8.23
8.10
7.16
5.52
3.41
1.04
-1.53
-4.42
-7.85
-12.05
-17.09
-22.78
-28.57
-33.59
-36.83
-37.42
-34.89
-29.26
-21.15
-11.56
-1.60
7.75
15.77
21.94
25.96
27.64
26.99
24.34
20.33
15.87
11.85
8.88
7.08
6.16
5.64
5.12
4.45
3.72
3.14
2.74
2.33
1.51
-0.15
-3.02
-7.22
-12.62
-18.87
-25.37
-31.36
-35.88
-37.93
-36.72
-31.89
-23.77
-13.37
-2.06
8.72
17.89
24.95
29.76
32.35
32.73
30.92
27.08
21.83
16.17
11.33
8.29
7.43
8.33
10.05
11.46
11.77
10.78
8.89
6.72
4.77
3.14
1.53
-0.61
-3.82
-8.34
-14.13
-20.72
-27.35
-32.95
-36.34
-36.45
-32.65
-25.07
-14.61
-2.87
8.33
17.46
23.67
26.88
27.62
26.63
24.52
21.63
18.15
14.27
10.39
7.06
4.84
3.95
4.18
4.97
5.69
5.84
5.24
3.98
2.22
0.12
-2.32
-5.18
-8.57
-12.58
-17.22
-22.51
-28.31
-34.41
-40.22
-44.98
-47.72
-47.46
-43.53
-35.85
-24.99
-12.17
1.00
13.03
22.78
29.74
33.89
35.45
34.73
32.07
27.89
22.86
17.90
13.95
11.69
11.20
11.95
13.01
13.47
12.82
11.02
8.47
5.62
2.74
-0.10
-3.08
-6.30
-9.85
-13.76
-18.07
-22.90
-28.41
-34.54
-40.83
-46.36
-49.82
-49.96
-46.02
-38.11
-27.27
-15.08
-3.21
7.15
15.43
21.73
26.35
29.52
31.17
31.10
29.27
26.02
22.08
18.37
15.70
14.39
14.32
14.98
15.67
15.78
14.88
12.77
9.50
5.34
0.69
-3.94
-8.07
-11.51
-14.38
-17.28
-20.93
-25.94
-32.30
-39.22
-45.20
-48.51
-47.85
-42.70
-33.60
-21.75
-8.71
4.13
15.68
25.27
32.50
37.21
39.46
39.44
37.59
34.55
31.05
27.76
25.19
23.50
22.51
21.88
21.14
19.96
18.29
16.27
14.11
11.88
9.53
6.88
3.86
0.49
-3.09
-6.69
-10.26
-13.93
-17.99
-22.73
-28.34
-34.62
-40.84
-45.85
-48.28
-47.05
-41.76
-32.92
-21.75
-9.78
1.65
11.77
20.35
27.45
33.08
37.09
39.22
39.43
37.96
35.47
32.78
30.56
29.13
28.36
27.78
26.90
25.48
23.65
21.83
20.44
19.63
19.13
18.37
16.69
13.73
9.55
4.52
-0.78
-5.91
-10.58
-14.70
-18.30
-21.56
-24.72
-28.19
-32.54
-38.20
-45.15
-52.68
-59.36
-63.33
-62.91
-57.26
-46.74
-32.85
-17.69
-3.27
9.08
18.79
25.96
30.93
34.01
35.40
35.32
34.20
32.64
31.34
30.80
31.10
31.92
32.67
32.81
32.10
30.74
29.14
27.76
26.72
25.77
24.44
22.28
19.18
15.47
11.69
8.20
4.99
1.71
-2.11
-6.66
-11.65
-16.50
-20.70
-24.10
-27.07
-30.22
-34.16
-39.13
-44.94
-51.01
-56.50
-60.41
-61.70
-59.53
-53.43
-43.60
-30.91
-16.80
-2.89
9.45
19.35
26.62
31.60
34.86
36.92
38.02
38.22
37.44
35.80
33.67
31.63
30.23
29.71
29.91
30.35
30.60
30.42
29.90
29.25
28.59
27.78
26.46
24.32
21.19
17.27
12.95
8.65
4.60
0.78
-3.04
-7.14
-11.65
-16.51
-21.49
-26.42
-31.21
-36.06
-41.29
-47.17
-53.62
-59.97
-64.99
-67.18
-65.27
-58.69
-47.91
-34.23
-19.42
-5.18
7.27
17.30
24.79
29.94
33.04
34.42
34.40
33.40
31.78
29.97
28.26
26.86
25.90
25.44
25.51
26.01
26.77
27.38
27.46
26.63
24.75
22.00
18.77
15.54
12.63
10.13
7.82
5.35
2.38
-1.24
-5.44
-9.94
-14.33
-18.25
-21.47
-24.07
-26.36
-28.87
-32.11
-36.37
-41.62
-47.37
-52.72
-56.49
-57.52
-54.85
-48.14
-37.84
-25.15
-11.73
0.80
11.26
19.17
24.64
28.09
29.95
30.46
29.82
28.19
26.03
23.83
22.13
21.24
21.21
21.88
22.99
24.30
25.54
26.38
26.42
25.36
23.11
19.94
16.39
13.04
10.29
8.14
6.28
4.31
1.96
-0.79
-3.78
-6.88
-10.05
-13.31
-16.72
-20.29
-24.01
-28.01
-32.49
-37.73
-43.66
-49.74
-54.86
-57.65
-56.88
-51.95
-43.11
-31.39
-18.34
-5.54
5.73
14.77
21.42
25.94
28.75
30.13
30.18
28.96
26.61
23.59
20.59
18.32
17.20
17.26
18.13
19.37
20.57
21.52
22.07
22.05
21.28
19.61
17.07
13.96
10.71
7.73
5.12
2.71
0.11
-3.02
-6.83
-11.23
-15.98
-20.80
-25.50
-29.97
-34.22
-38.35
-42.57
-47.06
-51.86
-56.60
-60.48
-62.24
-60.65
-54.92
-45.17
-32.40
-18.26
-4.42
7.85
17.86
25.57
31.15
34.89
36.90
37.25
36.10
33.74
30.76
27.83
25.59
24.32
23.98
24.12
24.24
23.94
23.11
22.04
21.08
20.48
20.20
19.82
18.84
16.80
13.59
9.39
4.69
0.02
-4.26
-8.10
-11.69
-15.34
-19.28
-23.55
-28.24
-33.40
-39.24
-45.84
-52.90
-59.46
-64.05
-65.05
-61.38
-53.00
-40.95
-27.08
-13.36
-1.25
8.50
15.85
21.14
24.77
27.04
28.17
28.34
27.76
26.76
25.70
24.94
24.69
24.88
25.17
25.03
24.02
22.08
19.58
17.22
15.58
14.77
14.27
13.17
10.67
6.58
1.43
-3.79
-8.12
-11.22
-13.48
-15.72
-18.69
-22.70
-27.54
-32.68
-37.58
-41.89
-45.28
-47.27
-47.15
-44.09
-37.62
-28.00
-16.32
-4.23
6.69
15.34
21.47
25.46
27.93
29.37
29.97
29.70
28.53
26.74
24.83
23.46
23.00
23.33
23.89
23.86
22.72
20.50
17.80
15.50
14.27
14.20
14.76
15.05
14.29
12.04
8.42
3.98
-0.65
-4.90
-8.46
-11.27
-13.37
-14.95
-16.27
-17.77
-20.04
-23.68
-28.85
-35.11
-41.20
-45.36
-45.96
-42.13
-34.15
-23.28
-11.31
0.21
10.30
18.55
24.86
29.16
31.40
31.73
30.68
29.09
27.95
27.84
28.81
30.41
31.95
32.99
33.39
33.35
33.16
33.00
32.83
32.43
31.52
29.74
26.91
22.98
18.12
12.77
7.54
2.92
-0.81
-3.70
-6.14
-8.56
-11.31
-14.61
-18.54
-23.06
-27.94
-32.71
-36.46
-38.17
-36.92
-32.39
-25.05
-16.17
-7.37
-0.02
5.10
8.04
9.36
9.76
9.72
9.30
8.32
6.49
3.83
0.71
-2.21
-4.29
-5.09
-4.71
-3.65
-2.58
-2.16
-2.75
-4.33
-6.69
-9.45
-12.26
-14.81
-16.88
-18.32
-19.18
-19.74
-20.44
-21.83
-24.32
-28.02
-32.51
-36.97
-40.33
-41.53
-39.74
-34.65
-26.46
-15.77
-3.49
9.36
21.67
32.35
40.41
45.20
46.66
45.41
42.58
39.51
37.37
36.90
38.36
41.56
45.73
49.50
50.99
48.35
40.58
28.36
14.17
1.61
-6.09
-7.41
-3.21
3.86
10.73
15.28
16.88
15.99
13.09
7.91
-0.47
-12.81
-28.67
-46.03
-61.62
-72.34
-76.34
-73.70
-66.08
-55.84
-44.92
-34.40
-24.55
-15.31
-6.85
0.27
5.33
7.77
7.64
5.57
2.66
0.01
-1.51
-1.59
-0.37
1.71
4.14
6.46
8.32
9.53
9.96
9.56
8.36
6.47
3.95
0.84
-2.84
-7.04
-11.58
-16.14
-20.46
-24.46
-28.35
-32.60
-37.62
-43.39
-49.23
-53.77
-55.45
-53.03
-46.18
-35.68
-23.14
-10.42
1.00
10.36
17.58
22.99
26.89
29.41
30.48
30.11
28.55
26.29
23.89
21.77
20.10
18.79
17.69
16.75
16.07
15.83
16.14
16.77
17.30
17.16
15.94
13.59
10.44
7.03
3.83
1.01
-1.71
-4.92
-9.30
-15.31
-22.93
-31.63
-40.29
-47.51
-51.79
-52.03
-47.77
-39.38
-28.00
-15.21
-2.71
8.17
16.66
22.66
26.48
28.66
29.64
29.69
28.96
27.62
25.95
24.39
23.35
23.02
23.25
23.59
23.55
22.88
21.67
20.24
18.82
17.41
15.77
13.57
10.70
7.20
3.38
-0.51
-4.35
-8.22
-12.27
-16.71
-21.71
-27.38
-33.74
-40.47
-46.81
-51.51
-53.20
-50.86
-44.26
-34.12
-21.87
-9.11
2.82
13.10
21.32
27.39
31.31
33.17
33.22
31.87
29.62
27.00
24.40
22.12
20.41
19.43
19.20
19.54
19.94
19.72
18.27
15.31
11.06
6.16
1.32
-2.93
-6.53
-9.85
-13.48
-17.91
-23.38
-29.72
-36.42
-42.73
-47.75
-50.55
-50.27
-46.36
-38.78
-28.21
-15.90
-3.41
7.90
17.20
24.26
29.25
32.40
33.76
33.19
30.68
26.48
21.32
16.14
11.78
8.68
6.86
5.98
5.59
5.23
4.56
3.34
1.44
-1.14
-4.24
-7.60
-11.02
-14.41
-17.91
-21.88
-26.73
-32.69
-39.52
-46.42
-52.09
-55.12
-54.45
-49.72
-41.35
-30.38
-18.07
-5.56
6.29
16.85
25.62
32.16
36.21
37.77
37.23
35.26
32.54
29.62
26.84
24.39
22.37
20.79
19.53
18.36
16.97
15.17
12.94
10.39
7.67
4.83
1.80
-1.55
-5.25
-9.21
-13.42
-18.01
-23.34
-29.64
-36.62
-43.25
-47.95
-49.11
-45.82
-38.21
-27.41
-15.00
-2.53
8.94
18.86
26.97
33.12
37.23
39.39
39.85
39.03
37.29
34.87
31.91
28.58
25.23
22.32
20.16
18.75
17.69
16.38
14.28
11.17
7.21
2.83
-1.48
-5.36
-8.69
-11.64
-14.60
-18.10
-22.68
-28.75
-36.24
-44.50
-52.33
-58.15
-60.34
-57.78
-50.13
-38.00
-22.89
-6.78
8.43
21.39
31.48
38.72
43.37
45.76
46.14
44.78
42.17
39.03
36.05
33.70
32.07
30.91
29.86
28.69
27.44
26.29
25.34
24.42
23.15
21.06
17.84
13.50
8.37
2.98
-2.14
-6.67
-10.64
-14.42
-18.59
-23.75
-30.19
-37.67
-45.39
-52.02
-56.00
-55.96
-51.13
-41.70
-28.81
-14.23
0.08
12.59
22.49
29.72
34.72
37.97
39.76
40.14
39.16
37.14
34.68
32.41
30.78
29.85
29.29
28.74
27.95
26.93
25.91
25.08
24.48
23.90
22.97
21.29
18.61
14.82
10.08
4.77
-0.61
-5.67
-10.16
-14.16
-18.03
-22.25
-27.34
-33.66
-41.26
-49.65
-57.72
-63.85
-66.25
-63.62
-55.66
-43.32
-28.49
-13.28
0.64
12.53
22.39
30.57
37.18
41.92
44.29
44.01
41.43
37.46
33.42
30.39
28.85
28.62
29.06
29.41
29.21
28.31
26.83
25.02
23.03
20.92
18.60
16.03
13.11
9.88
6.36
2.66
-1.09
-4.76
-8.32
-11.85
-15.68
-20.22
-25.93
-32.98
-40.98
-48.87
-55.16
-58.31
-57.23
-51.66
-42.18
-30.01
-16.61
-3.39
8.57
18.49
25.94
30.80
33.24
33.71
32.73
30.80
28.30
25.53
22.77
20.34
18.53
17.50
17.18
17.41
17.84
18.19
18.16
17.45
15.73
12.72
8.39
3.06
-2.56
-7.60
-11.41
-13.90
-15.62
-17.52
-20.61
-25.40
-31.70
-38.66
-44.96
-49.19
-50.24
-47.44
-40.77
-30.84
-18.83
-6.22
5.49
15.19
22.32
26.86
29.24
30.05
29.75
28.63
26.83
24.51
21.91
19.37
17.25
15.78
14.97
14.56
14.20
13.52
12.30
10.55
8.33
5.71
2.65
-0.95
-5.17
-9.93
-14.99
-20.14
-25.20
-30.28
-35.62
-41.42
-47.52
-53.24
-57.29
-58.20
-54.85
-46.94
-35.20
-21.26
-7.04
5.83
16.37
24.28
29.72
32.95
34.27
33.96
32.39
30.03
27.37
24.80
22.56
20.71
19.28
18.29
17.72
17.44
17.20
16.61
15.38
13.31
10.37
6.69
2.46
-2.13
-6.91
-11.71
-16.38
-20.85
-25.17
-29.59
-34.49
-40.12
-46.39
-52.55
-57.28
-58.99
-56.37
-48.95
-37.37
-23.22
-8.49
5.02
16.19
24.69
30.69
34.60
36.73
37.27
36.35
34.21
31.27
28.08
25.09
22.53
20.42
18.56
16.81
15.08
13.38
11.79
10.34
8.95
7.47
5.68
3.33
0.29
-3.41
-7.54
-11.80
-15.93
-19.94
-24.09
-28.78
-34.34
-40.61
-46.86
-51.75
-53.77
-51.75
-45.32
-35.12
-22.56
-9.37
3.01
13.60
22.13
28.63
33.22
35.96
36.82
35.88
33.46
30.23
26.87
24.04
22.09
21.12
21.00
21.49
22.28
23.04
23.43
23.10
21.79
19.42
16.04
11.92
7.42
2.88
-1.41
-5.28
-8.74
-11.95
-15.33
-19.41
-24.69
-31.36
-38.95
-46.31
-51.87
-54.07
-51.82
-44.97
-34.37
-21.46
-7.99
4.62
15.47
24.21
30.83
35.48
38.23
39.20
38.57
36.72
34.16
31.49
29.15
27.36
26.14
25.38
24.99
24.87
24.92
24.99
24.83
24.23
23.02
21.15
18.66
15.64
12.21
8.49
4.77
1.41
-1.01
-1.94
-1.07
1.55
5.42
9.82
13.83
16.72
17.94
17.27
14.89
11.43
7.99
5.92
6.60
10.81
18.52
28.72
39.68
49.59
56.98
61.23
62.39
60.93
57.25
51.49
43.62
33.78
22.54
11.00
0.55
-7.84
-13.94
-18.44
-22.57
-27.46
-33.59
-40.48
-47.15
-52.52
-56.17
-58.37
-59.98
-61.93
-64.78
-68.58
-72.86
-76.85
-79.66
-80.37
-78.20
-72.67
-63.78
-52.13
-38.82
-25.04
-11.88
-0.06
9.97
17.94
23.57
26.63
27.09
25.23
21.75
17.55
13.51
10.28
8.18
7.13
6.87
7.00
7.11
6.89
6.15
4.75
2.62
-0.27
-3.81
-7.75
-11.78
-15.61
-19.12
-22.43
-25.92
-30.11
-35.36
-41.69
-48.51
-54.72
-58.87
-59.64
-56.24
-48.73
-38.06
-25.69
-13.24
-1.94
7.61
15.26
21.19
25.59
28.50
29.89
29.77
28.28
25.80
22.92
20.25
18.35
17.47
17.53
18.17
18.85
19.06
18.40
16.71
14.01
10.49
6.39
2.00
-2.41
-6.63
-10.59
-14.39
-18.37
-22.98
-28.61
-35.22
-42.14
-48.15
-51.73
-51.62
-47.18
-38.69
-27.23
-14.29
-1.42
10.22
19.92
27.38
32.59
35.77
37.20
37.25
36.19
34.22
31.45
28.08
24.40
20.88
18.05
16.34
15.85
16.27
16.99
17.30
16.62
14.73
11.75
7.97
3.74
-0.71
-5.26
-9.85
-14.47
-19.16
-24.08
-29.45
-35.41
-41.76
-47.77
-52.14
-53.36
-50.24
-42.48
-30.80
-16.83
-2.50
10.53
21.23
29.24
34.67
37.79
38.91
38.37
36.59
34.15
31.66
29.56
27.99
26.86
25.92
25.00
24.06
23.14
22.21
21.12
19.51
17.00
13.41
8.86
3.78
-1.28
-5.86
-9.82
-13.34
-16.87
-20.90
-25.88
-32.03
-39.19
-46.67
-53.29
-57.56
-58.06
-53.94
-45.25
-33.04
-19.06
-5.16
7.17
17.10
24.48
29.42
32.13
32.67
31.17
27.96
23.72
19.39
15.94
13.95
13.52
14.14
14.96
15.28
14.67
13.16
11.07
8.77
6.47
4.18
1.76
-0.93
-3.98
-7.33
-11.04
-15.18
-20.01
-25.71
-32.15
-38.61
-43.73
-45.86
-43.59
-36.44
-25.15
-11.55
2.08
13.78
22.44
28.03
31.21
32.84
33.50
33.37
32.36
30.32
27.33
23.74
20.09
17.02
14.93
13.95
13.76
13.75
13.18
11.57
8.78
5.09
1.00
-3.07
-6.90
-10.54
-14.16
-18.01
-22.23
-27.04
-32.64
-39.20
-46.57
-54.03
-60.21
-63.37
-61.92
-55.08
-43.27
-28.06
-11.69
3.67
16.46
26.09
32.65
36.62
38.47
38.61
37.41
35.28
32.72
30.25
28.13
26.40
24.90
23.47
22.03
20.67
19.47
18.37
17.14
15.50
13.20
10.19
6.57
2.52
-1.77
-6.22
-10.78
-15.50
-20.58
-26.33
-33.02
-40.62
-48.53
-55.45
-59.62
-59.38
-53.80
-43.18
-28.93
-13.19
1.83
14.54
24.21
30.92
35.13
37.37
37.93
36.94
34.49
30.85
26.60
22.54
19.43
17.65
17.14
17.45
17.96
18.23
18.06
17.46
16.45
14.93
12.60
9.24
4.89
-0.10
-5.17
-9.82
-13.88
-17.62
-21.57
-26.35
-32.29
-39.31
-46.74
-53.43
-57.88
-58.67
-54.88
-46.41
-34.12
-19.58
-4.57
9.32
21.12
30.43
37.20
41.56
43.63
43.58
41.73
38.62
34.93
31.35
28.32
26.02
24.34
23.12
22.17
21.45
20.96
20.69
20.44
19.85
18.48
15.95
12.17
7.38
2.07
-3.20
-8.00
-12.13
-15.71
-19.09
-22.75
-27.15
-32.59
-39.00
-45.87
-52.15
-56.47
-57.50
-54.29
-46.71
-35.45
-21.86
-7.61
5.78
17.23
26.25
32.79
37.08
39.37
39.90
38.91
36.74
33.85
30.86
28.40
26.89
26.38
26.58
26.96
27.07
26.65
25.74
24.50
23.04
21.23
18.84
15.60
11.47
6.65
1.52
-3.47
-7.98
-11.88
-15.26
-18.48
-22.04
-26.49
-32.23
-39.24
-46.88
-53.94
-58.86
-60.19
-57.06
-49.46
-38.24
-24.89
-11.09
1.68
12.36
20.42
25.82
28.88
30.03
29.66
28.09
25.63
22.63
19.57
16.96
15.19
14.37
14.35
14.79
15.31
15.71
15.86
15.70
15.05
13.62
11.17
7.66
3.41
-1.01
-4.99
-8.22
-10.86
-13.49
-16.88
-21.73
-28.22
-35.90
-43.67
-50.04
-53.48
-52.81
-47.60
-38.25
-25.92
-12.20
1.29
13.34
23.19
30.61
35.57
38.25
38.82
37.55
34.89
31.44
27.85
24.68
22.29
20.77
19.96
19.60
19.39
19.04
18.41
17.40
16.02
14.25
12.01
9.19
5.68
1.50
-3.14
-7.87
-12.37
-16.46
-20.32
-24.38
-29.16
-34.99
-41.83
-49.15
-55.89
-60.70
-62.22
-59.46
-52.15
-40.88
-27.01
-12.26
1.71
13.76
23.34
30.45
35.29
38.11
39.05
38.30
36.21
33.28
30.11
27.21
24.82
22.94
21.50
20.43
19.71
19.35
19.29
19.27
18.88
17.68
15.39
11.95
7.63
2.84
-1.99
-6.58
-10.88
-15.00
-19.20
-23.87
-29.35
-35.74
-42.72
-49.35
-54.26
-55.96
-53.36
-46.28
-35.50
-22.58
-9.26
3.01
13.31
21.25
26.76
29.95
30.98
30.15
27.92
24.89
21.70
18.79
16.41
14.61
13.37
12.59
12.23
12.18
12.25
12.25
11.98
11.33
10.24
8.67
6.53
3.77
0.47
-3.13
-6.67
-9.84
-12.59
-15.25
-18.45
-22.82
-28.68
-35.74
-43.13
-49.43
-53.16
-53.05
-48.55
-39.98
-28.45
-15.59
-3.02
8.11
17.32
24.67
30.43
34.74
37.53
38.63
38.08
36.18
33.52
30.70
28.10
25.84
23.78
21.77
19.76
17.87
16.25
15.02
14.08
13.12
11.72
9.53
6.36
2.34
-2.27
-7.09
-11.89
-16.55
-21.12
-25.72
-30.53
-35.67
-41.12
-46.61
-51.42
-54.45
-54.45
-50.47
-42.24
-30.50
-16.78
-2.99
9.19
18.71
25.32
29.35
31.38
31.98
31.48
30.11
28.03
25.49
22.80
20.30
18.17
16.48
15.15
14.09
13.22
12.46
11.72
10.83
9.51
7.50
4.67
1.13
-2.82
-6.70
-10.12
-12.91
-15.21
-17.38
-19.93
-23.23
-27.35
-31.94
-36.17
-38.96
-39.19
-36.00
-29.08
-18.76
-6.06
7.66
20.90
32.46
41.56
47.93
51.66
53.06
52.59
50.75
48.14
45.34
42.78
40.59
38.58
36.41
33.76
30.55
26.94
23.13
19.27
15.27
10.84
5.67
-0.45
-7.47
-15.04
-22.58
-29.37
-34.80
-38.49
-40.49
-41.36
-42.01
-43.48
-46.57
-51.56
-57.96
-64.54
-69.54
-71.19
-68.18
-60.18
-47.99
-33.26
-17.97
-3.87
8.01
17.27
24.00
28.49
31.01
31.80
31.17
29.57
27.48
25.37
23.56
22.22
21.35
20.78
20.33
19.74
18.86
17.64
16.23
14.89
13.76
12.82
11.73
10.03
7.36
3.66
-0.70
-5.07
-8.86
-11.73
-13.82
-15.76
-18.33
-22.28
-27.99
-35.23
-43.10
-50.15
-54.71
-55.32
-51.27
-42.77
-30.94
-17.42
-3.91
8.21
18.10
25.46
30.36
33.11
34.18
34.05
33.12
31.72
30.07
28.31
26.60
25.11
23.92
22.99
22.17
21.28
20.35
19.54
19.09
19.01
18.95
18.15
15.91
11.89
6.36
0.21
-5.54
-10.10
-13.23
-15.26
-16.91
-18.99
-22.19
-26.96
-33.24
-40.45
-47.42
-52.69
-54.84
-52.97
-46.95
-37.46
-25.70
-13.05
-0.73
10.34
19.63
26.83
31.91
34.95
36.08
35.49
33.43
30.37
26.98
24.00
21.94
20.87
20.37
19.86
18.93
17.62
16.32
15.50
15.19
14.96
14.11
12.06
8.72
4.44
-0.13
-4.48
-8.38
-11.82
-14.91
-17.81
-20.80
-24.31
-28.85
-34.75
-41.82
-49.06
-54.86
-57.45
-55.61
-49.15
-38.97
-26.68
-14.02
-2.28
7.83
16.18
22.79
27.60
30.43
31.10
29.74
26.82
23.10
19.44
16.51
14.61
13.76
13.73
14.18
14.76
15.19
15.26
14.88
13.95
12.38
10.00
6.71
2.58
-2.10
-6.90
-11.51
-15.90
-20.44
-25.68
-32.02
-39.22
-46.38
-52.00
-54.55
-52.94
-46.90
-37.07
-24.67
-11.21
1.79
13.13
22.06
28.22
31.67
32.75
31.97
29.91
27.05
23.81
20.58
17.66
15.44
14.16
13.95
14.67
15.93
17.19
17.88
17.62
16.14
13.40
9.56
4.96
0.00
-4.94
-9.63
-14.11
-18.62
-23.57
-29.28
-35.85
-43.00
-49.98
-55.72
-58.99
-58.70
-54.26
-45.84
-34.28
-21.00
-7.61
4.52
14.41
21.66
26.35
28.92
29.87
29.67
28.65
26.94
24.74
22.29
20.06
18.53
18.05
18.61
19.75
20.70
20.69
19.25
16.45
12.87
9.30
6.42
4.49
3.18
1.76
-0.63
-4.54
-10.05
-16.68
-23.58
-29.78
-34.39
-36.70
-36.20
-32.64
-26.10
-16.99
-6.07
5.80
17.96
30.07
41.95
53.34
63.35
70.32
72.13
67.01
54.59
36.74
17.38
1.45
-6.82
-5.59
3.96
18.25
32.74
43.85
50.01
51.66
50.32
47.34
43.09
37.01
28.28
16.60
2.54
-12.69
-27.91
-42.49
-56.48
-70.13
-83.28
-94.82
-102.86
-105.35
-101.01
-90.00
-73.98
-55.57
-37.53
-21.89
-9.57
-0.51
5.98
10.59
13.71
15.38
15.57
14.38
12.21
9.73
7.54
6.07
5.36
5.21
5.36
5.50
5.38
4.76
3.41
1.23
-1.70
-5.06
-8.56
-12.04
-15.68
-19.88
-24.99
-31.18
-38.26
-45.73
-52.81
-58.51
-61.70
-61.31
-56.66
-47.79
-35.55
-21.51
-7.44
5.22
15.67
23.80
29.79
33.85
36.00
36.19
34.52
31.39
27.57
23.91
21.19
19.80
19.64
20.17
20.62
20.32
18.95
16.58
13.60
10.48
7.50
4.66
1.74
-1.64
-5.86
-11.16
-17.63
-25.02
-32.67
-39.45
-43.91
-44.64
-40.82
-32.49
-20.67
-7.07
6.45
18.42
28.03
35.13
39.97
42.89
44.05
43.48
41.22
37.52
32.94
28.19
24.01
20.84
18.69
17.32
16.35
15.42
14.33
12.94
11.07
8.50
5.06
0.72
-4.32
-9.72
-15.10
-20.34
-25.64
-31.49
-38.31
-46.12
-54.17
-60.96
-64.61
-63.43
-56.70
-44.94
-29.87
-13.72
1.45
14.42
24.79
32.76
38.61
42.41
44.09
43.62
41.36
37.96
34.25
30.87
28.08
25.85
24.02
22.46
21.16
20.13
19.23
18.23
16.86
14.90
12.24
8.83
4.66
-0.30
-5.96
-12.15
-18.64
-25.26
-32.04
-39.06
-46.21
-52.78
-57.51
-58.76
-55.22
-46.59
-33.75
-18.56
-3.25
10.37
21.30
29.33
34.73
37.83
38.91
38.28
36.39
33.90
31.55
29.86
28.97
28.64
28.42
27.97
27.22
26.39
25.70
25.14
24.39
22.95
20.41
16.67
12.06
7.10
2.35
-1.92
-5.76
-9.53
-13.71
-18.68
-24.76
-31.96
-39.94
-47.88
-54.47
-58.14
-57.47
-51.69
-41.05
-26.89
-11.20
3.91
16.91
27.07
34.44
39.40
42.29
43.21
42.24
39.62
36.02
32.38
29.61
28.13
27.79
27.94
27.90
27.31
26.23
24.99
23.85
22.73
21.26
18.95
15.54
11.21
6.48
2.00
-1.83
-5.02
-8.04
-11.58
-16.32
-22.61
-30.40
-39.18
-48.01
-55.58
-60.47
-61.41
-57.62
-49.20
-37.09
-22.91
-8.51
4.60
15.51
23.92
29.98
33.94
36.05
36.45
35.29
32.83
29.45
25.69
22.05
19.01
16.83
15.55
15.01
14.86
14.73
14.26
13.20
11.41
8.86
5.57
1.67
-2.70
-7.33
-12.07
-16.84
-21.75
-27.05
-32.91
-39.33
-45.76
-51.13
-54.07
-53.26
-48.03
-38.57
-26.00
-11.95
1.92
14.34
24.50
32.11
37.18
39.89
40.52
39.34
36.71
33.01
28.70
24.30
20.29
17.10
14.89
13.62
12.94
12.39
11.52
10.01
7.75
4.79
1.30
-2.56
-6.68
-11.04
-15.74
-20.90
-26.62
-32.92
-39.72
-46.74
-53.49
-59.04
-62.17
-61.61
-56.52
-46.93
-33.88
-19.13
-4.68
7.97
18.03
25.53
30.87
34.52
36.68
37.41
36.73
34.78
32.01
28.89
25.97
23.59
21.93
20.92
20.35
19.86
19.07
17.66
15.44
12.40
8.63
4.30
-0.41
-5.39
-10.57
-15.99
-21.72
-27.96
-34.81
-42.24
-49.86
-56.79
-61.80
-63.50
-60.82
-53.35
-41.59
-26.83
-10.83
4.68
18.29
29.18
37.03
41.95
44.26
44.42
43.03
40.70
38.02
35.38
32.94
30.67
28.49
26.43
24.61
23.20
22.18
21.29
20.15
18.34
15.69
12.29
8.45
4.50
0.61
-3.31
-7.54
-12.45
-18.41
-25.65
-34.13
-43.34
-52.32
-59.60
-63.53
-62.71
-56.50
-45.34
-30.66
-14.57
0.84
14.08
24.50
32.20
37.69
41.38
43.40
43.74
42.40
39.77
36.59
33.75
31.89
31.15
31.15
31.18
30.61
29.19
27.16
25.05
23.30
21.97
20.59
18.55
15.28
10.69
5.20
-0.51
-5.81
-10.45
-14.63
-18.81
-23.58
-29.30
-36.05
-43.47
-50.75
-56.72
-60.04
-59.56
-54.68
-45.65
-33.45
-19.48
-5.07
8.81
21.61
32.81
41.85
47.90
50.29
48.88
44.50
38.84
33.94
31.48
31.99
34.69
37.82
39.48
38.53
35.19
30.85
27.52
26.79
29.20
33.96
39.26
42.79
42.40
36.59
24.88
8.32
-10.30
-26.76
-36.50
-36.15
-25.20
-6.50
14.54
32.02
41.78
42.73
36.57
26.42
14.94
3.42
-8.07
-19.65
-30.73
-39.69
-44.60
-44.33
-39.34
-31.72
-24.24
-19.29
-17.77
-18.98
-21.13
-22.35
-21.55
-18.85
-15.29
-12.14
-10.27
-9.68
-9.79
-9.80
-9.24
-8.22
-7.39
-7.56
-9.32
-12.71
-17.18
-21.88
-25.87
-28.63
-30.23
-31.31
-32.90
-35.93
-40.96
-47.74
-55.19
-61.54
-64.82
-63.46
-56.83
-45.48
-30.99
-15.38
-0.46
12.57
23.29
31.73
38.00
42.07
43.77
43.08
40.43
36.69
32.92
30.00
28.25
27.38
26.85
26.12
25.05
23.80
22.70
21.86
21.04
19.76
17.47
13.87
9.06
3.48
-2.31
-7.77
-12.60
-16.73
-20.35
-23.81
-27.51
-31.91
-37.28
-43.63
-50.47
-56.81
-61.19
-62.08
-58.36
-49.75
-37.11
-22.12
-6.88
6.86
18.05
26.48
32.48
36.57
39.03
39.86
39.00
36.57
33.02
29.19
25.92
23.84
23.07
23.22
23.57
23.50
22.69
21.29
19.73
18.34
17.12
15.68
13.45
10.09
5.75
0.99
-3.43
-7.00
-9.79
-12.43
-15.89
-21.03
-28.20
-37.02
-46.45
-54.88
-60.55
-61.94
-58.15
-49.26
-36.38
-21.37
-6.33
6.96
17.54
25.31
30.73
34.40
36.69
37.63
37.15
35.35
32.65
29.71
27.16
25.36
24.28
23.63
23.07
22.42
21.63
20.74
19.69
18.25
16.18
13.23
9.43
4.99
0.24
-4.42
-8.69
-12.38
-15.53
-18.35
-21.30
-24.93
-29.71
-35.78
-42.68
-49.44
-54.65
-56.91
-55.11
-48.88
-38.67
-25.72
-11.75
1.41
12.30
20.18
