1707310249.00
64.000000
-0.00
-0.00
-0.00
-0.00
-0.00
-0.00
-0.00
-0.00
-0.00
-0.00
0.00
0.01
0.01
-0.00
-0.03
-0.05
-0.05
0.00
0.13
0.36
0.66
1.01
1.37
1.72
2.06
2.40
2.79
3.24
3.80
4.42
5.06
5.66
6.20
6.68
7.15
7.68
8.31
9.14
10.09
11.04
11.88
12.56
13.14
13.76
14.65
15.96
17.91
20.32
22.90
25.38
27.58
29.57
31.68
34.32
37.81
42.54
48.15
54.10
59.83
64.97
69.58
74.14
79.34
85.71
93.76
103.00
112.62
121.73
129.77
136.75
143.30
150.75
157.77
166.64
177.95
191.79
206.97
220.57
228.25
225.36
208.53
176.87
132.76
80.05
23.07
-34.94
-92.44
-149.16
-205.23
-260.37
-313.74
-363.87
-409.83
-450.91
-486.50
-515.74
-537.23
-549.22
-549.96
-538.37
-514.21
-478.67
-433.88
-382.45
-327.02
-269.84
-212.63
-156.66
-102.95
-52.37
-5.90
35.58
71.43
101.35
125.50
144.38
158.69
169.15
176.37
180.75
182.57
182.07
179.51
175.23
169.65
163.18
156.15
148.81
141.30
133.69
126.02
118.33
110.69
103.16
95.80
88.68
81.83
75.25
68.95
62.95
57.25
51.86
46.78
42.03
37.59
33.45
29.61
26.07
22.81
19.82
17.11
14.67
12.48
10.54
8.83
7.35
6.08
4.99
4.08
3.32
2.69
2.18
1.78
1.46
1.21
1.03
0.89
0.80
0.74
0.71
0.70
0.70
0.72
0.75
0.79
0.84
0.89
0.96
1.03
1.11
1.21
1.31
1.43
1.56
1.72
1.89
2.07
2.29
2.52
2.78
3.06
3.38
3.73
4.10
4.52
4.97
5.46
5.98
6.55
7.16
7.80
8.50
9.24
10.02
10.85
11.73
12.65
13.62
14.64
15.74
16.89
18.11
19.38
20.69
21.98
23.19
24.23
25.00
25.37
25.23
24.47
22.99
20.79
17.86
14.30
10.17
5.69
1.04
-3.57
-7.91
-11.79
-15.07
-17.62
-19.40
-20.42
-20.70
-20.33
-19.43
-18.12
-16.53
-14.74
-12.85
-10.90
-8.94
-6.94
-4.95
-2.96
-0.97
1.06
3.14
5.25
7.38
9.54
11.77
13.98
16.19
18.43
20.77
23.24
25.88
28.69
31.72
35.07
38.59
42.28
46.16
50.29
54.65
59.19
63.81
68.45
73.20
77.79
82.19
86.54
90.96
95.51
100.06
104.42
108.40
112.02
114.90
117.08
118.74
119.94
120.33
119.02
114.50
104.64
91.62
76.18
59.30
42.12
25.54
9.92
-5.04
-20.19
-36.41
-54.11
-73.50
-93.93
-114.24
-133.41
-151.04
-167.48
-183.73
-201.18
-221.30
-245.90
-275.81
-310.16
-345.90
-377.75
-399.39
-405.38
-393.18
-364.13
-323.31
-277.26
-231.66
-189.92
-152.89
-119.91
-90.15
-63.52
-40.59
-22.18
-8.50
1.21
8.26
14.02
19.35
24.43
28.96
32.61
35.40
37.86
40.85
45.06
50.67
57.05
62.98
67.15
68.66
67.35
63.70
58.49
52.38
45.69
38.59
31.37
24.82
20.12
18.56
21.03
27.72
37.96
50.49
63.77
76.31
86.89
94.71
99.51
101.59
101.69
100.80
99.82
99.23
99.03
98.89
98.40
97.24
95.32
92.66
89.21
84.83
79.24
72.10
63.15
52.39
40.21
27.34
14.64
2.86
-7.64
-16.94
-25.37
-33.22
-40.52
-46.96
-52.14
-55.75
-57.68
-58.04
-57.00
-54.77
-51.64
-48.00
-44.29
-40.78
-37.42
-33.76
-29.22
-23.43
-16.37
-8.52
-0.49
7.14
14.11
20.38
26.06
31.21
35.82
39.86
43.32
46.21
48.58
50.37
51.47
51.69
50.77
48.50
44.71
39.41
32.93
25.82
18.84
12.64
7.57
3.55
0.16
-3.20
-7.06
-11.72
-17.16
-22.98
-28.55
-33.07
-35.75
-36.02
-33.65
-28.82
-22.05
-13.99
-5.27
3.56
12.01
19.51
25.47
29.35
30.90
30.33
28.44
26.46
25.62
26.65
29.53
33.39
36.87
38.49
37.32
33.32
27.43
21.07
15.48
11.16
7.68
3.90
-1.85
-11.16
-24.83
-42.22
-60.98
-77.51
-88.05
-90.18
-84.02
-72.67
-60.73
-52.17
-48.41
-48.03
-48.32
-47.04
-43.58
-37.40
-28.94
-19.16
-9.43
-0.90
5.97
11.29
16.25
23.26
35.14
52.48
73.69
94.06
108.67
114.87
113.11
106.41
98.86
93.72
91.42
90.22
88.06
82.04
72.47
61.26
50.54
40.32
32.11
27.23
25.78
26.74
28.67
30.50
30.99
28.60
21.97
11.08
-2.78
-16.80
-27.47
-31.86
-28.88
-17.52
-1.00
15.53
27.48
31.99
28.62
19.08
6.43
-5.70
-14.08
-16.82
-13.18
-3.75
9.15
21.94
31.06
34.09
30.47
21.16
7.50
-9.01
-27.12
-46.37
-66.83
-88.51
-110.64
-131.69
-149.82
-163.78
-172.76
-176.50
-175.73
-172.19
-167.77
-163.71
-160.38
-157.72
-155.86
-154.48
-152.45
-148.73
-143.31
-136.87
-129.77
-121.75
-111.97
-99.65
-83.40
-61.11
-31.05
7.08
52.51
104.01
159.54
215.76
263.73
290.61
289.90
267.31
235.36
204.66
180.35
162.59
149.09
135.93
121.47
106.85
94.04
84.06
75.73
67.95
60.11
52.05
41.69
28.36
13.11
-2.88
-19.91
-39.59
-63.53
-93.03
-123.51
-152.53
-176.56
-191.92
-196.72
-192.04
-180.98
-166.52
-150.50
-123.88
-86.67
-45.86
-10.67
13.60
27.10
33.42
37.09
41.45
47.68
52.64
53.17
47.70
36.80
22.64
8.49
-1.96
-6.07
-2.98
4.52
13.03
19.75
22.80
21.08
14.24
2.99
-10.73
-24.03
-34.37
-39.15
-37.06
-29.18
-18.80
-9.61
-3.42
0.37
4.18
10.08
18.75
28.77
37.33
41.92
42.34
41.25
42.08
47.16
56.08
66.17
74.06
77.65
75.01
65.14
51.34
38.80
31.40
29.18
29.00
27.42
23.17
17.44
12.66
11.25
12.08
12.29
9.29
2.52
-6.11
-13.23
-15.96
-13.04
-5.17
5.12
14.37
19.79
20.34
16.52
9.43
-0.03
-11.26
-23.55
-35.96
-46.99
-54.77
-57.66
-54.92
-47.17
-36.17
-24.05
-12.51
-2.53
5.75
12.62
18.31
22.66
25.05
24.74
21.35
15.18
7.17
-1.33
-8.87
-14.30
-16.93
-16.60
-13.71
-9.05
-3.83
0.64
3.06
2.59
-1.03
-7.41
-15.66
-24.69
-33.57
-41.74
-48.96
-55.12
-59.89
-62.59
-62.30
-58.16
-49.81
-37.64
-22.93
-7.63
5.87
15.21
18.76
16.15
8.83
-0.12
-6.62
-6.87
1.39
18.00
40.46
64.74
86.67
103.07
112.40
114.82
111.78
105.45
98.19
92.11
88.49
87.61
88.52
89.30
87.51
80.88
68.19
49.90
28.31
7.06
-9.79
-19.02
-19.19
-11.32
1.31
14.12
22.69
24.15
17.93
5.70
-9.57
-24.85
-37.96
-48.00
-54.91
-59.00
-60.38
-58.98
-55.02
-49.41
-43.79
-39.83
-38.37
-38.79
-39.22
-37.37
-31.80
-22.61
-11.46
-0.75
7.57
12.75
15.32
16.51
17.46
18.68
20.05
21.17
21.64
21.39
20.48
19.11
17.42
15.60
13.87
12.40
11.08
9.52
6.98
2.73
-3.57
-11.45
-19.60
-26.19
-29.54
-28.85
-24.62
-18.60
-13.20
-10.69
-12.52
-18.99
-29.36
-42.00
-54.82
-65.62
-72.48
-74.48
-72.03
-66.87
-61.33
-57.51
-56.24
-56.97
-58.35
-59.04
-58.42
-56.52
-53.51
-49.06
-42.39
-32.71
-19.76
-4.24
12.31
27.64
39.48
45.94
45.98
39.68
28.16
13.60
-1.14
-13.21
-20.59
-22.34
-18.66
-10.51
0.61
12.40
22.56
29.22
31.22
27.89
19.29
6.40
-8.80
-23.47
-35.45
-42.69
-43.66
-37.94
-27.16
-14.54
-3.79
2.29
2.82
-2.66
-12.38
-22.80
-30.10
-32.43
-30.66
-27.72
-26.94
-30.59
-41.11
-58.34
-79.63
-101.27
-120.58
-136.66
-149.58
-159.39
-152.35
-122.55
-75.93
-27.14
11.26
34.30
43.82
45.62
46.80
53.15
64.04
77.50
90.08
98.34
99.53
92.71
79.55
64.10
51.29
43.45
41.64
46.20
56.49
70.39
84.78
96.65
104.03
106.36
103.28
95.43
84.03
70.20
54.44
37.08
18.90
1.88
-11.36
-19.00
-20.53
-17.18
-11.62
-7.20
-6.77
-11.98
-22.71
-37.30
-52.91
-65.75
-71.83
-67.96
-53.03
-28.52
1.66
32.40
58.81
77.57
87.33
88.35
81.77
68.77
50.34
27.43
1.40
-25.78
-51.54
-73.14
-88.19
-95.08
-93.04
-81.90
-61.91
-33.77
0.88
39.07
76.42
107.86
129.15
138.27
136.15
126.16
112.53
98.49
85.14
71.54
55.80
36.55
13.87
-10.72
-34.97
-56.70
-74.26
-86.44
-92.32
-91.27
-83.21
-69.03
-50.79
-31.48
-14.23
-1.52
5.59
7.52
5.84
2.61
-0.38
-2.00
-1.88
-0.17
2.70
6.23
9.93
13.28
15.72
16.82
16.38
14.55
11.87
9.00
6.46
4.45
2.73
0.79
-1.94
-5.82
-10.80
-16.35
-21.52
-25.27
-26.66
-25.17
-20.85
-14.25
-6.22
2.27
10.40
17.58
23.42
27.75
30.55
31.87
31.86
30.80
29.04
27.00
25.10
23.65
22.78
22.39
22.24
21.98
21.26
19.82
17.47
14.20
10.21
5.87
1.69
-1.87
-4.53
-6.33
-7.61
-8.91
-10.82
-13.80
-18.04
-23.28
-28.85
-33.73
-36.82
-37.28
-34.90
-30.14
-23.97
-17.44
-11.30
-5.78
-0.71
4.17
8.84
12.83
15.42
15.89
13.91
9.79
4.36
-1.22
-5.86
-8.81
-9.93
-9.60
-8.66
-8.07
-8.64
-10.77
-14.38
-19.01
-23.92
-28.49
-32.37
-35.78
-39.39
-44.24
-51.38
-61.41
-74.10
-88.09
-100.88
-109.08
-109.30
-99.08
-77.75
-46.92
-10.26
27.37
61.10
87.19
103.77
111.00
110.71
105.62
98.53
91.63
86.06
81.87
78.22
73.97
67.97
59.58
48.83
36.55
24.23
13.64
6.42
3.40
4.35
7.88
12.07
15.17
16.24
15.28
12.82
9.38
5.10
-0.08
-5.95
-11.55
-15.30
-15.68
-12.11
-5.60
1.54
6.68
8.12
5.82
1.34
-3.12
-5.88
-6.54
-5.91
-5.33
-5.79
-7.49
-9.95
-12.56
-15.17
-18.23
-22.29
-27.55
-33.64
-39.57
-44.37
-47.46
-49.05
-49.84
-50.52
-51.36
-52.26
-53.12
-54.23
-56.33
-60.29
-66.65
-75.22
-85.11
-94.87
-103.36
-110.23
-116.00
-121.57
-127.50
-133.60
-138.72
-140.77
-136.72
-123.94
-100.94
-67.54
-24.84
25.10
78.34
129.07
170.41
197.04
205.60
195.39
169.11
132.11
91.66
53.63
21.11
-5.48
-25.90
-41.05
-53.28
-64.82
-76.53
-86.06
-90.07
-85.16
-68.18
-34.82
16.44
81.85
153.03
219.16
271.85
305.41
318.46
301.21
255.28
196.42
143.66
109.87
87.06
67.30
46.26
22.29
-2.94
-24.66
-39.50
-47.92
-53.36
-60.20
-69.94
-82.48
-96.65
-110.49
-120.77
-126.04
-127.56
-127.68
-127.54
-124.62
-115.68
-99.09
-76.29
-50.80
-27.82
-12.27
-6.20
-7.91
-12.33
-14.56
-12.01
-4.56
7.01
21.64
38.36
56.01
72.88
86.71
94.87
95.50
88.86
77.74
66.25
58.05
54.97
56.52
60.57
64.14
64.80
61.54
54.79
45.83
36.01
26.14
16.44
6.73
-3.10
-12.64
-20.69
-25.78
-26.91
-24.19
-18.95
-13.19
-8.75
-6.67
-6.73
-7.55
-7.71
-6.62
-4.88
-3.68
-3.99
-5.91
-9.55
-14.37
-19.33
-23.58
-27.00
-30.11
-33.28
-36.35
-38.66
-41.19
-44.45
-47.76
-49.69
-49.39
-47.08
-43.59
-39.84
-36.59
-37.12
-43.13
-53.30
-64.05
-72.26
-76.63
-77.48
-76.12
-74.58
-78.93
-93.87
-119.93
-153.55
-189.77
-223.73
-251.38
-270.22
-257.60
-206.43
-131.58
-58.94
-5.13
27.94
46.19
56.19
62.05
65.30
62.60
52.32
36.86
21.39
9.91
3.60
1.33
1.16
1.53
-1.05
-7.73
-16.54
-23.72
-27.05
-25.67
-20.75
-14.14
-7.48
-3.60
-3.44
-6.07
-9.36
-11.84
-13.30
-14.57
-16.54
-19.72
-25.00
-31.82
-38.88
-44.59
-47.91
-48.48
-46.37
-41.22
-31.61
-20.27
-7.48
6.95
23.17
40.87
59.36
77.70
95.21
111.51
126.51
141.03
155.87
171.92
190.01
210.49
232.57
253.94
270.96
279.59
277.34
263.78
240.81
211.97
181.10
151.21
124.02
100.39
80.84
66.17
56.75
51.96
49.89
47.74
42.79
33.48
19.95
3.83
-12.32
-26.17
-36.22
-42.02
-43.97
-42.99
-40.24
-36.85
-33.80
-31.75
-31.06
-31.76
-33.60
-36.11
-38.77
-41.00
-42.31
-42.32
-40.82
-37.90
-33.90
-29.40
-24.99
-21.12
-17.93
-15.31
-12.96
-10.67
-8.46
-6.57
-5.38
-5.15
-5.83
-7.09
-8.39
-9.25
-9.44
-9.03
-8.31
-7.63
-7.29
-7.44
-8.14
-9.36
-10.93
-12.59
-14.04
-14.97
-15.31
-15.26
-15.23
-15.71
-16.97
-18.92
-21.21
-23.30
-24.74
-25.22
-24.57
-22.71
-19.66
-15.56
-10.73
-5.73
-1.16
2.50
5.04
6.55
7.29
7.53
7.44
7.07
6.41
5.47
4.33
3.13
2.04
1.26
0.89
0.93
1.32
1.85
2.22
2.12
1.31
-0.30
-2.55
-5.14
-7.62
-9.64
-11.04
-11.93
-12.58
-13.33
-14.37
-15.75
-17.25
-18.53
-19.19
-18.94
-17.64
-15.34
-12.29
-8.87
-5.45
-2.30
0.45
2.83
4.91
6.71
8.17
9.15
9.53
9.26
8.38
7.01
5.41
3.87
2.72
2.18
2.27
2.79
3.42
3.79
3.75
3.30
2.55
1.61
0.39
-1.22
-3.29
-5.66
-8.07
-10.31
-12.40
-14.60
-17.30
-20.61
-24.22
-27.34
-29.00
-28.44
-25.42
-20.42
-14.36
-8.37
-3.34
0.26
2.50
3.73
4.42
4.92
5.37
5.72
5.90
5.89
5.73
5.46
5.08
4.52
3.72
2.69
1.47
0.15
-1.20
-2.49
-3.64
-4.60
-5.44
-6.45
-8.07
-10.69
-14.42
-18.88
-23.34
-26.94
-29.05
-29.51
-28.53
-26.51
-23.88
-20.97
-18.11
-15.60
-13.74
-12.77
-12.74
-13.46
-14.48
-15.21
-15.07
-13.69
-11.05
-7.44
-3.35
0.73
4.46
7.74
10.66
13.33
15.78
17.80
19.05
19.17
18.01
15.77
13.00
10.49
9.03
9.07
10.62
13.27
16.43
19.53
22.07
23.66
23.95
22.85
20.65
18.20
16.66
17.08
19.91
24.97
31.80
40.27
50.77
63.85
79.53
96.89
114.22
129.80
142.60
152.65
160.61
167.10
172.18
175.30
175.66
172.74
166.54
157.53
146.43
134.12
121.67
110.33
101.36
95.58
92.94
92.43
92.37
91.00
87.14
80.54
71.91
62.57
53.93
46.91
41.68
37.70
34.02
29.80
24.66
18.76
12.64
6.98
2.15
-1.94
-5.90
-10.73
-17.60
-27.59
-41.34
-58.63
-78.09
-97.26
-113.19
-123.81
-129.14
-132.00
-137.43
-151.11
-177.25
-217.03
-268.04
-324.95
-380.96
-429.47
-465.48
-486.40
-492.24
-485.22
-469.02
-447.70
-424.75
-402.41
-381.64
-362.26
-343.42
-323.94
-302.56
-278.20
-250.22
-218.74
-184.74
-149.81
-115.59
-83.21
-52.79
-23.33
6.83
39.34
74.92
112.69
149.94
182.73
206.99
219.97
221.12
212.30
197.03
179.29
162.32
147.94
136.45
127.07
118.52
109.51
99.08
86.72
72.55
57.35
42.52
29.82
21.04
17.49
19.66
27.07
38.27
51.22
63.73
73.93
80.61
83.23
81.86
77.01
69.54
60.70
52.01
44.99
40.64
39.06
39.26
39.63
38.73
35.98
31.89
27.56
24.01
21.51
19.53
17.19
13.79
9.13
3.46
-2.83
-9.45
-16.04
-21.89
-25.90
-26.81
-23.98
-17.79
-9.78
-2.02
3.85
7.33
9.17
10.72
13.19
16.83
20.91
24.18
25.52
24.59
21.83
18.18
14.69
12.15
10.97
11.26
12.93
15.66
18.93
21.98
24.02
24.53
23.53
21.74
20.23
19.84
20.57
21.34
20.35
15.97
7.75
-3.13
-14.19
-22.54
-26.12
-24.47
-18.65
-10.63
-2.31
5.05
10.87
15.10
17.93
19.67
20.72
21.58
22.67
24.19
26.06
27.98
29.55
30.36
29.93
27.74
23.29
16.45
7.68
-1.89
-10.63
-16.98
-19.93
-19.47
-16.60
-13.07
-11.03
-12.45
-18.63
-29.81
-44.94
-61.70
-76.96
-87.53
-90.99
-86.22
-73.59
-54.66
-31.64
-6.71
18.36
42.28
63.89
81.81
94.35
100.00
98.10
89.63
77.29
64.88
55.97
52.67
54.88
60.71
67.57
73.52
78.00
81.63
85.23
88.83
91.26
90.78
85.99
76.67
64.03
49.94
36.02
22.90
10.31
-2.31
-14.93
-26.55
-35.47
-40.06
-39.51
-34.32
-25.99
-16.51
-7.55
-0.03
5.98
11.00
15.61
20.05
24.01
26.79
27.77
26.83
24.53
21.79
19.49
18.06
17.26
16.38
14.75
12.20
9.17
6.44
4.55
3.53
2.99
2.51
1.90
1.23
0.68
0.18
-0.61
-2.25
-4.87
-7.57
-8.46
-5.43
2.86
16.32
33.33
51.53
68.30
82.07
92.87
101.98
110.77
119.86
129.19
138.24
146.57
153.03
156.61
157.37
156.66
155.97
156.18
157.53
159.30
160.47
158.54
151.39
139.07
123.82
107.89
91.71
74.03
52.12
23.14
-17.36
-73.33
-145.44
-229.79
-319.28
-405.21
-478.31
-531.52
-549.43
-523.80
-464.29
-394.14
-333.18
-288.57
-259.40
-237.52
-218.25
-199.73
-183.35
-170.20
-159.20
-146.75
-129.45
-106.15
-77.57
-45.98
-13.27
18.18
47.06
74.47
103.42
136.17
172.15
208.13
238.76
259.19
265.75
257.71
238.03
212.21
185.36
160.08
136.55
113.53
90.50
68.21
48.79
35.01
28.79
29.86
35.66
42.64
47.73
49.60
48.54
45.60
41.71
37.09
31.27
23.69
14.44
4.46
-4.76
-12.00
-17.02
-20.75
-24.93
-31.36
-40.95
-53.29
-66.80
-79.36
-89.30
-96.08
-100.34
-103.35
-106.18
-108.95
-110.82
-110.63
-107.85
-103.12
-98.01
-94.12
-92.03
-90.91
-88.89
-84.02
-75.27
-62.91
-48.38
-33.52
-19.86
-8.14
1.67
10.08
17.60
24.51
30.72
35.92
39.78
42.22
43.56
44.54
46.11
49.08
53.78
59.85
66.26
71.70
75.02
75.70
74.04
70.98
67.65
64.87
62.75
60.72
57.93
53.65
47.64
40.10
31.48
22.22
12.68
3.23
-5.53
-12.68
-17.18
-18.32
-16.07
-11.23
-5.14
0.92
6.25
10.93
15.54
20.53
25.72
30.17
32.59
32.04
28.49
23.03
17.38
13.15
11.20
11.33
12.60
13.95
14.71
14.83
14.67
14.60
14.56
14.10
12.69
10.05
6.45
2.60
-0.74
-3.14
-4.76
-6.16
-7.89
-10.03
-11.97
-12.58
-10.70
-5.74
2.10
11.81
22.07
31.70
40.01
46.84
52.23
56.18
58.45
58.73
56.87
53.16
48.39
43.61
39.79
37.51
36.67
36.61
36.34
34.96
32.12
28.14
23.90
20.30
17.78
15.96
13.85
10.40
5.07
-1.89
-9.60
-17.07
-23.73
-29.45
-34.27
-37.95
-39.80
-39.09
-35.48
-29.48
-22.34
-15.53
-10.01
-5.84
-2.22
1.73
6.27
10.62
13.43
13.56
10.92
6.31
1.29
-2.30
-3.20
-1.28
2.57
7.02
10.90
13.65
14.96
14.73
13.51
11.86
10.30
9.15
9.07
10.89
15.53
22.25
28.68
32.16
30.02
20.81
4.69
-15.15
-33.16
-42.20
-38.33
-21.30
6.53
40.33
74.00
100.22
114.26
115.53
109.44
100.67
87.62
71.25
55.05
42.29
30.86
18.08
1.60
-14.38
-28.55
-41.91
-55.90
-72.19
-92.88
-123.54
-168.42
-228.31
-296.47
-369.49
-443.96
-514.57
-573.43
-591.56
-552.62
-463.52
-373.76
-297.96
-239.01
-189.03
-144.99
-104.17
-64.93
-30.23
-2.75
18.25
41.03
69.76
105.68
147.11
191.05
232.75
264.03
278.42
274.34
258.57
236.80
213.69
191.79
172.38
155.24
137.82
118.50
98.16
81.47
70.47
64.96
62.78
61.77
60.28
56.70
50.41
41.91
33.28
25.51
19.08
14.11
10.81
9.11
8.27
7.48
6.39
5.57
5.41
5.89
6.43
6.32
5.16
3.41
2.44
3.91
8.79
16.63
25.47
32.65
35.95
34.48
28.97
21.39
14.12
9.03
6.94
7.34
8.61
8.65
5.68
-0.91
-10.13
-19.73
-27.14
-30.63
-30.15
-27.20
-24.03
-22.53
-23.46
-26.48
-30.75
-35.53
-40.37
-44.89
-48.28
-49.31
-46.80
-40.34
-30.86
-20.32
-10.89
-4.06
-0.09
1.87
3.07
4.53
6.71
9.49
12.53
15.55
18.35
20.72
22.35
22.83
21.92
19.77
17.00
14.43
12.71
11.94
11.61
10.85
8.80
5.08
-0.15
-6.34
-12.89
-19.47
-25.90
-31.94
-36.91
-39.64
-38.83
-33.72
-24.55
-12.72
-0.35
10.54
18.72
24.11
27.45
29.69
31.39
32.42
32.24
30.48
27.41
24.08
21.92
22.05
24.62
28.63
32.30
33.82
32.20
27.68
21.50
15.25
10.09
6.33
3.45
0.55
-3.18
-8.17
-14.57
-22.32
-31.21
-40.63
-49.35
-55.59
-57.44
-53.67
-44.43
-31.39
-17.24
-4.68
4.59
10.36
13.70
16.17
18.92
22.08
24.92
26.33
25.67
23.21
20.08
17.80
17.52
19.56
23.30
27.46
30.64
31.79
30.45
26.72
21.11
14.26
6.86
-0.56
-7.57
-13.94
-19.67
-24.96
-30.16
-35.59
-41.24
-46.62
-50.76
-52.50
-50.92
-45.81
-37.69
-27.71
-17.13
-6.98
2.23
10.42
17.69
24.17
29.84
34.55
38.08
40.26
41.03
40.53
38.98
36.69
33.85
30.58
27.02
23.44
20.35
18.25
17.37
17.36
17.35
16.26
13.36
8.57
2.46
-4.14
-10.58
-16.64
-22.52
-28.47
-34.50
-40.19
-44.73
-47.15
-46.64
-42.85
-36.00
-26.90
-16.70
-6.64
2.32
9.76
15.72
20.57
24.66
28.13
30.85
32.59
33.19
32.68
31.35
29.54
27.56
25.62
23.75
21.97
20.19
18.31
16.19
13.67
10.64
7.15
3.40
-0.37
-3.99
-7.52
-11.21
-15.40
-20.39
-26.23
-32.71
-39.26
-44.99
-48.78
-49.52
-46.50
-39.70
-29.93
-18.62
-7.43
2.35
10.09
15.86
20.15
23.50
26.21
28.34
29.89
30.93
31.77
32.75
34.03
35.37
36.08
35.23
32.16
26.83
20.00
13.07
7.57
4.56
4.26
6.01
8.51
10.40
10.68
9.05
5.93
2.31
-0.54
-1.40
0.74
6.52
16.06
28.61
42.33
54.36
61.44
60.94
52.14
36.67
18.13
0.75
-12.25
-19.68
-22.42
-22.48
-21.67
-20.90
-20.04
-18.63
-16.42
-13.70
-11.04
-8.89
-7.37
-6.30
-5.47
-4.75
-4.20
-3.95
-4.13
-4.87
-6.30
-8.57
-11.73
-15.71
-20.29
-25.42
-31.15
-37.57
-44.42
-50.67
-54.64
-54.53
-49.27
-39.23
-26.17
-12.47
-0.06
10.35
19.35
28.13
37.69
48.27
59.28
69.67
78.37
84.60
87.98
88.53
86.66
83.24
79.50
76.73
75.86
77.09
79.80
82.72
84.48
84.02
80.97
75.65
68.92
61.82
55.17
49.30
44.07
39.02
33.56
27.32
20.38
13.54
8.36
6.92
11.09
21.59
37.10
53.91
66.77
70.78
63.42
45.81
22.27
-1.76
-21.77
-35.80
-44.73
-51.23
-58.21
-67.57
-79.67
-93.59
-107.87
-120.30
-128.11
-128.74
-120.87
-105.48
-86.22
-68.95
-60.56
-67.39
-91.93
-131.13
-177.02
-219.25
-248.90
-261.28
-257.00
-240.76
-219.35
-197.50
-176.60
-155.63
-133.48
-110.72
-89.47
-71.88
-53.05
-30.67
-5.40
19.32
39.26
51.50
55.05
50.36
40.41
28.46
16.35
5.23
-4.51
-13.09
-20.16
-26.03
-30.97
-34.87
-37.71
-40.18
-42.71
-45.31
-47.69
-49.60
-51.18
-52.68
-54.09
-55.10
-55.42
-54.35
-51.16
-45.39
-37.26
-27.64
-17.56
-7.81
1.06
8.57
14.46
18.76
21.78
24.13
26.53
29.69
34.08
39.66
45.87
51.96
57.29
61.63
65.15
68.28
71.49
75.15
79.32
83.79
88.16
91.94
94.77
96.42
96.90
96.43
95.45
94.66
94.78
96.44
99.89
104.94
110.89
116.84
122.08
126.29
129.58
132.29
134.49
135.74
135.13
131.63
124.69
114.55
102.18
88.89
75.65
62.84
50.15
36.99
22.93
8.05
-7.08
-21.63
-34.90
-46.55
-56.67
-65.61
-73.86
-81.83
-89.75
-97.67
-105.41
-112.60
-118.62
-122.67
-123.82
-121.22
-114.38
-103.36
-88.91
-72.32
-55.08
-38.50
-23.43
-10.25
1.02
10.45
18.08
23.95
28.27
31.46
34.08
36.62
39.26
41.78
43.63
44.25
43.28
40.92
37.73
34.38
31.26
28.30
25.02
20.83
15.27
8.23
0.10
-8.42
-16.56
-23.60
-28.88
-31.84
-32.07
-29.50
-24.53
-17.58
-9.27
-0.37
8.11
15.20
20.10
22.40
22.12
19.64
16.45
14.20
13.83
15.03
16.48
16.68
14.63
10.19
3.92
-1.87
-4.61
-2.63
3.91
13.33
23.27
31.38
35.82
35.74
33.32
32.78
38.59
53.58
78.12
110.20
146.20
181.81
202.90
198.55
166.39
114.95
58.31
8.05
-30.46
-57.08
-74.32
-83.70
-87.36
-86.25
-81.42
-74.88
-69.00
-65.13
-62.99
-60.88
-57.67
-51.26
-40.59
-27.17
-14.89
-8.27
-9.95
-19.34
-32.94
-46.09
-54.18
-54.71
-48.18
-37.56
-26.57
-17.99
-12.89
-10.99
-11.41
-12.83
-13.76
-12.79
-8.69
-0.74
11.07
25.78
41.91
57.93
73.21
87.97
102.63
116.93
129.38
137.63
139.43
133.85
121.82
105.80
88.71
72.68
58.40
45.17
31.63
16.60
-0.36
-18.82
-37.63
-55.26
-69.97
-80.06
-84.06
-81.06
-71.00
-54.79
-34.17
-11.33
11.43
32.03
48.67
59.92
64.81
63.06
55.17
42.40
26.50
9.41
-7.26
-22.42
-35.57
-46.74
-56.16
-64.00
-70.13
-74.08
-75.18
-72.90
-67.22
-58.93
-49.60
-41.19
-35.49
-33.54
-35.37
-40.01
-46.00
-51.80
-56.31
-59.00
-59.79
-58.81
-56.18
-51.98
-46.41
-39.90
-33.23
-27.32
-22.97
-20.61
-20.12
-20.99
-22.45
-23.82
-24.60
-24.57
-23.74
-22.21
-20.16
-17.82
-15.47
-13.34
-11.60
-10.30
-9.38
-8.81
-8.58
-8.84
-9.71
-11.26
-13.34
-15.64
-17.68
-19.00
-19.21
-18.07
-15.49
-11.45
-6.06
0.43
7.62
14.94
21.61
26.85
30.24
31.77
31.77
30.84
29.58
28.49
27.76
27.13
26.16
24.53
22.22
19.49
16.78
14.49
12.79
11.49
9.72
6.69
2.25
-2.97
-7.84
-11.33
-12.98
-13.02
-12.25
-12.77
-15.83
-21.05
-26.57
-30.25
-30.86
-28.48
-24.23
-19.59
-18.29
-22.74
-32.90
-46.49
-60.73
-73.79
-85.03
-94.48
-102.37
-112.76
-128.48
-149.40
-172.57
-194.52
-213.28
-228.52
-240.83
-251.02
-265.06
-287.42
-318.79
-355.59
-392.83
-426.32
-453.54
-473.30
-453.62
-379.18
-257.88
-117.62
13.13
118.89
197.04
251.11
286.06
306.62
312.15
303.36
283.19
258.77
236.52
219.84
209.06
202.87
199.53
193.60
181.43
163.16
142.79
125.17
114.44
111.46
114.48
120.33
123.45
120.07
109.93
96.07
82.39
71.76
65.11
62.03
61.79
62.89
64.56
67.23
72.32
79.78
87.93
93.62
94.13
88.78
78.90
66.81
54.98
45.28
38.44
34.39
33.09
34.47
39.80
51.51
70.64
95.41
120.93
140.65
148.89
142.27
120.97
86.40
44.48
2.01
-35.26
-63.36
-79.89
-79.94
-61.77
-30.57
1.68
21.90
21.86
1.75
-30.53
-63.18
-88.55
-103.19
-107.86
-106.12
-101.70
-97.53
-94.88
-93.95
-95.14
-95.91
-96.37
-97.85
-101.55
-107.25
-113.15
-116.09
-112.48
-99.88
-78.14
-50.64
-22.91
-0.53
13.41
19.08
19.27
17.40
15.49
13.78
10.75
4.92
-3.86
-13.65
-21.51
-25.22
-24.44
-21.16
-17.56
-15.60
-16.22
-19.04
-22.18
-23.52
-22.06
-18.63
-16.19
-16.21
-18.89
-23.52
-28.74
-32.46
-33.01
-30.09
-24.87
-20.35
-16.83
-13.56
-10.12
-6.31
-0.57
10.16
29.65
60.86
103.09
155.54
214.79
274.39
317.00
326.56
298.17
242.45
189.08
146.01
113.29
89.06
68.83
52.81
43.95
44.57
53.26
64.16
67.82
59.59
39.86
12.50
-16.97
-43.14
-62.66
-74.99
-81.87
-87.11
-91.69
-95.38
-98.31
-101.07
-104.21
-107.81
-111.39
-114.24
-116.43
-116.71
-113.96
-108.21
-100.17
-90.74
-80.29
-68.52
-54.93
-39.65
-22.71
-5.10
10.97
22.85
28.24
26.16
17.38
4.30
-9.28
-18.60
-19.55
-10.25
8.21
31.96
55.81
74.90
86.24
90.12
90.14
91.24
97.40
109.57
124.91
137.97
142.87
135.48
115.82
88.46
60.21
37.56
24.35
21.44
27.70
43.29
65.31
87.12
101.01
102.07
91.04
72.61
52.97
38.35
33.11
37.56
48.60
64.29
80.72
94.86
105.43
112.38
115.99
116.32
113.48
109.22
107.10
110.31
119.91
133.09
143.78
145.20
133.08
107.42
72.94
37.10
6.44
-15.58
-29.57
-39.01
-47.86
-58.61
-71.43
-84.46
-95.05
-101.82
-105.40
-108.85
-116.44
-132.04
-157.79
-193.42
-236.00
-280.53
-320.95
-351.43
-367.83
-368.69
-355.58
-332.26
-303.41
-273.17
-244.35
-218.35
-195.56
-175.87
-158.86
-143.79
-129.50
-114.57
-97.77
-78.59
-57.63
-36.57
-17.65
-2.83
7.08
12.91
16.90
21.79
29.71
41.23
55.23
69.45
81.65
90.46
95.74
98.22
98.95
98.64
97.55
95.55
92.43
88.09
82.63
76.41
69.88
63.40
57.15
51.04
44.82
38.28
31.44
24.64
18.45
13.39
9.78
7.53
6.34
5.79
5.59
5.68
6.12
6.97
8.18
9.52
10.68
11.32
11.22
10.36
8.93
7.24
5.70
4.57
3.95
3.68
3.44
2.88
1.84
0.38
-1.26
-2.88
-4.43
-6.03
-7.86
-9.98
-12.31
-14.61
-16.60
-18.05
-18.77
-18.70
-17.74
-15.94
-13.35
-10.22
-6.90
-3.79
-1.19
0.79
2.23
3.35
4.31
5.18
5.84
6.17
6.11
5.70
5.05
4.26
3.32
2.19
0.90
-0.43
-1.53
-2.19
-2.45
-2.53
-2.89
-3.85
-5.47
-7.56
-9.73
-11.49
-12.42
-12.26
-10.85
-8.34
-5.05
-1.50
1.82
4.57
6.70
8.36
9.77
11.05
12.12
12.71
12.57
11.58
9.83
7.59
5.22
2.95
0.83
-1.31
-3.75
-6.73
-10.25
-14.12
-18.07
-21.89
-25.56
-29.20
-33.00
-37.07
-41.36
-45.67
-49.71
-53.19
-55.88
-57.69
-58.73
-59.28
-59.69
-60.27
-61.18
-62.37
-63.68
-64.93
-66.09
-67.24
-68.49
-69.87
-71.09
-71.58
-70.62
-67.61
-62.45
-55.62
-48.00
-40.50
-33.59
-27.10
-20.34
-12.55
-3.38
6.90
17.40
26.92
34.28
38.65
39.75
37.99
34.38
30.38
27.50
26.95
29.20
33.95
40.13
46.29
51.05
53.55
53.71
52.19
50.06
48.38
47.76
48.22
49.26
50.16
50.20
48.78
45.60
40.58
34.09
26.93
20.13
14.58
10.55
7.60
4.89
1.66
-2.46
-7.35
-12.62
-17.93
-22.97
-27.28
-30.14
-30.63
-28.07
-22.52
-14.83
-6.37
1.60
8.42
14.13
19.07
23.43
26.95
29.07
29.30
27.68
24.76
21.40
18.23
15.29
12.07
7.87
2.31
-4.39
-11.49
-18.15
-23.86
-28.65
-32.87
-36.91
-40.91
-44.81
-48.53
-52.14
-55.77
-59.31
-62.18
-63.40
-61.99
-57.41
-49.91
-40.36
-29.84
-19.19
-8.73
1.63
12.10
22.65
32.81
41.75
48.48
52.30
53.01
51.02
47.20
42.51
37.63
32.84
28.07
23.16
18.21
13.68
10.19
8.20
7.56
7.36
6.06
1.95
-6.08
-17.98
-32.43
-47.14
-59.64
-68.01
-71.43
-70.11
-64.97
-57.22
-47.96
-38.01
-27.83
-17.50
-6.86
4.24
15.66
26.82
36.77
44.54
49.57
51.92
52.21
51.22
49.51
47.24
44.23
40.34
35.76
31.11
27.24
24.75
23.72
23.41
22.54
19.73
14.17
5.98
-3.82
-13.78
-22.63
-29.68
-34.76
-37.87
-38.75
-36.94
-31.98
-23.92
-13.54
-2.17
8.86
18.61
26.88
34.01
40.47
46.49
51.92
56.39
59.49
61.13
61.54
61.28
61.02
61.30
62.33
63.87
65.22
65.44
63.68
59.48
52.97
44.83
36.05
27.62
20.18
13.87
8.31
2.76
-3.53
-10.96
-19.32
-27.66
-34.58
-38.71
-39.21
-36.04
-29.94
-21.99
-13.23
-4.47
3.77
11.04
16.86
20.78
22.66
22.82
22.10
21.56
22.06
23.95
26.98
30.46
33.72
36.31
38.15
39.47
40.57
41.65
42.71
43.49
43.50
42.12
38.72
32.96
24.99
15.63
6.28
-1.40
-5.97
-6.61
-3.31
3.11
11.35
19.93
27.51
33.20
36.56
37.62
36.72
34.32
30.94
27.02
22.93
19.00
15.45
12.29
9.26
5.91
1.78
-3.32
-9.11
-14.92
-20.08
-24.24
-27.63
-30.95
-35.11
-40.75
-48.05
-56.51
-65.13
-72.56
-77.45
-78.72
-75.87
-69.02
-58.91
-46.58
-33.04
-19.04
-4.96
9.00
22.64
35.59
47.31
57.29
65.20
71.03
75.04
77.75
79.75
81.64
83.87
86.71
90.12
93.84
97.51
100.72
103.28
105.17
106.55
107.57
108.15
107.88
105.98
101.80
94.98
85.71
74.35
61.04
45.37
26.47
3.48
-23.81
-54.54
-87.07
-119.63
-150.97
-180.35
-207.01
-229.24
-244.16
-248.63
-240.91
-222.14
-196.59
-170.40
-149.29
-136.52
-132.14
-133.50
-136.89
-138.92
-137.39
-131.08
-119.47
-102.29
-79.97
-54.20
-27.98
-4.94
12.02
22.03
26.95
30.91
38.97
54.97
79.71
110.43
141.79
167.85
184.05
188.33
181.05
164.64
141.67
113.99
83.06
51.02
21.58
-0.58
-11.61
-10.67
0.65
17.34
32.59
40.47
38.49
28.34
14.38
0.99
-9.62
-14.87
-14.97
-12.86
-13.03
-18.64
-29.25
-40.67
-46.94
-42.85
-20.68
23.34
87.58
165.64
249.37
331.38
405.26
464.83
504.96
530.34
549.44
571.10
600.54
638.23
680.71
722.07
755.92
736.65
639.18
469.63
265.59
71.71
-84.79
-198.72
-277.42
-331.07
-367.63
-385.54
-383.09
-362.67
-332.17
-301.40
-277.83
-263.76
-258.46
-259.06
-257.33
-247.12
-227.15
-201.39
-176.01
-156.08
-143.38
-137.16
-135.38
-132.96
-126.78
-117.13
-108.06
-101.39
-99.39
-102.69
-110.71
-122.30
-134.71
-146.35
-156.38
-164.39
-169.74
-172.08
-171.15
-167.31
-161.32
-153.57
-145.88
-139.57
-134.69
-130.01
-124.56
-117.97
-110.63
-103.19
-96.22
-92.64
-94.33
-100.72
-108.88
-115.73
-119.50
-120.04
-118.37
-116.21
-119.11
-131.67
-155.35
-188.10
-226.34
-266.56
-305.58
-340.23
-345.78
-308.45
-232.91
-140.56
-54.38
12.50
57.54
84.41
99.06
106.95
108.25
102.52
91.22
78.41
68.72
65.16
68.31
76.63
88.71
100.06
107.26
109.81
110.06
111.07
114.57
120.35
127.38
134.16
137.70
136.34
130.83
124.22
120.55
123.50
132.71
147.62
166.28
184.33
196.79
199.68
191.28
172.43
145.80
114.72
82.61
51.75
22.84
-3.93
-28.07
-48.52
-63.81
-73.37
-78.50
-81.78
-86.24
-93.82
-104.40
-116.18
-126.89
-134.33
-137.99
-139.16
-139.77
-140.98
-142.63
-143.84
-144.02
-143.35
-140.73
-134.54
-123.47
-107.79
-89.31
-71.06
-55.85
-44.55
-34.74
-19.15
9.96
56.28
116.50
182.49
244.94
297.77
340.24
363.79
363.67
340.53
301.43
255.82
212.19
175.60
147.73
126.49
106.93
86.10
64.46
49.80
45.46
53.08
70.19
90.15
104.39
106.78
98.11
84.39
72.82
66.98
66.74
67.69
66.99
63.90
60.18
59.38
63.64
71.70
78.71
79.64
71.27
53.82
30.01
3.91
-20.47
-41.06
-58.04
-73.67
-90.37
-109.97
-133.01
-159.19
-187.51
-216.51
-244.55
-270.06
-291.73
-308.34
-319.12
-323.65
-322.09
-314.78
-302.28
-285.36
-265.11
-242.96
-220.41
-198.82
-178.79
-160.05
-141.70
-123.07
-104.34
-86.62
-71.41
-59.74
-51.73
-45.93
-39.35
-28.55
-11.39
11.74
38.05
63.47
84.32
98.20
105.00
107.08
107.85
110.13
115.34
123.91
135.65
149.49
161.90
167.37
160.66
139.12
104.31
62.07
21.01
-10.77
-24.17
-16.41
5.48
28.90
44.41
50.14
49.28
45.78
41.73
37.32
31.27
23.07
14.51
8.79
8.20
12.41
18.28
21.49
18.62
8.39
-7.87
-25.50
-39.23
-45.99
-45.86
-41.41
-35.64
-30.59
-27.27
-25.69
-25.28
-25.63
-27.06
-30.14
-35.16
-41.36
-47.76
-53.70
-58.96
-63.62
-66.65
-67.79
-67.13
-65.15
-61.86
-57.24
-50.75
-40.70
-24.28
1.13
35.88
76.85
117.59
151.01
170.98
174.72
163.80
143.33
119.55
97.30
78.58
58.81
35.79
9.65
-17.58
-43.43
-66.41
-85.91
-101.69
-112.97
-118.76
-117.04
-106.86
-89.55
-68.73
-48.72
-32.36
-19.52
-7.23
6.43
23.52
43.31
62.01
75.17
80.88
81.36
81.69
86.65
97.53
112.00
125.18
131.71
128.27
114.89
94.92
73.62
56.34
46.99
47.09
55.56
67.64
76.20
74.55
59.58
33.25
1.83
-26.60
-44.61
-46.68
-31.72
-2.99
33.13
69.15
98.12
115.05
117.93
102.24
70.69
31.77
-4.59
-32.38
-50.58
-60.99
-66.29
-69.41
-73.66
-81.06
-93.51
-111.30
-132.34
-152.43
-166.96
-173.16
-171.01
-164.61
-155.41
-144.84
-134.07
-123.91
-114.70
-106.50
-99.36
-93.32
-88.42
-83.90
-79.68
-76.08
-73.55
-72.11
-71.12
-69.54
-66.12
-60.11
-50.87
-38.71
-24.54
-9.49
5.44
19.53
32.26
43.25
52.12
58.79
63.00
64.42
62.70
57.64
49.22
37.88
24.55
10.69
-1.81
-11.34
-17.08
-19.59
-20.81
-23.59
-30.61
-43.19
-60.54
-79.74
-96.87
-108.38
-112.42
-109.37
-101.39
-91.36
-81.60
-73.01
-64.92
-55.55
-42.77
-24.78
-0.65
29.46
64.14
100.64
134.99
162.60
179.47
183.64
176.25
161.61
145.97
135.47
134.25
143.45
161.52
185.43
211.82
237.55
259.69
275.30
281.75
277.52
262.99
240.62
214.21
187.39
162.32
139.20
116.78
93.63
69.25
44.64
21.99
3.75
-8.39
-14.09
-14.45
-11.51
-7.38
-3.58
-0.77
1.08
2.16
2.38
1.18
-2.20
-8.28
-17.00
-27.65
-39.07
-50.21
-60.37
-69.39
-77.40
-84.54
-90.65
-95.24
-97.67
-97.57
-95.03
-90.65
-85.24
-79.42
-73.37
-66.84
-59.40
-50.71
-40.58
-28.97
-15.91
-1.61
13.34
27.87
40.50
49.79
54.80
55.42
52.28
46.40
38.75
30.04
20.76
11.39
2.54
-5.23
-11.56
-16.44
-20.10
-22.66
-23.90
-23.33
-20.40
-14.99
-7.72
0.05
6.63
10.54
11.09
8.54
3.94
-1.29
-5.94
-9.31
-11.33
-12.28
-12.49
-12.16
-11.20
-9.58
-7.38
-5.00
-2.98
-1.86
-1.98
-3.60
-6.99
-12.42
-20.16
-30.07
-41.38
-52.52
-61.39
-65.85
-64.32
-56.35
-42.66
-25.05
-5.75
13.12
30.07
44.44
56.28
66.11
74.55
82.16
89.25
95.96
102.24
107.92
112.67
116.07
117.66
117.04
114.06
108.91
102.14
94.46
86.36
77.84
68.29
56.84
42.93
26.91
10.22
-4.92
-16.39
-22.91
-24.62
-22.99
-20.24
-18.51
-19.18
-22.52
-27.83
-33.83
-39.37
-43.83
-47.32
-50.50
-54.11
-58.47
-63.35
-67.99
-71.46
-73.09
-72.57
-69.97
-65.55
-59.65
-52.66
-45.13
-37.86
-31.88
-28.21
-27.67
-30.46
-36.17
-43.79
-51.99
-59.49
-65.30
-68.91
-70.33
-69.92
-68.41
-66.66
-65.53
-65.67
-67.45
-70.80
-75.37
-80.64
-86.23
-91.97
-97.98
-104.48
-111.61
-119.34
-127.33
-135.06
-141.81
-146.83
-149.27
-148.40
-143.79
-135.53
-124.47
-112.12
-100.34
-90.69
-83.88
-79.49
-76.30
-72.80
-67.88
-61.07
-52.32
-41.66
-28.77
-13.07
5.86
27.79
51.62
75.57
97.77
116.66
131.19
140.63
144.45
142.22
134.04
120.85
104.61
88.03
73.84
64.00
59.15
58.51
60.33
62.56
63.38
61.52
56.34
47.91
37.01
25.16
14.34
6.55
3.19
4.54
9.66
16.66
23.33
27.84
29.22
27.44
23.25
17.88
12.73
9.11
8.04
9.94
14.47
20.46
26.15
29.68
29.63
25.44
17.58
7.31
-3.73
-14.04
-22.54
-28.71
-32.59
-34.76
-36.20
-38.07
-41.34
-46.24
-52.06
-57.17
-59.64
-58.06
-52.20
-43.09
-32.67
-23.01
-15.66
-11.36
-10.13
-11.57
-15.13
-20.22
-26.19
-32.39
-38.16
-43.12
-47.18
-50.58
-53.65
-56.54
-59.10
-60.80
-61.05
-59.27
-55.12
-48.56
-39.76
-29.08
-17.13
-4.75
6.92
16.49
22.66
24.54
22.03
16.05
8.37
1.09
-4.12
-6.68
-7.44
-8.34
-11.62
-18.84
-30.23
-44.65
-60.01
-74.06
-84.95
-91.54
-93.38
-90.63
-84.12
-75.19
-65.54
-56.49
-48.30
-39.71
-28.27
-11.49
11.65
39.64
68.45
92.63
107.14
109.05
98.48
78.56
54.37
31.53
14.83
7.14
9.15
19.55
35.68
54.39
72.77
88.62
100.72
108.75
113.18
114.90
114.97
114.24
113.21
111.90
110.01
107.01
102.34
95.53
86.35
75.00
62.21
49.22
37.45
28.01
21.25
16.49
12.22
6.63
-1.60
-12.83
-26.32
-40.46
-53.27
-62.92
-68.01
-67.70
-61.93
-51.50
-38.20
-24.64
-13.61
-7.22
-6.06
-8.97
-13.63
-17.68
-19.87
-20.36
-20.35
-21.18
-23.46
-26.91
-30.66
-33.82
-35.81
-36.26
-34.79
-30.81
-23.81
-13.75
-1.45
11.42
22.84
31.15
35.55
36.26
34.17
30.38
25.86
21.37
17.55
15.06
14.54
16.42
20.65
26.70
33.61
40.49
46.61
51.61
55.14
56.66
55.35
50.36
41.31
28.56
13.41
-2.30
-16.63
-28.04
-35.67
-39.42
-39.95
-38.45
-36.40
-35.20
-35.77
-38.27
-42.06
-46.01
-49.01
-50.46
-50.58
-50.31
-50.78
-52.79
-56.16
-59.61
-61.15
-58.80
-51.45
-39.43
-24.36
-8.49
6.22
18.78
29.28
38.39
46.70
54.19
60.36
64.54
66.50
66.70
66.14
65.99
67.18
70.20
75.19
82.07
90.51
99.73
108.23
113.77
113.80
106.35
90.86
68.65
42.70
16.85
-5.30
-21.17
-29.54
-30.60
-25.62
-16.74
-6.57
2.19
7.39
7.90
3.94
-3.13
-11.40
-19.15
-25.41
-30.02
-33.40
-36.05
-38.40
-40.70
-43.22
-46.22
-49.87
-54.02
-58.09
-61.20
-62.64
-62.21
-60.31
-57.80
-55.47
-53.69
-52.34
-51.14
-49.88
-48.59
-47.36
-45.99
-43.95
-40.52
-35.29
-28.50
-21.00
-13.87
-7.78
-2.72
1.94
6.89
12.40
18.05
22.93
26.22
27.61
27.52
26.80
26.28
26.36
26.89
27.37
27.37
26.95
26.65
27.27
29.29
32.49
35.84
37.77
36.67
31.50
22.15
9.51
-4.79
-18.76
-30.49
-38.58
-42.35
-41.90
-38.04
-32.05
-25.31
-19.04
-14.12
-11.08
-10.22
-11.63
-15.09
-20.00
-25.26
-29.46
-31.33
-30.20
-26.37
-20.96
-15.44
-11.02
-8.30
-7.40
-8.20
-10.75
-15.24
-21.67
-29.53
-37.70
-44.71
-49.46
-51.65
-52.04
-51.98
-52.66
-54.43
-56.53
-57.45
-55.69
-50.46
-42.04
-31.57
-20.40
-9.47
0.99
11.25
21.59
31.81
41.25
49.08
54.79
58.56
61.21
63.85
67.38
72.09
77.61
83.07
87.57
90.52
91.99
92.58
93.25
94.86
97.80
101.71
105.47
107.48
106.05
100.05
89.39
75.30
60.15
46.65
37.00
32.01
30.95
31.85
32.37
30.71
26.06
18.64
9.15
-1.67
-13.46
-26.03
-39.13
-51.97
-63.17
-70.99
-73.95
-71.32
-63.44
-51.61
-37.67
-23.48
-10.64
-0.29
6.81
10.35
10.48
7.94
3.83
-0.68
-4.85
-8.66
-12.71
-17.71
-23.89
-30.64
-36.52
-39.85
-39.36
-34.79
-26.91
-17.23
-7.43
1.19
7.85
12.18
14.08
13.59
11.02
7.06
2.74
-0.85
-2.94
-3.40
-2.70
-1.65
-0.93
-0.95
-1.75
-3.16
-5.10
-7.51
-10.45
-13.99
-18.21
-23.25
-29.20
-35.90
-42.73
-48.48
-51.55
-50.63
-45.20
-35.91
-24.38
-12.64
-2.39
5.44
10.73
13.90
15.50
15.99
15.80
15.41
15.35
15.97
17.29
18.74
19.48
18.75
16.38
13.04
10.03
8.76
10.13
14.15
19.82
25.48
29.30
29.87
26.60
19.96
11.31
2.62
-4.14
-7.50
-6.91
-2.78
3.78
11.38
18.90
25.56
30.99
34.99
37.44
38.31
37.73
36.14
34.18
32.50
31.42
30.81
30.12
28.67
26.02
22.10
17.25
12.04
6.98
2.37
-1.78
-5.70
-9.83
-14.66
-20.58
-27.60
-35.19
-42.15
-46.94
-48.16
-45.13
-38.29
-28.96
-18.94
-9.72
-2.04
4.12
9.16
13.36
16.59
18.42
18.52
16.96
14.35
11.61
9.45
8.13
7.33
6.47
4.93
2.45
-0.86
-4.59
-8.30
-11.69
-14.72
-17.59
-20.59
-24.03
-28.13
-32.98
-38.48
-44.26
-49.63
-53.55
-54.94
-52.93
-47.33
-38.75
-28.49
-18.08
-8.76
-1.06
5.16
10.44
15.25
19.68
23.49
26.28
27.77
28.02
27.29
25.97
24.44
22.97
21.67
20.50
19.20
17.45
14.91
11.40
7.03
2.21
-2.43
-6.32
-9.08
-10.80
-11.89
-13.10
-15.20
-18.82
-24.19
-30.82
-37.53
-42.59
-44.23
-41.25
-33.51
-22.03
-8.69
4.55
16.11
25.24
31.92
36.45
39.07
39.76
38.32
34.61
28.85
21.63
13.91
6.74
1.09
-2.41
-3.55
-2.52
0.12
3.70
7.52
10.95
13.53
14.96
15.19
14.48
13.23
11.90
10.66
9.32
7.30
3.94
-1.22
-8.12
-16.12
-24.18
-31.20
-36.32
-39.15
-39.88
-39.12
-37.66
-36.15
-34.83
-33.48
-31.52
-28.39
-23.82
-17.99
-11.48
-5.16
0.09
3.53
4.74
3.69
0.88
-2.81
-6.32
-8.79
-9.92
-10.04
-10.03
-10.87
-13.33
-17.68
-23.68
-30.72
-38.00
-44.64
-49.84
-52.97
-53.82
-52.72
-50.57
-48.50
-47.41
-47.48
-47.85
-46.89
-42.84
-34.55
-22.09
-6.69
9.70
25.18
38.48
49.23
57.69
64.34
69.52
73.34
75.85
77.25
77.87
77.93
77.34
75.43
71.28
64.13
53.96
41.65
28.80
17.11
7.83
1.37
-2.60
-4.86
-6.16
-7.03
-7.79
-8.68
-9.99
-12.10
-15.38
-19.87
-25.10
-29.98
-33.03
-32.85
-28.69
-20.88
-10.69
-0.01
9.48
16.85
22.04
25.68
28.51
30.98
33.22
35.17
36.91
38.78
41.20
44.41
48.21
51.92
54.63
55.53
54.18
50.71
45.62
39.58
33.08
26.29
19.01
10.82
1.43
-9.22
-20.80
-32.72
-44.36
-55.12
-64.45
-71.69
-75.98
-76.42
-72.43
-64.11
-52.55
-39.46
-26.79
-16.00
-7.66
-1.58
2.87
6.24
8.72
10.12
10.21
9.03
6.99
4.79
3.14
2.52
2.93
4.01
5.13
5.66
5.18
3.64
1.30
-1.37
-3.86
-5.84
-7.25
-8.36
-9.57
-11.43
-14.39
-18.62
-23.92
-29.57
-34.39
-37.02
-36.30
-31.72
-23.67
-13.40
-2.63
7.03
14.63
19.99
23.57
25.97
27.61
28.52
28.47
27.28
24.98
21.91
18.50
15.19
12.21
9.61
7.32
5.18
3.06
0.78
-1.78
-4.61
-7.57
-10.43
-13.03
-15.36
-17.64
-20.19
-23.39
-27.48
-32.46
-37.99
-43.35
-47.45
-49.10
-47.30
-41.61
-32.45
-21.01
-8.97
2.07
11.06
17.68
22.26
25.42
27.72
29.42
30.47
30.67
29.97
28.56
26.86
25.36
24.33
23.70
23.00
21.64
19.17
15.48
10.86
5.87
1.05
-3.21
-6.80
-9.92
-12.96
-16.40
-20.83
-26.82
-34.78
-44.66
-55.70
-66.31
-74.35
-77.72
-75.10
-66.45
-53.15
-37.44
-21.67
-7.59
4.05
13.33
20.78
26.80
31.51
34.70
36.16
35.92
34.42
32.39
30.56
29.39
28.89
28.61
27.90
26.16
23.07
18.69
13.37
7.60
1.85
-3.59
-8.67
-13.54
-18.49
-23.92
-30.23
-37.81
-46.82
-56.96
-67.22
-75.91
-80.95
-80.55
-73.89
-61.62
-45.68
-28.63
-12.75
0.63
11.33
19.89
26.97
32.85
37.29
39.93
40.63
39.70
37.94
36.17
34.90
34.10
33.32
31.92
29.49
26.04
22.01
18.02
14.60
11.91
9.69
7.43
4.57
0.76
-4.10
-10.02
-16.99
-25.17
-34.63
-45.05
-55.37
-63.78
-68.11
-66.62
-58.74
-45.35
-28.59
-11.07
4.91
18.00
27.82
34.76
39.45
42.38
43.74
43.62
42.16
39.72
36.98
34.67
33.44
33.57
34.90
36.89
38.78
39.79
39.36
37.18
33.18
27.55
20.60
12.74
4.40
-4.09
-12.51
-20.84
-29.33
-38.33
-48.21
-59.01
-70.12
-80.13
-87.02
-88.73
-83.96
-72.79
-56.83
-38.71
-21.15
-6.06
5.84
14.91
21.96
27.65
32.18
35.47
37.48
38.43
38.85
39.31
40.15
41.32
42.49
43.21
43.18
42.28
40.49
37.87
34.41
30.08
24.93
19.09
12.84
6.42
0.01
-6.45
-13.32
-21.13
-30.42
-41.32
-53.16
-64.35
-72.52
-75.25
-70.94
-59.56
-42.83
-23.67
-5.21
10.28
21.91
30.09
35.81
39.98
42.97
44.74
45.23
44.74
44.00
43.83
44.73
46.55
48.54
49.69
49.20
46.78
42.62
37.25
31.17
24.77
18.21
11.57
4.91
-1.69
-8.21
-14.76
-21.70
-29.54
-38.77
-49.42
-60.78
-71.20
-78.36
-79.87
-74.24
-61.49
-43.34
-22.62
-2.40
15.01
28.57
38.39
45.30
50.18
53.66
56.07
57.63
58.50
58.80
58.60
57.86
56.51
54.61
52.35
50.02
47.83
45.81
43.69
41.02
37.32
32.20
25.52
17.42
8.25
-1.46
-11.18
-20.61
-29.80
-39.23
-49.54
-61.09
-73.44
-85.09
-93.65
-96.65
-92.34
-80.50
-62.62
-41.43
-20.01
-0.86
14.63
26.28
34.59
40.35
44.16
46.41
47.38
47.45
47.13
46.95
47.27
48.10
49.04
49.45
48.76
46.76
43.69
40.17
36.75
33.57
30.25
26.02
20.20
12.60
3.75
-5.35
-13.65
-20.63
-26.47
-31.97
-38.17
-46.00
-55.95
-67.84
-80.74
-92.87
-101.90
-105.35
-101.47
-89.91
-71.99
-50.38
-28.19
-7.95
9.05
22.77
33.94
43.35
51.37
57.85
62.41
64.78
65.06
63.81
61.81
59.79
58.17
56.91
55.69
54.09
51.93
49.32
46.63
44.16
41.81
39.01
34.87
28.64
20.13
9.94
-0.74
-10.54
-18.56
-24.70
-29.70
-34.84
-41.49
-50.66
-62.72
-77.15
-92.55
-106.69
-116.84
-120.43
-115.79
-102.84
-83.23
-59.98
-36.46
-15.42
1.76
15.18
25.86
34.94
43.10
50.28
56.04
59.94
62.01
62.79
63.10
63.68
64.78
66.10
66.96
66.63
64.70
61.26
56.82
52.14
47.75
43.79
39.84
35.16
29.06
21.22
11.92
1.92
-7.88
-16.76
-24.52
-31.42
-38.13
-45.37
-53.86
-64.06
-76.07
-89.36
-102.53
-113.30
-118.94
-117.11
-106.74
-88.65
-65.42
-40.54
-17.24
2.49
18.16
30.52
40.64
49.25
56.49
62.05
65.65
67.35
67.69
67.42
67.24
67.47
68.00
68.38
68.09
66.74
64.27
60.93
57.12
53.22
49.33
45.20
40.36
34.31
26.82
18.07
8.65
-0.67
-9.20
-16.62
-23.04
-28.97
-35.15
-42.33
-51.16
-61.96
-74.57
-88.06
-100.65
-109.85
-113.12
-108.65
-96.13
-76.99
-54.01
-30.45
-8.99
8.85
22.83
33.44
41.38
47.11
50.76
52.45
52.48
51.53
50.35
49.59
49.45
49.68
49.73
49.12
47.69
45.70
43.64
41.89
40.50
39.00
36.59
32.47
26.14
17.69
7.75
-2.65
-12.49
-21.07
-28.27
-34.62
-41.12
-48.86
-58.64
-70.46
-83.30
-95.09
-103.18
-105.08
-99.31
-85.95
-66.73
-44.53
-22.44
-2.93
12.73
24.43
32.80
38.69
42.76
45.38
46.77
47.22
47.08
46.78
46.58
46.55
46.52
46.21
45.40
44.00
41.98
39.26
35.66
30.89
24.72
17.14
8.43
-0.83
-10.00
-18.59
-26.46
-33.84
-41.37
-49.80
-59.76
-71.37
-83.89
-95.58
-103.96
-106.32
-100.78
-87.00
-66.58
-42.70
-19.07
1.23
16.62
27.17
34.10
38.86
42.44
45.09
46.52
46.43
44.90
42.52
40.15
38.52
37.87
37.92
38.00
37.41
35.68
32.63
28.32
22.86
16.40
9.08
1.13
-7.09
-15.18
-22.90
-30.37
-38.16
-47.11
-58.01
-71.08
-85.51
-99.29
-109.51
-113.17
-108.27
-94.66
-74.22
-50.35
-26.76
-6.27
9.90
22.08
31.47
39.23
45.94
51.50
55.45
57.52
57.80
56.80
55.15
53.35
51.58
49.71
47.47
44.58
40.86
36.23
30.66
24.16
16.79
8.67
-0.01
-8.95
-17.93
-26.79
-35.60
-44.73
-54.82
-66.53
-80.03
-94.54
-108.10
-117.79
-120.60
-114.54
-99.56
-77.80
-52.84
-28.50
-7.58
8.85
21.29
31.04
39.33
46.71
53.07
57.90
60.83
61.75
60.95
58.90
56.18
53.35
50.93
49.36
48.87
49.30
50.07
50.25
48.85
45.11
38.76
30.13
19.92
9.04
-1.75
-12.03
-21.86
-31.71
-42.36
-54.53
-68.52
-83.80
-98.70
-110.60
-116.53
-114.08
-102.42
-82.72
-57.94
-31.84
-7.76
12.37
28.27
40.88
51.45
60.84
69.20
76.16
81.35
84.67
86.41
87.02
86.76
85.64
83.49
80.23
76.03
71.42
66.98
63.08
59.53
55.58
50.23
42.67
32.74
21.14
9.19
-1.64
-10.28
-16.55
-21.15
-25.52
-31.33
-39.97
-52.06
-67.04
-83.00
-96.90
-105.30
-105.35
-95.81
-77.67
-53.86
-28.27
-4.50
15.21
30.35
41.62
50.17
56.84
61.94
65.38
67.12
67.39
66.73
65.70
64.65
63.52
61.95
59.54
56.15
51.97
47.51
43.32
39.73
36.63
33.42
29.22
23.21
15.06
5.15
-5.49
-15.49
-23.69
-29.56
-33.43
-36.34
-39.70
-44.85
-52.74
-63.70
-77.32
-92.27
-106.38
-116.79
-120.70
-116.13
-102.84
-82.55
-58.50
-34.37
-13.06
4.06
17.21
27.54
36.19
43.78
50.23
55.18
58.44
60.27
61.32
62.23
63.35
64.49
65.17
64.92
63.58
61.40
58.84
56.21
53.50
50.34
46.25
40.98
34.69
27.97
21.58
16.24
12.40
10.10
9.04
8.50
7.49
4.83
-0.55
-9.40
-21.78
-36.92
-53.12
-67.98
-78.83
-83.33
-80.23
-69.75
-53.56
-34.40
-15.18
1.78
15.21
24.98
31.72
36.35
39.72
42.40
44.69
46.65
48.20
49.17
49.42
48.86
47.55
45.66
43.42
41.10
38.93
37.03
35.31
33.41
30.80
26.92
21.52
14.78
7.33
-0.03
-6.69
-12.60
-18.27
-24.59
-32.48
-42.42
-54.22
-66.73
-78.02
-85.69
-87.57
-82.41
-70.46
-53.63
-34.88
-17.34
-3.23
6.63
12.83
16.73
19.64
22.34
24.90
27.03
28.45
29.18
29.47
29.70
30.07
30.52
30.78
30.53
29.54
27.72
25.07
21.54
17.05
11.56
5.18
-1.77
-8.80
-15.41
-21.31
-26.62
-31.83
-37.75
-45.12
-54.32
-64.84
-75.21
-83.12
-86.02
-82.06
-70.85
-53.79
-33.70
-13.88
2.98
15.52
23.89
29.20
32.82
35.75
38.34
40.44
41.68
41.86
41.04
39.51
37.67
35.75
33.84
31.84
29.57
26.89
23.71
19.96
15.55
10.41
4.51
-2.03
-8.89
-15.66
-21.99
-27.82
-33.42
-39.39
-46.41
-54.90
-64.68
-74.73
-83.20
-87.81
-86.56
-78.47
-64.09
-45.45
-25.51
-7.14
7.62
18.13
24.90
29.13
32.02
34.36
36.42
38.09
39.13
39.32
38.57
36.92
34.52
31.63
28.60
25.76
23.30
21.18
19.08
16.62
13.34
9.02
3.74
-2.16
-8.09
-13.53
-18.16
-22.04
-25.64
-29.72
-35.12
-42.37
-51.41
-61.32
-70.37
-76.36
-77.28
-71.93
-60.53
-44.66
-26.85
-9.74
4.63
15.39
22.74
27.57
30.89
33.42
35.52
37.25
38.58
39.50
39.97
39.94
39.26
37.81
35.61
32.90
30.07
27.51
25.35
23.39
21.14
18.03
13.62
7.88
1.11
-6.07
-13.01
-19.21
-24.53
-29.24
-33.93
-39.38
-46.28
-54.82
-64.43
-73.65
-80.38
-82.44
-78.33
-67.90
-52.45
-34.46
-16.76
-1.60
9.88
17.77
22.90
26.30
28.69
30.38
31.42
31.83
31.83
31.67
31.59
31.59
31.49
30.98
29.93
28.41
26.75
25.31
24.29
23.50
22.42
20.36
16.76
11.49
4.93
-2.21
-9.09
-15.17
-20.32
-24.93
-29.66
-35.20
-42.04
-50.26
-59.30
-67.95
-74.49
-77.05
-74.23
-65.61
-52.02
-35.37
-18.06
-2.27
10.61
20.09
26.45
30.25
32.11
32.53
31.98
30.98
30.07
29.69
29.99
30.83
31.79
32.41
32.41
31.73
30.54
29.08
27.52
25.74
23.50
20.48
16.53
11.76
6.51
1.26
-3.63
-7.99
-11.99
-16.00
-20.55
-26.15
-33.05
-41.07
-49.41
-56.64
-60.96
-60.75
-55.10
-44.37
-30.11
-14.60
-0.20
11.40
19.51
24.25
26.30
26.44
25.34
23.54
21.52
19.72
18.52
18.10
18.41
19.16
19.94
20.38
20.26
19.54
18.33
16.72
14.73
12.22
9.00
5.03
0.43
-4.41
-9.04
-13.15
-16.71
-20.01
-23.60
-28.02
-33.65
-40.48
-48.02
-55.21
-60.52
-62.29
-59.20
-50.82
-37.86
-22.09
-5.81
8.80
20.36
28.42
33.31
35.73
36.35
35.59
33.74
31.08
28.04
25.16
22.87
21.34
20.38
19.58
18.50
16.98
15.15
13.33
11.74
10.24
8.36
5.45
1.14
-4.46
-10.73
-16.83
-22.01
-26.01
-29.08
-31.92
-35.35
-40.05
-46.23
-53.49
-60.70
-66.25
-68.33
-65.60
-57.63
-45.26
-30.30
-15.01
-1.34
9.60
17.63
23.27
27.19
29.90
31.61
32.36
32.33
31.83
31.32
31.13
31.37
31.80
32.05
31.77
30.80
29.19
27.12
24.78
22.22
19.34
15.94
11.74
6.59
0.55
-5.99
-12.35
-17.80
-21.90
-24.74
-26.99
-29.75
-34.10
-40.60
-49.00
-58.11
-66.01
-70.61
-70.17
-63.95
-52.43
-37.28
-20.86
-5.51
7.05
16.15
22.10
25.81
28.24
30.07
31.52
32.55
33.10
33.29
33.42
33.81
34.61
35.64
36.53
36.93
36.71
36.03
35.14
34.15
32.73
30.20
25.76
18.92
9.88
-0.49
-10.82
-19.79
-26.55
-31.07
-34.08
-36.77
-40.38
-45.79
-53.26
-62.33
-71.78
-79.84
-84.56
-84.32
-78.34
-66.99
-51.79
-34.99
-18.87
-5.14
5.48
13.16
18.64
22.68
25.75
27.96
29.26
29.72
29.69
29.74
30.41
31.87
33.80
35.57
36.51
36.28
34.98
33.04
30.88
28.61
26.02
22.67
18.25
12.76
6.61
0.44
-5.15
-9.81
-13.56
-16.77
-19.99
-23.86
-28.97
-35.65
-43.83
-52.89
-61.51
-67.90
-70.25
-67.23
-58.64
-45.47
-29.67
-13.47
1.17
13.14
22.14
28.45
32.58
35.02
36.17
36.43
36.26
36.11
36.32
36.97
37.85
38.58
38.72
38.03
36.51
34.38
31.92
29.30
26.50
23.30
19.48
14.94
9.79
4.37
-1.01
-6.09
-10.84
-15.42
-20.12
-25.30
-31.30
-38.28
-46.02
-53.76
-60.07
-63.19
-61.59
-54.52
-42.55
-27.41
-11.51
2.87
14.18
21.99
26.78
29.42
30.80
31.45
31.60
31.33
30.75
30.06
29.48
29.16
29.06
29.02
28.78
28.16
27.04
25.37
23.09
20.06
16.11
11.10
5.07
-1.74
-8.83
-15.58
-21.46
-26.26
-30.22
-34.04
-38.71
-45.03
-53.27
-62.78
-72.01
-78.85
-81.22
-77.75
-68.33
-54.16
-37.40
-20.51
-5.52
6.45
15.21
21.25
25.29
27.93
29.56
30.44
30.82
31.00
31.28
31.77
32.43
32.98
33.15
32.72
31.62
29.89
27.59
24.66
20.98
16.43
10.99
4.83
-1.70
-8.17
-14.28
-19.97
-25.48
-31.39
-38.35
-46.88
-56.91
-67.60
-77.30
-83.92
-85.53
-81.03
-70.64
-55.82
-38.90
-22.21
-7.48
4.54
14.02
21.60
27.93
33.36
37.86
41.30
43.65
45.15
46.15
47.00
47.76
48.27
48.27
47.65
46.55
45.20
43.72
41.89
39.20
35.03
29.05
21.45
12.92
4.41
-3.27
-9.75
-15.17
-20.19
-25.77
-32.88
-42.24
-53.85
-66.81
-79.14
-88.24
-91.56
-87.53
-76.19
-59.32
-39.79
-20.63
-3.96
9.50
20.26
29.43
37.89
45.84
52.82
58.10
61.27
62.54
62.62
62.40
62.44
62.76
62.86
62.14
60.25
57.30
53.86
50.55
47.71
45.10
42.03
37.68
31.57
23.88
15.38
7.14
0.01
-5.70
-10.34
-14.74
-19.90
-26.69
-35.64
-46.69
-59.09
-71.29
-81.11
-86.20
-84.81
-76.48
-62.33
-44.70
-26.38
-9.65
4.38
15.81
25.45
34.10
42.05
48.97
54.21
57.32
58.40
58.13
57.49
57.33
58.00
59.25
60.46
60.95
60.33
58.64
56.20
53.39
50.42
47.22
43.57
39.21
34.04
28.12
21.67
15.00
8.38
2.05
-3.80
-9.15
-14.10
-19.00
-24.31
-30.56
-38.20
-47.36
-57.64
-67.99
-76.72
-81.83
-81.60
-75.20
-63.13
-47.08
-29.49
-12.75
1.50
12.64
20.96
27.23
32.22
36.40
39.90
42.65
44.60
45.88
46.79
47.76
49.07
50.68
52.24
53.19
53.16
52.11
50.42
48.59
46.98
45.55
43.89
41.43
37.73
32.76
26.88
20.68
14.80
9.67
5.36
1.65
-1.96
-6.07
-11.22
-17.80
-25.87
-35.09
-44.58
-53.02
-58.75
-60.23
-56.56
-47.88
-35.48
-21.41
-7.79
3.82
12.72
19.06
23.40
26.23
27.89
28.48
28.20
27.43
26.72
26.57
27.25
28.60
30.13
31.25
31.45
30.58
28.82
26.59
24.32
22.21
20.15
17.71
14.42
9.95
4.40
-1.72
-7.66
-12.72
-16.54
-19.29
-21.56
-24.21
-28.01
-33.39
-40.20
-47.65
-54.41
-58.89
-59.71
-56.11
-48.27
-37.27
-24.82
-12.68
-2.25
5.82
11.61
15.66
18.64
21.02
22.93
24.33
25.11
25.36
25.35
25.47
25.97
26.76
27.45
27.54
26.68
24.92
22.68
20.49
18.73
17.33
15.82
13.55
10.00
5.15
-0.59
-6.45
-11.61
-15.58
-18.32
-20.28
-22.25
-25.04
-29.27
-35.19
-42.53
-50.55
-58.13
-63.87
-66.48
-65.02
-59.28
-49.86
-38.13
-25.82
-14.50
-5.21
1.77
6.78
10.47
13.41
15.89
17.89
19.23
19.88
20.03
20.05
20.33
21.06
22.11
23.12
23.67
23.54
22.74
21.53
20.15
18.72
17.14
15.14
12.46
9.01
4.93
0.61
-3.55
-7.23
-10.35
-13.09
-15.80
-18.86
-22.56
-26.99
-32.15
-38.01
-44.45
-51.18
-57.52
-62.37
-64.38
-62.39
-55.99
-45.81
-33.40
-20.79
-9.76
-1.35
4.30
7.77
9.88
11.33
12.50
13.50
14.27
14.77
15.06
15.28
15.58
16.10
16.87
17.83
18.79
19.48
19.61
18.90
17.28
14.84
11.92
8.90
6.13
3.71
1.50
-0.83
-3.57
-6.83
-10.46
-14.09
-17.40
-20.26
-22.85
-25.61
-29.03
-33.50
-39.08
-45.41
-51.65
-56.63
-59.05
-57.87
-52.61
-43.62
-32.05
-19.55
-7.81
1.84
8.80
13.18
15.61
16.88
17.67
18.35
19.04
19.70
20.35
21.05
21.89
22.90
23.91
24.62
24.73
24.07
22.67
20.79
18.69
16.61
14.53
12.29
9.55
6.10
1.88
-2.86
-7.62
-11.87
-15.19
-17.56
-19.31
-21.06
-23.41
-26.79
-31.33
-36.81
-42.67
-47.95
-51.41
-51.79
-48.19
-40.47
-29.46
-16.82
-4.49
5.89
13.47
18.24
20.77
21.84
22.01
21.67
21.01
20.20
19.48
19.06
19.05
19.43
20.03
20.64
21.06
21.22
21.09
20.65
19.86
18.61
16.69
13.93
10.30
5.98
1.34
-3.16
-7.17
-10.63
-13.74
-16.92
-20.64
-25.28
-31.01
-37.72
-44.89
-51.50
-56.21
-57.55
-54.47
-46.80
-35.38
-21.96
-8.64
2.84
11.49
17.21
20.51
22.11
22.63
22.45
21.74
20.68
19.53
18.58
18.09
18.16
18.66
19.26
19.58
19.34
18.39
16.77
14.54
11.75
8.43
4.64
0.53
-3.66
-7.71
-11.50
-15.14
-18.95
-23.32
-28.58
-34.91
-42.21
-50.03
-57.51
-63.34
-66.06
-64.42
-57.93
-47.14
-33.65
-19.58
-6.95
2.94
9.70
13.79
16.09
17.45
18.51
19.54
20.59
21.62
22.50
23.13
23.38
23.14
22.42
21.30
20.03
18.88
18.05
17.52
17.02
16.13
14.44
11.70
7.96
3.50
-1.34
-6.31
-11.36
-16.69
-22.61
-29.49
-37.52
-46.49
-55.67
-63.73
-69.06
-70.16
-66.29
-57.77
-45.95
-32.80
-20.20
-9.42
-0.87
5.66
10.64
14.42
17.16
18.81
19.43
19.23
18.61
17.98
17.68
17.89
18.67
20.06
22.11
24.84
28.12
31.56
34.45
35.83
34.89
31.18
24.86
16.68
7.72
-0.96
-8.69
-15.37
-21.42
-27.54
-34.46
-42.59
-51.85
-61.55
-70.40
-76.81
-79.26
-76.86
-69.65
-58.70
-45.79
-32.89
-21.56
-12.55
-5.79
-0.74
3.23
6.45
8.98
10.88
12.47
14.44
17.64
22.60
29.26
36.76
43.84
49.29
52.51
53.65
53.34
52.36
51.11
49.52
47.10
43.39
38.18
31.73
24.70
17.78
11.39
5.40
-0.72
-7.73
-16.22
-26.37
-37.87
-49.94
-61.38
-70.67
-76.20
-76.58
-71.05
-59.92
-44.64
-27.47
-10.82
3.40
14.36
22.17
27.60
31.52
34.56
37.01
38.91
40.29
41.18
41.71
41.95
41.88
41.37
40.37
38.97
37.46
36.23
35.60
35.51
35.54
34.97
33.12
29.65
24.77
19.20
13.84
9.40
6.11
3.59
0.93
-2.96
-9.01
-17.67
-28.58
-40.46
-51.30
-58.82
-61.08
-57.22
-47.74
-34.41
-19.56
-5.38
6.79
16.60
24.46
30.97
36.58
41.29
44.86
47.09
48.05
48.07
47.66
47.22
46.91
46.72
46.63
46.75
47.32
48.52
50.26
51.97
52.74
51.57
47.76
41.25
32.61
22.92
13.27
4.43
-3.37
-10.53
-17.85
-26.26
-36.46
-48.51
-61.62
-74.11
-83.69
-88.09
-85.75
-76.41
-61.32
-42.86
-23.82
-6.47
7.99
19.55
29.00
37.31
45.08
52.21
58.09
61.85
62.83
60.81
56.17
49.76
42.72
36.18
31.07
27.94
26.92
27.70
29.54
31.51
32.61
31.97
29.15
24.14
17.43
9.79
1.99
-5.52
-12.74
-20.23
-28.80
-39.18
-51.47
-64.89
-77.68
-87.45
-91.84
-89.22
-79.30
-63.33
-43.69
-23.31
-4.75
10.46
22.08
30.94
38.43
45.79
53.57
61.43
68.23
72.42
72.53
67.75
58.20
45.10
30.40
16.30
4.51
-4.21
-10.12
-14.33
-18.18
-22.77
-28.55
-35.28
-42.16
-48.15
-52.30
-54.02
-53.28
-50.71
-47.59
-45.51
-46.02
-49.89
-56.68
-64.48
-70.28
-70.83
-63.83
-48.83
-27.53
-3.26
20.18
39.79
54.07
63.21
68.33
70.78
71.47
70.73
68.52
64.92
60.34
55.56
51.47
48.68
47.29
46.95
46.99
46.76
45.85
44.13
41.57
38.23
34.06
28.97
22.90
15.87
7.98
-0.70
-10.25
-20.84
-32.60
-45.37
-58.28
-69.74
-77.60
-79.80
-75.05
-63.51
-46.93
-28.16
-10.27
4.39
14.83
21.48
25.60
28.62
31.41
34.09
36.05
36.46
34.71
30.79
25.41
19.83
15.39
13.04
12.88
14.14
15.54
15.81
14.29
11.11
6.99
2.82
-0.80
-3.81
-6.57
-9.68
-13.82
-19.70
-28.08
-39.62
-54.47
-71.83
-89.75
-105.41
-116.04
-119.89
-116.83
-108.22
-96.23
-82.75
-68.85
-54.80
-40.59
-26.59
-13.82
-3.61
3.10
6.36
7.34
7.89
9.79
14.13
20.90
29.19
37.65
44.90
49.88
52.00
51.11
47.40
41.40
33.82
25.48
17.13
9.27
2.02
-4.91
-12.10
-20.21
-29.53
-39.65
-49.26
-56.32
-58.62
-54.58
-43.99
-28.19
-9.76
8.38
23.91
35.79
44.19
50.10
54.51
57.94
60.40
61.65
61.60
60.59
59.35
58.59
58.59
59.03
59.05
57.69
54.28
48.83
42.02
34.88
28.44
23.31
19.51
16.48
13.36
9.21
3.32
-4.70
-14.73
-26.04
-37.31
-46.67
-52.08
-51.95
-45.70
-34.12
-19.23
-3.67
10.20
20.92
28.29
32.99
36.09
38.40
40.21
41.30
41.29
40.08
37.98
35.76
34.29
34.13
35.21
36.79
37.83
37.41
35.20
31.48
26.90
22.08
17.24
12.26
6.78
0.55
-6.57
-14.60
-23.67
-33.91
-45.24
-56.99
-67.73
-75.47
-78.37
-75.44
-67.06
-54.91
-41.36
-28.54
-17.64
-8.70
-0.94
6.55
14.18
21.63
28.13
32.93
35.73
36.85
36.95
36.73
36.53
36.31
35.73
34.44
32.22
29.09
25.24
21.01
16.75
12.80
9.39
6.45
3.61
0.28
-4.13
-10.00
-17.38
-25.94
-35.04
-43.72
-50.76
-54.77
-54.51
-49.30
-39.42
-26.21
-11.74
1.87
13.11
21.52
27.56
32.09
35.91
39.31
42.13
43.99
44.65
44.17
42.86
41.11
39.21
37.25
35.23
33.12
31.01
29.05
27.35
25.83
24.16
21.83
18.35
13.51
7.50
0.88
-5.64
-11.54
-16.69
-21.55
-26.94
-33.84
-42.93
-54.16
-66.47
-77.82
-85.62
-87.63
-82.76
-71.63
-56.42
-40.07
-25.18
-13.15
-3.96
3.31
9.79
16.06
21.96
26.88
30.27
32.04
32.59
32.58
32.62
32.97
33.49
33.75
33.33
32.01
29.94
27.48
25.07
22.86
20.66
17.89
13.88
8.24
1.08
-6.91
-14.69
-21.28
-26.14
-29.34
-31.47
-33.42
-36.06
-40.05
-45.73
-53.06
-61.41
-69.57
-75.77
-78.13
-75.34
-67.17
-54.77
-40.29
-26.09
-13.94
-4.56
2.32
7.44
11.49
14.75
17.17
18.68
19.47
20.13
21.35
23.63
26.98
30.83
34.32
36.65
37.47
36.91
35.48
33.64
31.51
28.68
24.45
18.26
10.06
0.49
-9.30
-18.12
-25.18
-30.37
-34.23
-37.67
-41.62
-46.74
-53.26
-61.02
-69.41
-77.40
-83.62
-86.64
-85.29
-79.14
-68.71
-55.37
-40.98
-27.34
-15.70
-6.53
0.42
5.85
10.53
15.05
19.68
24.35
28.79
32.72
35.96
38.52
40.53
42.18
43.70
45.28
47.08
49.23
51.75
54.43
56.78
58.12
57.77
55.31
50.87
45.17
39.25
34.03
29.83
26.17
21.97
16.16
8.37
-0.48
-8.37
-12.77
-11.66
-4.39
8.02
23.31
38.84
52.54
63.48
71.89
78.63
84.51
89.68
93.45
94.48
91.33
83.13
70.00
53.22
34.90
17.33
2.26
-9.58
-18.51
-25.64
-32.30
-39.54
-47.84
-57.10
-66.79
-76.19
-84.57
-91.28
-95.92
-98.49
-99.36
-99.36
-99.53
-100.74
-103.25
-106.46
-108.97
-108.97
-104.95
-96.35
-83.78
-68.84
-53.49
-39.46
-27.80
-18.90
-12.73
-9.10
-7.79
-8.41
-10.25
-12.31
-13.55
-13.22
-11.17
-7.78
-3.75
0.31
4.04
7.41
10.41
12.86
14.36
14.36
12.47
8.64
3.29
-2.86
-8.99
-14.48
-19.02
-22.69
-25.89
-29.13
-32.83
-37.08
-41.50
-45.17
-46.80
-45.08
-39.18
-29.19
-16.16
-1.96
11.37
22.21
29.82
34.41
36.80
37.94
38.51
38.70
38.38
37.35
35.64
33.61
31.88
31.05
31.45
32.99
35.26
37.66
39.64
40.82
40.94
39.81
37.26
33.19
27.70
21.13
14.08
7.10
0.49
-5.94
-12.68
-20.29
-28.77
-37.39
-44.68
-48.89
-48.66
-43.54
-34.26
-22.44
-10.11
0.90
9.42
15.01
17.89
18.67
18.10
16.80
15.20
13.50
11.73
9.84
7.83
5.75
3.69
1.73
-0.12
-1.89
-3.51
-4.76
-5.31
-4.86
-3.31
-0.89
1.89
4.54
6.73
8.42
9.77
10.78
11.18
10.38
7.83
3.49
-1.87
-6.70
-9.20
-8.03
-2.93
5.18
14.56
23.41
30.58
35.89
39.99
43.83
48.06
52.66
57.01
60.19
61.47
60.59
57.80
53.71
48.83
43.41
37.45
30.82
23.62
16.24
9.28
3.33
-1.41
-5.23
-8.82
-12.99
-18.39
-25.34
-33.86
-43.77
-54.64
-65.72
-75.76
-83.19
-86.38
-84.27
-76.85
-65.26
-51.57
-38.04
-26.48
-17.72
-11.57
-7.21
-3.69
-0.42
2.63
5.12
6.67
7.25
7.25
7.40
8.32
10.17
12.52
14.49
15.22
14.18
11.42
7.46
3.01
-1.41
-5.61
-9.71
-14.00
-18.79
-24.32
-30.74
-38.14
-46.43
-55.19
-63.51
-69.98
-73.04
-71.42
-64.74
-53.72
-40.10
-26.01
-13.37
-3.20
4.49
10.47
15.74
20.99
26.30
31.17
34.93
37.04
37.48
36.68
35.35
34.14
33.37
32.95
32.44
31.30
29.09
25.64
21.11
15.85
10.30
4.80
-0.61
-6.06
-11.85
-18.29
-25.60
-33.89
-43.13
-52.98
-62.68
-70.96
-76.15
-76.70
-71.72
-61.49
-47.47
-31.91
-16.97
-4.11
6.27
14.62
21.67
27.95
33.53
38.13
41.43
43.30
43.95
43.76
43.15
42.30
41.21
39.71
37.72
35.30
32.68
30.14
27.83
25.61
23.07
19.71
15.16
9.45
3.08
-3.15
-8.42
-12.28
-14.82
-16.59
-18.41
-21.04
-24.94
-30.13
-36.20
-42.37
-47.49
-50.28
-49.54
-44.61
-35.63
-23.67
-10.50
2.07
12.77
21.28
28.18
34.43
40.79
47.34
53.47
58.21
60.83
61.17
59.73
57.39
55.00
53.05
51.55
50.27
48.84
47.07
44.91
42.42
39.66
36.63
33.28
29.54
25.44
20.95
16.12
11.02
5.74
0.45
-4.71
-9.64
-14.40
-19.17
-24.24
-29.91
-36.46
-44.05
-52.65
-61.88
-70.89
-78.35
-82.70
-82.60
-77.47
-67.74
-54.73
-40.24
-25.93
-12.85
-1.30
8.96
18.34
27.09
35.04
41.78
46.85
50.05
51.63
52.20
52.50
53.06
54.05
55.16
55.88
55.78
54.73
52.84
50.38
47.56
44.42
40.94
37.08
32.89
28.43
23.74
18.75
13.36
7.61
1.64
-4.18
-9.46
-13.94
-17.64
-20.92
-24.38
-28.71
-34.44
-41.70
-50.00
-58.14
-64.44
-67.20
-65.24
-58.43
-47.76
-35.04
-22.22
-10.79
-1.43
5.98
12.04
17.31
22.09
26.29
29.65
31.94
33.21
33.80
34.23
34.97
36.23
37.90
39.54
40.63
40.73
39.70
37.74
35.28
32.75
30.36
27.90
24.93
20.91
15.63
9.33
2.71
-3.38
-8.31
-11.93
-14.61
-17.07
-20.05
-24.10
-29.52
-36.35
-44.37
-53.03
-61.33
-67.84
-70.98
-69.48
-62.94
-52.05
-38.50
-24.40
-11.63
-1.35
6.24
11.64
15.64
18.92
21.87
24.53
26.73
28.31
29.23
29.63
29.75
29.82
30.02
30.34
30.69
30.85
30.62
29.80
28.28
25.96
22.88
19.14
14.95
10.54
6.09
1.69
-2.66
-6.97
-11.22
-15.35
-19.27
-22.98
-26.59
-30.40
-34.79
-40.19
-46.84
-54.62
-62.81
-70.09
-74.80
-75.40
-71.07
-62.02
-49.51
-35.52
-22.02
-10.46
-1.36
5.63
11.39
16.78
22.32
27.93
33.10
37.16
39.57
40.21
39.37
37.68
35.79
34.19
33.00
32.08
31.10
29.76
27.98
25.87
23.71
21.70
19.91
18.14
16.06
13.40
10.05
6.17
2.05
-2.07
-6.10
-10.13
-14.37
-19.00
-24.06
-29.58
-35.62
-42.32
-49.85
-58.07
-66.31
-73.26
-77.22
-76.61
-70.63
-59.68
-45.34
-29.82
-15.29
-3.13
6.26
13.38
19.02
23.81
28.01
31.50
34.08
35.72
36.62
37.05
37.26
37.33
37.22
36.88
36.34
35.71
35.09
34.54
33.95
33.14
31.92
30.14
27.70
24.59
20.84
16.44
11.46
6.03
0.33
-5.36
-10.83
-15.96
-20.83
-25.73
-31.10
-37.35
-44.79
-53.42
-62.78
-71.99
-79.76
-84.68
-85.57
-81.83
-73.70
-62.27
-49.15
-35.99
-24.03
-13.85
-5.39
1.72
7.88
13.23
17.63
20.90
22.97
24.02
24.45
24.64
24.81
24.88
24.64
23.86
22.46
20.64
18.69
16.95
15.55
14.41
13.16
11.31
8.45
4.36
-0.80
-6.52
-12.06
-16.66
-19.88
-21.74
-22.80
-23.93
-26.01
-29.65
-34.94
-41.38
-47.93
-53.23
-55.88
-54.86
-49.85
-41.37
-30.67
-19.40
-8.92
0.02
7.63
14.81
22.63
31.75
41.95
52.19
60.94
66.77
68.91
67.47
63.39
58.05
52.77
48.45
45.39
43.34
41.81
40.21
38.21
35.64
32.50
28.74
24.21
18.73
12.16
4.69
-3.29
-11.23
-18.79
-25.96
-33.05
-40.49
-48.25
-55.73
-61.63
-64.40
-62.80
-56.50
-46.17
-33.40
-20.11
-7.95
2.01
9.49
14.66
17.94
19.70
20.25
19.93
19.16
18.50
18.43
19.25
20.94
23.14
25.22
26.52
26.49
24.79
21.40
16.55
10.73
4.51
-1.57
-7.14
-12.02
-16.24
-19.95
-23.31
-26.56
-29.88
-33.32
-36.72
-39.53
-40.89
-39.85
-35.76
-28.57
-18.95
-7.99
3.18
13.76
23.44
32.23
40.10
46.80
51.95
55.28
56.94
57.62
58.26
59.68
62.10
64.97
67.11
66.94
63.06
54.56
41.34
24.17
4.55
-15.57
-34.31
-50.30
-62.95
-72.57
-80.01
-86.30
-92.14
-97.60
-102.14
-104.83
-104.82
-101.70
-95.67
-87.42
-77.86
-67.86
-57.98
-48.48
-39.37
-30.49
-21.73
-13.06
-4.67
3.14
10.02
15.87
20.95
25.97
31.85
39.29
48.30
58.00
66.70
72.54
74.19
71.40
65.05
56.78
48.17
40.19
32.93
25.80
18.03
9.17
-0.70
-11.10
-21.39
-30.96
-39.24
-45.53
-48.98
-48.74
-44.42
-36.37
-25.77
-14.34
-3.74
4.94
11.50
16.39
20.32
23.72
26.57
28.45
28.89
27.79
25.47
22.63
20.03
18.23
17.41
17.41
17.77
18.00
17.62
16.30
13.91
10.49
6.26
1.61
-3.00
-7.18
-10.78
-13.91
-17.05
-20.87
-26.00
-32.70
-40.73
-49.19
-56.76
-61.96
-63.46
-60.51
-52.98
-41.52
-27.36
-12.09
2.77
16.07
27.31
36.55
44.16
50.49
55.54
58.98
60.33
59.35
56.25
51.81
47.11
43.26
40.99
40.45
41.21
42.46
43.34
43.28
42.07
39.91
37.24
34.51
32.13
30.28
28.97
27.89
26.43
23.82
19.29
12.41
3.41
-6.63
-16.01
-22.75
-25.26
-22.71
-15.36
-4.42
8.33
21.00
32.15
40.95
47.23
51.19
53.24
53.75
53.08
51.62
49.72
47.64
45.47
43.10
40.31
36.96
33.10
28.94
24.74
20.69
16.82
13.05
9.37
5.82
2.53
-0.40
-3.02
-5.53
-8.31
-11.85
-16.68
-23.26
-31.72
-41.63
-51.89
-60.88
-66.92
-68.79
-66.21
-59.89
-51.24
-41.81
-32.81
-24.85
-18.03
-12.18
-7.15
-2.91
0.48
3.04
4.85
6.18
7.29
8.41
9.59
10.74
11.64
12.06
11.87
11.09
9.93
8.66
7.53
6.58
5.57
4.13
1.92
-1.14
-4.78
-8.47
-11.66
-14.05
-15.77
-17.35
-19.51
-22.89
-27.76
-33.89
-40.43
-46.16
-49.73
-50.04
-46.71
-40.13
-31.49
-22.31
-13.97
-7.20
-1.96
2.30
6.28
10.33
14.28
17.59
19.67
20.28
19.64
18.33
17.02
16.09
15.52
14.94
13.96
12.36
10.33
8.25
6.48
5.12
3.92
2.41
0.14
-3.06
-6.99
-11.14
-14.88
-17.71
-19.48
-20.40
-21.01
-21.93
-23.67
-26.52
-30.42
-35.10
-40.01
-44.52
-47.86
-49.28
-48.20
-44.49
-38.62
-31.56
-24.47
-18.26
-13.23
-9.12
-5.34
-1.42
2.69
6.62
9.79
11.81
12.67
12.76
12.74
13.24
14.68
17.09
20.15
23.19
25.45
26.24
25.15
22.15
17.60
12.10
6.35
0.97
-3.44
-6.45
-7.76
-7.34
-5.50
-3.09
-1.25
-1.26
-4.13
-10.22
-19.18
-29.89
-40.76
-49.96
-55.88
-57.34
-53.87
-45.92
-34.72
-22.08
-9.96
0.12
7.33
11.67
13.84
14.76
15.29
15.88
16.53
16.99
16.93
16.25
15.09
13.85
12.97
12.70
13.07
13.91
14.91
15.85
16.66
17.28
17.64
17.59
16.95
15.63
13.75
11.65
9.70
8.19
7.14
6.30
5.25
3.59
1.06
-2.33
-6.14
-9.67
-12.00
-12.25
-9.92
-5.04
1.76
9.38
16.62
22.45
26.28
28.04
28.02
26.74
24.75
22.47
20.09
17.62
14.96
12.06
9.01
6.08
3.57
1.69
0.42
-0.44
-1.15
-1.94
-2.93
-4.08
-5.32
-6.54
-7.65
-8.57
-9.28
-9.84
-10.42
-11.37
-12.99
-15.50
-18.83
-22.52
-25.82
-27.81
-27.72
-25.08
-19.97
-12.92
-4.84
3.21
10.26
15.68
19.26
21.15
21.75
21.51
20.79
19.81
18.67
17.47
16.28
15.21
14.31
13.58
12.98
12.46
11.95
11.45
10.95
10.36
9.57
8.45
6.95
5.08
2.97
0.67
-1.84
-4.69
-8.05
-12.05
-16.74
-21.97
-27.45
-32.72
-37.19
-40.26
-41.40
-40.39
-37.42
-33.16
-28.57
-24.54
-21.54
-19.46
-17.69
-15.50
-12.43
-8.52
-4.23
-0.11
3.44
6.39
8.88
10.98
12.54
13.25
12.86
11.39
9.22
6.91
4.96
3.62
2.85
2.44
2.18
1.94
1.66
1.31
0.85
0.22
-0.70
-1.98
-3.73
-6.09
-9.16
-12.96
-17.26
-21.54
-25.00
-26.75
-26.11
-22.94
-17.76
-11.69
-6.08
-1.99
0.16
0.68
0.40
0.25
0.81
2.10
3.70
4.99
5.49
5.10
4.07
2.87
1.96
1.59
1.74
2.20
2.65
2.80
2.45
1.54
0.13
-1.62
-3.48
-5.24
-6.77
-8.05
-9.21
-10.47
-12.12
-14.47
-17.74
-21.95
-26.81
-31.59
-35.28
-36.76
-35.22
-30.46
-23.08
-14.31
-5.62
1.71
6.95
10.08
11.61
12.32
12.86
13.59
14.47
15.25
15.65
15.56
15.05
14.32
13.58
12.91
12.27
11.57
10.75
9.83
8.86
7.86
6.74
5.39
3.71
1.75
-0.34
-2.32
-4.08
-5.67
-7.36
-9.50
-12.21
-15.22
-17.75
-18.82
-17.56
-13.67
-7.63
-0.56
6.21
11.63
15.26
17.36
18.61
19.72
21.09
22.72
24.30
25.49
26.11
26.18
25.88
25.39
24.79
24.04
23.04
21.70
20.02
18.04
15.81
13.32
10.56
7.60
4.52
1.48
-1.43
-4.30
-7.39
-11.07
-15.65
-21.23
-27.51
-33.76
-38.98
-42.07
-42.15
-38.83
-32.33
-23.46
-13.46
-3.65
4.89
11.61
16.48
19.96
22.58
24.76
26.59
27.92
28.47
28.07
26.76
24.76
22.32
19.60
16.62
13.30
9.50
5.21
0.49
-4.47
-9.43
-14.03
-17.96
-21.00
-23.10
-24.47
-25.49
-26.73
-28.78
-32.17
-37.13
-43.40
-50.10
-55.77
-58.83
-58.07
-53.23
-45.17
-35.58
-26.33
-18.73
-13.14
-9.09
-5.70
-2.32
1.20
4.49
7.08
8.62
9.17
9.05
8.74
8.48
8.32
8.04
7.32
5.90
3.72
0.95
-2.12
-5.09
-7.72
-9.97
-12.06
-14.37
-17.27
-20.99
-25.53
-30.81
-36.67
-43.00
-49.52
-55.61
-60.25
-62.14
-60.17
-53.92
-43.94
-31.66
-18.87
-7.18
2.50
10.05
15.88
20.55
24.45
27.70
30.22
31.90
32.77
33.01
32.93
32.85
32.99
33.40
33.89
34.15
33.86
32.81
31.00
28.56
25.67
22.47
18.97
15.07
10.68
5.66
-0.07
-6.58
-13.85
-21.60
-29.11
-35.17
-38.36
-37.49
-32.15
-22.98
-11.54
0.26
10.80
19.28
25.77
30.83
35.01
38.48
40.98
42.10
41.61
39.74
37.12
34.57
32.70
31.75
31.48
31.37
30.86
29.51
27.19
24.00
20.27
16.31
12.41
8.67
4.99
1.07
-3.53
-9.28
-16.54
-25.36
-35.29
-45.26
-53.67
-58.70
-58.94
-53.79
-43.88
-30.79
-16.62
-3.28
8.09
17.22
24.49
30.52
35.68
39.98
43.13
44.87
45.12
44.18
42.56
40.82
39.33
38.15
37.06
35.67
33.63
30.68
26.78
21.97
16.43
10.36
3.99
-2.46
-8.86
-15.23
-21.82
-29.03
-37.29
-46.76
-57.08
-67.14
-75.14
-79.08
-77.44
-69.86
-57.48
-42.57
-27.86
-15.42
-6.10
0.60
5.99
11.39
17.46
24.00
30.22
35.21
38.45
39.98
40.23
39.80
39.08
38.23
37.15
35.64
33.55
30.81
27.44
23.46
18.85
13.60
7.72
1.32
-5.47
-12.54
-19.89
-27.72
-36.27
-45.65
-55.58
-65.19
-73.00
-77.27
-76.55
-70.26
-59.00
-44.49
-28.94
-14.41
-2.15
7.59
15.34
21.85
27.60
32.57
36.34
38.50
38.96
38.10
36.67
35.44
34.90
35.06
35.52
35.66
34.97
33.19
30.37
26.75
22.60
18.11
13.37
8.42
3.28
-2.07
-7.74
-14.01
-21.26
-29.68
-39.03
-48.35
-56.03
-60.22
-59.36
-52.81
-41.19
-26.20
-10.22
4.46
16.22
24.52
29.79
33.09
35.50
37.72
39.86
41.57
42.36
41.96
40.55
38.64
36.90
35.81
35.44
35.46
35.30
34.30
32.01
28.26
23.17
17.07
10.44
3.94
-1.52
-4.89
-5.26
-2.33
3.20
9.64
14.89
17.26
16.15
12.37
7.63
3.74
1.83
2.05
3.82
6.43
9.48
12.92
16.90
21.29
25.65
29.28
31.62
32.43
31.95
30.71
29.27
28.03
27.11
26.40
25.63
24.51
22.74
20.10
16.54
12.18
7.33
2.36
-2.46
-7.07
-11.65
-16.60
-22.32
-29.13
-37.10
-45.95
-54.91
-62.75
-67.87
-68.69
-64.15
-54.18
-39.84
-23.14
-6.35
8.64
20.83
30.25
37.64
43.93
49.77
55.25
59.99
63.35
64.72
63.80
60.63
55.64
49.48
42.90
36.54
30.83
25.87
21.50
17.31
12.85
7.77
1.94
-4.52
-11.30
-18.02
-24.46
-30.64
-36.90
-43.73
-51.54
-60.22
-68.87
-75.88
-79.28
-77.49
-69.96
-57.47
-41.95
-25.72
-10.80
1.75
11.79
19.81
26.42
31.92
36.30
39.30
40.75
40.63
39.17
36.68
33.58
30.23
26.97
24.05
21.55
19.35
17.15
14.57
11.28
7.13
2.20
-3.30
-9.03
-14.76
-20.28
-25.59
-30.90
-36.64
-43.35
-51.34
-60.37
-69.32
-76.29
-79.08
-76.03
-66.76
-52.41
-35.35
-18.26
-3.31
8.48
17.23
23.79
29.12
33.79
37.86
41.01
42.88
43.32
42.57
41.15
39.68
38.59
38.01
37.72
37.28
36.26
34.40
31.72
28.36
24.53
20.27
15.49
10.07
3.94
-2.86
-10.24
-18.15
-26.61
-35.52
-44.48
-52.54
-58.33
-60.36
-57.57
-49.84
-38.15
-24.35
-10.56
1.48
10.95
17.94
23.17
27.42
31.15
34.43
37.02
38.82
39.99
40.92
42.00
43.29
44.47
44.88
43.87
41.04
36.41
30.37
23.56
16.69
10.33
4.81
0.13
-4.01
-8.13
-12.76
-18.36
-25.14
-33.00
-41.43
-49.48
-55.79
-58.80
-57.21
-50.43
-38.95
-24.37
-8.94
5.09
16.15
23.73
28.24
30.66
31.97
32.79
33.31
33.39
32.81
31.53
29.75
27.81
26.06
24.61
23.34
21.88
19.85
16.99
13.31
9.02
4.43
-0.18
-4.76
-9.32
-14.02
-18.99
-24.39
-30.43
-37.38
-45.49
-54.74
-64.58
-73.77
-80.53
-83.00
-79.88
-70.98
-57.45
-41.41
-25.29
-11.06
0.32
8.91
15.48
20.97
26.00
30.66
34.63
37.50
39.08
39.51
39.18
38.53
37.77
36.85
35.49
33.43
30.58
27.04
23.06
18.88
14.60
10.17
5.49
0.53
-4.60
-9.71
-14.74
-19.86
-25.57
-32.48
-41.00
-50.92
-61.20
-70.05
-75.39
-75.57
-69.92
-59.07
-44.77
-29.25
-14.56
-1.97
8.10
15.90
21.97
26.70
30.29
32.79
34.23
34.82
34.85
34.65
34.41
34.14
33.74
33.11
32.26
31.29
30.34
29.41
28.30
26.59
23.89
20.04
15.23
9.97
4.88
0.36
-3.56
-7.25
-11.35
-16.45
-23.01
-31.08
-40.30
-49.73
-57.93
-63.14
-63.75
-58.88
-48.78
-34.86
-19.34
-4.50
7.95
17.31
23.80
28.15
31.18
33.41
34.99
35.90
36.13
35.84
35.33
34.96
34.97
35.42
36.10
36.66
36.67
35.78
33.79
30.71
26.75
22.28
17.71
13.38
9.48
5.95
2.54
-1.11
-5.49
-11.10
-18.34
-27.29
-37.53
-47.91
-56.70
-61.96
-62.12
-56.50
-45.70
-31.41
-15.97
-1.60
10.11
18.55
23.94
26.96
28.39
28.83
28.67
28.20
27.65
27.25
27.12
27.28
27.50
27.51
27.08
26.07
24.48
22.33
19.66
16.42
12.59
8.18
3.32
-1.75
-6.81
-11.69
-16.46
-21.39
-26.91
-33.47
-41.34
-50.39
-59.96
-68.77
-75.15
-77.37
-74.26
-65.66
-52.65
-37.30
-22.02
-8.78
1.37
8.53
13.44
17.09
20.16
22.94
25.39
27.39
28.84
29.76
30.19
30.12
29.58
28.58
27.22
25.63
23.91
22.06
19.94
17.39
14.23
10.38
5.90
1.03
-3.95
-8.76
-13.35
-17.89
-22.89
-28.99
-36.69
-46.01
-56.19
-65.72
-72.59
-74.97
-71.81
-63.25
-50.58
-35.86
-21.20
-8.22
2.23
10.10
15.77
19.80
22.66
24.65
25.94
26.61
26.73
26.38
25.60
24.45
23.00
21.36
19.70
18.20
16.91
15.72
14.31
12.25
9.19
5.03
-0.03
-5.57
-11.22
-16.78
-22.29
-27.95
-34.06
-40.88
-48.50
-56.74
-64.99
-72.13
-76.64
-77.03
-72.34
-62.60
-48.98
-33.49
-18.33
-5.25
4.86
12.00
16.79
20.00
22.25
23.87
24.91
25.36
25.23
24.72
24.12
23.78
23.92
24.60
25.54
26.25
26.16
24.84
22.18
18.40
14.05
9.77
6.22
3.86
2.91
3.21
4.17
4.81
3.94
0.58
-5.59
-13.90
-22.62
-29.43
-32.18
-29.66
-22.00
-10.66
2.24
14.55
24.78
32.36
37.44
40.62
42.47
43.33
43.34
42.53
41.01
39.03
36.92
35.02
33.44
32.10
30.71
28.86
26.30
22.93
18.84
14.31
9.56
4.72
-0.25
-5.50
-11.20
-17.46
-24.30
-31.69
-39.63
-48.11
-56.95
-65.57
-72.77
-77.00
-76.74
-71.12
-60.43
-46.19
-30.65
-16.09
-4.08
4.85
11.08
15.49
18.91
21.78
24.12
25.67
26.22
25.75
24.50
22.93
21.43
20.21
19.18
17.96
16.08
13.18
9.18
4.34
-0.83
-5.80
-10.26
-14.25
-18.12
-22.37
-27.46
-33.73
-41.29
-50.03
-59.53
-68.94
-76.95
-81.97
-82.49
-77.67
-67.74
-54.02
-38.52
-23.34
-9.99
0.93
9.62
16.70
22.73
28.00
32.38
35.63
37.51
38.05
37.52
36.37
35.06
33.93
33.04
32.28
31.29
29.65
27.01
23.17
18.21
12.41
6.28
0.26
-5.32
-10.40
-15.27
-20.42
-26.42
-33.76
-42.62
-52.63
-62.77
-71.34
-76.37
-76.13
-69.80
-57.91
-42.28
-25.47
-9.86
3.02
12.86
20.29
26.34
31.78
36.82
41.19
44.49
46.50
47.36
47.45
47.13
46.60
45.84
44.76
43.30
41.54
39.57
37.43
34.95
31.85
27.82
22.77
16.87
10.55
4.33
-1.42
-6.66
-11.75
-17.29
-23.97
-32.11
-41.39
-50.62
-57.93
-61.24
-59.02
-50.89
-37.90
-22.19
-6.30
7.70
18.78
27.04
33.32
38.48
43.05
46.93
49.76
51.21
51.33
50.57
49.56
48.82
48.54
48.50
48.26
47.36
45.52
42.63
38.78
34.11
28.77
22.95
16.81
10.55
4.28
-1.99
-8.35
-15.05
-22.42
-30.70
-39.89
-49.48
-58.31
-64.76
-67.09
-64.12
-55.74
-43.07
-28.15
-13.30
-0.30
10.05
17.85
23.77
28.48
32.40
35.61
38.12
39.96
41.22
41.99
42.23
41.78
40.54
38.58
36.19
33.80
31.69
29.83
27.83
25.12
21.24
16.06
9.89
3.33
-2.93
-8.46
-13.21
-17.55
-22.18
-27.84
-35.11
-44.04
-53.98
-63.49
-70.64
-73.49
-70.76
-62.29
-49.26
-33.74
-18.08
-4.13
7.24
16.12
23.17
29.12
34.37
38.94
42.67
45.44
47.31
48.46
49.03
48.98
48.13
46.32
43.58
40.24
36.81
33.77
31.23
28.90
26.11
22.19
16.77
9.98
2.45
-4.99
-11.65
-17.30
-22.28
-27.35
-33.46
-41.33
-51.17
-62.48
-73.97
-83.77
-89.85
-90.56
-85.19
-74.31
-59.61
-43.42
-27.93
-14.58
-3.78
4.88
12.16
18.66
24.50
29.44
33.16
35.62
37.06
37.92
38.59
39.13
39.39
39.09
38.12
36.63
34.97
33.47
32.21
30.89
28.99
25.93
21.41
15.52
8.77
1.94
-4.23
-9.27
-13.20
-16.53
-20.10
-24.80
-31.23
-39.43
-48.70
-57.63
-64.40
-67.19
-64.83
-57.21
-45.36
-31.18
-16.76
-3.74
7.13
15.93
23.25
29.67
35.40
40.30
44.07
46.55
47.83
48.23
48.11
47.70
47.02
45.96
44.41
42.37
39.91
37.12
33.99
30.40
26.12
21.06
15.31
9.18
3.10
-2.57
-7.70
-12.49
-17.37
-22.89
-29.48
-37.34
-46.14
-54.97
-62.35
-66.55
-66.09
-60.33
-49.81
-36.17
-21.69
-8.48
2.11
9.81
15.17
19.09
22.33
25.25
27.81
29.79
30.99
31.39
31.09
30.27
29.08
27.64
25.99
24.11
21.92
19.27
16.01
12.03
7.35
2.14
-3.31
-8.68
-13.69
-18.27
-22.49
-26.58
-30.84
-35.68
-41.50
-48.58
-56.75
-65.16
-72.17
-75.79
-74.25
-66.84
-54.28
-38.59
-22.35
-7.81
3.83
12.47
18.83
23.76
27.87
31.32
34.03
35.90
37.01
37.57
37.82
37.82
37.44
36.50
34.89
32.70
30.22
27.75
25.42
23.06
20.27
16.55
11.60
5.52
-1.20
-7.85
-13.80
-18.81
-23.14
-27.50
-32.77
-39.69
-48.46
-58.51
-68.42
-76.16
-79.60
-77.24
-68.72
-55.17
-38.82
-22.31
-7.78
3.72
12.29
18.78
24.12
28.80
32.82
35.88
37.80
38.67
38.87
38.78
38.59
38.25
37.61
36.52
35.04
33.39
31.77
30.30
28.84
27.07
24.59
21.08
16.47
10.96
4.96
-1.08
-6.80
-12.11
-17.15
-22.27
-27.80
-34.02
-41.07
-48.97
-57.57
-66.32
-74.21
-79.72
-81.21
-77.41
-67.93
-53.54
-35.93
-17.19
0.83
16.96
30.76
42.18
51.26
57.83
61.63
62.53
60.78
57.12
52.57
48.18
44.71
42.39
40.97
39.88
38.55
36.66
34.20
31.42
28.59
25.74
22.62
18.79
13.86
7.83
1.18
-5.30
-10.84
-15.03
-18.09
-20.76
-24.07
-28.96
-35.94
-44.94
-55.17
-65.16
-73.04
-76.86
-75.21
-67.67
-55.03
-39.17
-22.46
-7.11
5.44
14.67
20.96
25.08
27.87
29.94
31.64
33.04
34.12
34.81
35.08
34.93
34.41
33.64
32.73
31.75
30.68
29.40
27.68
25.32
22.17
18.24
13.64
8.55
3.18
-2.31
-7.84
-13.35
-18.96
-24.96
-31.80
-39.83
-48.97
-58.40
-66.49
-71.18
-70.65
-64.12
-52.20
-36.77
-20.34
-5.22
7.11
16.26
22.63
27.00
30.03
32.11
33.35
33.78
33.44
32.52
31.21
29.72
28.14
26.45
24.60
22.51
20.09
17.23
13.84
9.86
5.32
0.35
-4.80
-9.91
-14.84
-19.64
-24.62
-30.20
-36.88
-44.99
-54.60
-65.25
-75.91
-84.96
-90.49
-90.86
-85.23
-74.02
-58.88
-42.21
-26.44
-13.23
-3.14
4.36
10.37
15.94
21.60
27.24
32.29
36.13
38.39
39.10
38.69
37.68
36.49
35.28
33.94
32.23
29.90
26.77
22.74
17.80
12.07
5.76
-0.78
-7.19
-13.23
-18.92
-24.61
-30.97
-38.60
-47.84
-58.37
-69.10
-78.31
-83.98
-84.46
-78.98
-68.00
-53.11
-36.51
-20.37
-6.17
5.53
14.99
22.85
29.71
35.86
41.22
45.62
48.88
50.96
52.00
52.17
51.59
50.38
48.66
46.62
44.44
42.22
39.86
37.00
33.21
28.08
21.57
13.98
5.94
-1.88
-9.03
-15.47
-21.61
-28.18
-35.97
-45.53
-56.75
-68.66
-79.39
-86.55
-87.95
-82.39
-70.26
-53.54
-35.14
-17.97
-3.97
6.40
13.89
19.86
25.48
31.23
36.85
41.67
45.08
46.82
47.12
46.45
45.35
44.16
42.98
41.72
40.20
38.23
35.68
32.46
28.51
23.80
18.38
12.41
6.05
-0.53
-7.28
-14.33
-22.03
-30.71
-40.45
-50.81
-60.67
-68.33
-71.97
-70.21
-62.71
-50.42
-35.31
-19.77
-5.77
5.63
14.42
21.29
27.00
31.91
35.89
38.49
39.45
38.88
37.43
35.93
35.10
35.15
35.81
36.39
36.12
34.42
31.03
26.06
19.93
13.14
6.19
-0.65
-7.33
-14.07
-21.25
-29.32
-38.58
-49.07
-60.27
-71.05
-79.73
-84.49
-83.88
-77.43
-65.90
-51.10
-35.25
-20.27
-7.15
4.01
13.71
22.40
30.19
36.72
41.50
44.25
45.11
44.65
43.61
42.61
41.91
41.41
40.68
39.18
36.48
32.39
27.08
20.95
14.52
8.21
2.22
-3.56
-9.51
-16.13
-23.95
-33.34
-44.33
-56.50
-68.88
-79.92
-87.82
-90.91
-88.16
-79.55
-66.10
-49.56
-31.79
-14.29
2.06
16.97
30.45
42.49
52.99
61.82
68.96
74.51
78.68
81.65
83.51
84.18
83.62
81.91
79.27
76.09
72.70
69.25
65.62
61.45
56.23
49.59
41.54
32.45
23.03
13.97
5.73
-1.80
-9.22
-17.40
-27.29
-39.42
-53.72
-69.22
-84.17
-96.22
-103.04
-103.03
-95.82
-82.57
-65.50
-47.20
-29.66
-13.76
0.76
14.71
28.72
42.68
55.65
66.40
73.95
78.10
79.42
79.04
78.02
77.04
76.21
75.21
73.68
71.43
68.55
65.35
62.10
58.81
55.14
50.52
44.41
36.64
27.56
18.05
9.08
1.34
-5.11
-10.87
-16.94
-24.33
-33.66
-45.04
-58.05
-71.77
-84.88
-95.67
-102.32
-103.22
-97.58
-85.80
-69.49
-51.01
-32.66
-16.01
-1.57
11.00
22.36
32.83
42.23
50.03
55.69
59.15
60.90
61.73
62.39
63.22
64.11
64.61
64.35
63.19
61.36
59.17
56.81
54.10
50.54
45.53
38.74
30.39
21.25
12.38
4.68
-1.49
-6.53
-11.37
-17.17
-24.81
-34.52
-45.81
-57.38
-67.45
-74.08
-75.71
-71.59
-62.12
-48.76
-33.60
-18.71
-5.49
5.59
14.89
23.08
30.63
37.53
43.33
47.49
49.79
50.52
50.34
49.99
49.87
49.91
49.64
48.55
46.45
43.58
40.49
37.67
35.23
32.83
29.82
25.58
19.84
12.84
5.22
-2.25
-8.94
-14.55
-19.17
-23.21
-27.30
-32.15
-38.31
-45.94
-54.52
-62.80
-68.94
-71.05
-67.84
-59.12
-45.96
-30.42
-14.78
-0.92
10.23
18.67
25.04
30.16
34.55
38.33
41.27
43.03
43.46
42.73
41.27
39.63
38.26
37.30
36.59
35.80
34.60
32.82
30.51
27.90
25.19
22.47
19.66
16.50
12.69
8.03
2.58
-3.36
-9.31
-14.83
-19.69
-24.00
-28.17
-32.79
-38.37
-45.22
-53.30
-62.20
-71.07
-78.69
-83.59
-84.46
-80.50
-71.88
-59.69
-45.72
-31.88
-19.57
-9.32
-0.91
6.34
13.04
19.47
25.46
30.61
34.56
37.17
38.60
39.16
39.14
38.66
37.68
36.06
33.71
30.78
27.54
24.38
21.56
19.08
16.71
14.02
10.59
6.19
0.90
-4.88
-10.56
-15.59
-19.71
-23.06
-26.11
-29.52
-33.88
-39.53
-46.47
-54.36
-62.40
-69.48
-74.22
-75.35
-72.07
-64.43
-53.44
-40.77
-28.21
-17.10
-8.06
-0.92
4.85
9.85
14.42
18.59
22.26
25.22
27.37
28.72
29.35
29.40
29.00
28.26
27.29
26.19
25.13
24.23
23.52
22.83
21.81
20.00
17.07
12.99
8.12
3.03
-1.68
-5.65
-8.94
-11.96
-15.35
-19.66
-25.25
-32.03
-39.46
-46.51
-51.86
-54.14
-52.42
-46.53
-37.25
-26.04
-14.69
-4.65
3.28
9.04
13.07
15.95
18.13
19.79
20.94
21.55
21.65
21.36
20.80
20.08
19.27
18.40
17.52
16.63
15.70
14.59
13.10
10.96
8.02
4.24
-0.23
-5.10
-10.02
-14.65
-18.78
-22.42
-25.78
-29.33
-33.61
-39.00
-45.39
-51.99
-57.37
-59.86
-58.12
-51.69
-41.28
-28.52
-15.48
-3.92
5.20
11.79
16.40
19.72
22.26
24.17
25.40
25.88
25.72
25.17
24.48
23.74
22.87
21.74
20.25
18.48
16.53
14.44
12.10
9.25
5.73
1.57
-2.94
-7.39
-11.53
-15.29
-18.94
-22.89
-27.59
-33.40
-40.49
-48.73
-57.54
-65.78
-71.86
-74.13
-71.45
-63.69
-51.86
-37.86
-23.82
-11.45
-1.61
5.71
11.03
15.00
18.04
20.35
21.91
22.72
22.82
22.32
21.36
20.08
18.61
17.06
15.49
13.95
12.35
10.52
8.24
5.29
1.63
-2.63
-7.21
-11.77
-16.03
-19.88
-23.44
-27.03
-31.20
-36.49
-43.30
-51.51
-60.30
-68.14
-73.14
-73.64
-68.89
-59.35
-46.59
-32.76
-19.83
-9.05
-0.77
5.39
10.11
14.01
17.44
20.47
22.97
24.77
25.67
25.61
24.64
23.03
21.19
19.55
18.37
17.58
16.80
15.48
13.21
9.90
5.83
1.51
-2.63
-6.43
-10.04
-13.81
-18.14
-23.29
-29.39
-36.37
-43.91
-51.28
-57.33
-60.59
-59.71
-54.06
-44.07
-31.24
-17.67
-5.39
4.35
11.31
16.12
19.75
22.98
26.06
28.76
30.65
31.50
31.41
30.82
30.26
30.05
30.09
29.94
28.99
26.78
23.23
18.62
13.51
8.41
3.62
-0.88
-5.33
-10.06
-15.29
-21.06
-27.20
-33.48
-39.47
-44.49
-47.54
-47.41
-42.97
-33.78
-20.41
-4.60
11.28
24.96
35.07
41.39
44.64
45.89
45.91
44.99
43.02
39.96
36.05
31.85
28.03
25.09
23.12
21.83
20.65
18.97
16.26
12.29
7.22
1.55
-4.00
-8.77
-12.55
-15.66
-18.95
-23.45
-29.92
-38.56
-48.81
-59.52
-69.09
-75.85
-78.41
-76.00
-68.74
-57.57
-44.09
-30.09
-17.02
-5.69
3.76
11.66
18.39
24.13
28.86
32.38
34.62
35.71
35.98
35.78
35.38
34.84
34.03
32.68
30.56
27.52
23.59
18.94
13.83
8.50
3.07
-2.46
-8.20
-14.31
-20.99
-28.44
-36.84
-46.20
-56.11
-65.59
-73.12
-76.95
-75.74
-69.06
-57.71
-43.41
-28.30
-14.12
-1.81
8.56
17.53
25.70
33.37
40.39
46.28
50.57
52.98
53.70
53.20
52.14
51.02
50.05
49.07
47.64
45.29
41.74
36.98
31.27
25.01
18.52
12.02
5.52
-1.12
-8.11
-15.73
-24.27
-34.01
-44.98
-56.75
-68.24
-77.71
-83.21
-83.16
-77.04
-65.61
-50.70
-34.56
-19.12
-5.43
6.33
16.60
25.88
34.47
42.30
49.02
54.28
57.87
59.76
60.19
59.49
58.10
56.39
54.61
52.79
50.75
48.13
44.65
40.14
34.72
28.66
22.29
15.86
9.47
3.09
-3.36
-10.03
-17.14
-24.95
-33.67
-43.16
-52.65
-60.63
-65.14
-64.42
-57.70
-45.55
-29.91
-13.31
1.96
14.58
24.42
32.18
38.83
44.96
50.58
55.22
58.36
59.72
59.50
58.27
56.74
55.42
54.50
53.78
52.82
51.15
48.46
44.66
39.85
34.22
27.97
21.31
14.39
7.42
0.55
-6.16
-12.94
-20.21
-28.53
-38.17
-48.77
-59.08
-67.15
-70.81
-68.54
-60.09
-46.59
-30.30
-13.73
1.14
13.36
22.95
30.54
36.77
41.96
46.15
49.22
51.19
52.24
52.67
52.67
52.22
51.18
49.41
46.99
44.16
41.19
38.19
34.97
31.14
26.31
20.35
13.48
6.22
-0.87
-7.36
-13.16
-18.53
-23.99
-30.23
-37.85
-47.17
-57.99
-69.37
-79.66
-86.78
-88.83
-84.71
-74.62
-60.04
-43.29
-26.69
-11.92
0.39
10.53
19.26
27.24
34.72
41.53
47.26
51.61
54.49
56.11
56.74
56.66
55.93
54.49
52.29
49.43
46.23
43.11
40.39
38.02
35.52
32.12
27.16
20.40
12.19
3.40
-4.91
-11.97
-17.55
-22.10
-26.55
-32.06
-39.54
-49.32
-60.78
-72.42
-82.08
-87.51
-87.15
-80.57
-68.66
-53.34
-36.91
-21.31
-7.74
3.55
12.98
21.22
28.76
35.73
41.88
46.82
50.24
52.11
52.69
52.41
51.68
50.73
49.62
48.25
46.52
44.38
41.87
39.05
35.95
32.54
28.72
24.39
19.48
13.99
8.03
1.82
-4.35
-10.22
-15.64
-20.62
-25.34
-30.07
-35.16
-41.00
-47.95
-56.23
-65.69
-75.56
-84.27
-89.76
-90.07
-84.08
-72.13
-56.04
-38.57
-22.36
-9.14
0.75
8.12
14.26
20.26
26.59
33.11
39.37
44.95
49.62
53.28
55.89
57.46
58.29
59.16
61.21
65.54
72.66
81.97
91.73
99.52
102.93
100.33
91.23
76.35
57.28
36.11
15.06
-3.94
-19.47
-31.00
-38.83
-44.02
-48.03
-52.26
-57.74
-64.89
-73.36
-82.05
-89.27
-93.10
-91.94
-85.14
-73.32
-58.23
-42.21
-27.45
-15.30
-6.04
0.82
6.11
10.44
14.02
16.76
18.51
19.40
19.83
20.33
21.26
22.55
23.77
24.32
23.80
22.27
20.21
18.24
16.78
15.73
14.52
12.49
9.21
4.78
-0.23
-5.10
-9.30
-12.72
-15.67
-18.69
-22.37
-27.15
-33.28
-40.75
-49.16
-57.71
-65.06
-69.54
-69.61
-64.33
-53.84
-39.39
-23.06
-7.10
6.72
17.49
25.20
30.45
33.99
36.37
37.85
38.53
38.48
37.86
36.91
35.82
34.58
32.99
30.83
27.97
24.62
21.24
18.36
16.26
14.85
13.60
11.79
8.80
4.40
-1.23
-7.53
-13.84
-19.62
-24.67
-29.14
-33.51
-38.39
-44.29
-51.36
-59.17
-66.63
-72.19
-74.20
-71.51
-63.85
-51.99
-37.50
-22.27
-8.00
4.23
13.94
21.16
26.16
29.29
30.89
31.33
31.02
30.36
29.73
29.32
29.15
29.09
28.89
28.33
27.22
25.58
23.54
21.33
19.15
16.97
14.56
11.49
7.36
2.08
-4.01
-10.22
-15.78
-20.21
-23.55
-26.31
-29.34
-33.41
-38.98
-45.96
-53.68
-60.83
-65.78
-66.91
-63.05
-54.03
-40.75
-25.05
-9.14
5.07
16.43
24.64
30.04
33.26
34.86
35.32
35.02
34.35
33.71
33.33
33.26
33.26
32.98
32.11
30.55
28.44
26.10
23.73
21.35
18.66
15.26
10.87
5.54
-0.29
-5.99
-10.94
-14.94
-18.24
-21.50
-25.58
-31.18
-38.55
-47.28
-56.23
-63.73
-67.89
-67.18
-60.97
-49.76
-35.22
-19.59
-5.07
6.83
15.54
21.31
24.77
26.56
27.16
26.86
25.95
24.69
23.35
22.04
20.75
19.39
17.93
16.41
14.93
13.52
12.01
10.06
7.34
3.62
-1.04
-6.31
-11.72
-16.77
-21.15
-24.89
-28.32
-32.08
-36.87
-43.24
-51.23
-60.08
-68.26
-73.73
-74.56
-69.56
-58.81
-43.68
-26.48
-9.71
4.63
15.48
22.82
27.31
29.83
31.15
31.70
31.66
31.10
30.11
28.84
27.48
26.16
24.88
23.59
22.09
20.24
17.92
15.08
11.74
7.97
3.87
-0.49
-5.06
-9.77
-14.58
-19.52
-24.78
-30.69
-37.68
-45.99
-55.30
-64.49
-71.80
-75.15
-72.97
-64.75
-51.37
-34.86
-17.74
-2.15
10.65
20.42
27.67
33.13
37.29
40.22
41.63
41.16
38.68
34.45
29.11
23.47
18.27
13.94
10.60
8.03
5.85
3.67
1.11
-2.02
-5.82
-10.22
-15.02
-19.95
-24.78
-29.37
-33.85
-38.58
-44.12
-50.95
-59.17
-68.14
-76.37
-81.78
-82.25
-76.46
-64.40
-47.59
-28.59
-10.17
5.52
17.51
25.94
31.66
35.60
38.46
40.50
41.81
42.50
42.88
43.36
44.29
45.75
47.38
48.53
48.47
46.68
43.09
38.06
32.23
26.26
20.59
15.32
10.28
5.12
-0.57
-7.20
-15.16
-24.65
-35.56
-47.16
-58.10
-66.50
-70.44
-68.56
-60.55
-47.38
-30.95
-13.60
2.59
16.24
26.79
34.33
39.27
42.03
42.94
42.28
40.44
37.98
35.64
34.05
33.52
33.85
34.41
34.36
33.05
30.21
26.09
21.20
16.09
11.09
6.16
1.01
-4.84
-11.83
-20.32
-30.51
-42.22
-54.69
-66.54
-75.84
-80.62
-79.48
-72.15
-59.68
-44.14
-27.96
-13.10
-0.66
9.24
17.01
23.11
27.70
30.62
31.70
31.09
29.43
27.70
26.80
27.13
28.29
29.26
28.86
26.28
21.47
15.07
8.04
1.22
-5.05
-11.04
-17.31
-24.55
-33.30
-43.83
-56.10
-69.51
-82.78
-93.83
-100.23
-99.90
-91.96
-77.30
-58.33
-38.18
-19.58
-4.09
8.15
17.95
26.24
33.53
39.68
44.18
46.70
47.35
46.85
46.18
46.10
46.81
47.84
48.28
47.20
44.11
39.18
33.08
26.62
20.34
14.21
7.73
0.18
-9.07
-20.29
-33.39
-47.83
-62.66
-76.42
-87.25
-93.15
-92.51
-84.68
-70.32
-51.36
-30.39
-9.89
8.45
24.03
37.11
48.32
58.08
66.45
73.07
77.57
79.81
80.04
78.91
77.21
75.61
74.41
73.49
72.34
70.22
66.46
60.70
53.03
43.96
34.30
24.89
16.39
9.10
2.88
-2.87
-9.08
-16.85
-27.03
-39.71
-53.83
-67.13
-76.57
-79.33
-73.83
-60.54
-41.74
-20.80
-0.92
15.94
29.31
39.84
48.48
55.82
61.84
66.22
68.79
69.87
70.12
70.27
70.62
70.95
70.65
69.12
66.24
62.42
58.46
55.08
52.52
50.29
47.35
42.60
35.37
25.79
14.77
3.66
-6.36
-14.74
-21.69
-28.18
-35.48
-44.78
-56.71
-71.05
-86.53
-100.92
-111.45
-115.44
-111.20
-98.66
-79.47
-56.52
-33.03
-11.52
6.73
21.65
33.90
44.22
52.98
60.19
65.71
69.56
72.02
73.60
74.76
75.70
76.31
76.26
75.28
73.34
70.73
67.92
65.22
62.61
59.58
55.42
49.57
41.90
32.92
23.57
14.80
7.10
0.33
-6.27
-13.70
-22.84
-34.08
-47.03
-60.57
-72.80
-81.41
-84.20
-79.78
-68.14
-50.77
-30.39
-9.99
8.01
22.42
33.27
41.28
47.26
51.60
54.32
55.33
54.82
53.29
51.40
49.72
48.46
47.56
46.82
46.06
45.18
44.04
42.39
39.75
35.68
29.95
22.70
14.50
6.13
-1.72
-8.67
-14.82
-20.62
-26.78
-34.00
-42.81
-53.31
-64.92
-76.27
-85.28
-89.61
-87.40
-78.00
-62.45
-43.22
-23.47
-5.96
7.70
17.37
23.95
28.63
32.22
34.93
36.56
36.94
36.33
35.36
34.78
34.96
35.74
36.46
36.34
34.89
32.21
28.82
25.33
22.03
18.64
14.52
9.07
2.14
-5.65
-13.20
-19.31
-23.16
-24.59
-24.07
-22.52
-21.01
-20.66
-22.37
-26.60
-33.02
-40.34
-46.55
-49.50
-47.79
-41.34
-31.45
-20.12
-9.19
0.34
8.47
15.75
22.63
29.05
34.43
38.07
39.66
39.49
38.36
37.23
36.76
37.08
37.79
38.22
37.80
36.34
34.06
31.42
28.80
26.21
23.30
19.55
14.55
8.28
1.16
-6.11
-12.88
-18.82
-24.00
-28.91
-34.26
-40.73
-48.83
-58.64
-69.60
-80.40
-89.18
-93.85
-92.79
-85.43
-72.48
-55.87
-38.04
-21.29
-7.10
4.09
12.68
19.48
25.24
30.35
34.77
38.25
40.50
41.50
41.47
40.84
39.95
38.95
37.73
36.02
33.67
30.73
27.54
24.50
21.82
19.32
16.41
12.39
6.86
-0.08
-7.71
-15.01
-21.10
-25.61
-28.88
-31.77
-35.34
-40.46
-47.56
-56.46
-66.35
-75.81
-83.03
-86.16
-83.87
-75.81
-62.93
-47.15
-30.86
-16.08
-3.96
5.36
12.47
18.12
22.86
26.82
29.89
31.92
32.99
33.42
33.66
34.03
34.54
34.93
34.74
33.66
31.67
29.09
26.37
23.82
21.38
18.60
14.92
9.98
3.92
-2.65
-8.84
-13.91
-17.61
-20.24
-22.60
-25.69
-30.28
-36.73
-44.72
-53.22
-60.60
-65.02
-64.85
-59.31
-48.75
-34.70
-19.43
-5.23
6.21
14.26
19.14
21.68
22.70
22.81
22.33
21.41
20.24
19.08
18.20
17.74
17.66
17.74
17.77
17.58
17.13
16.37
15.16
13.24
10.29
6.12
0.81
-5.23
-11.34
-16.82
-21.21
-24.45
-27.00
-29.71
-33.58
-39.30
-46.87
-55.29
-62.68
-66.72
-65.49
-58.20
-45.52
-29.44
-12.61
2.50
14.29
22.35
27.45
31.11
35.11
40.83
48.81
58.53
68.47
76.64
81.26
81.31
76.76
68.42
57.51
45.32
32.97
21.39
11.32
3.22
-2.81
-7.16
-10.55
-13.81
-17.54
-21.93
-26.81
-31.79
-36.66
-41.49
-46.75
-53.09
-60.98
-70.30
-79.97
-88.11
-92.35
-90.75
-82.54
-68.50
-50.86
-32.50
-15.98
-2.75
7.01
14.07
19.54
24.22
28.38
31.92
34.56
36.17
36.81
36.62
35.78
34.41
32.64
30.65
28.65
26.81
25.14
23.45
21.34
18.40
14.37
9.25
3.31
-2.97
-9.11
-14.76
-19.89
-24.77
-29.89
-35.79
-42.91
-51.38
-60.84
-70.27
-78.15
-82.63
-82.16
-76.03
-64.69
-49.78
-33.54
-18.15
-5.07
5.24
13.10
19.18
24.08
28.06
31.10
33.11
34.13
34.36
34.06
33.42
32.47
31.11
29.23
26.90
24.32
21.79
19.43
17.14
14.45
10.83
5.90
-0.35
-7.47
-14.77
-21.56
-27.43
-32.43
-36.97
-41.68
-47.25
-54.20
-62.65
-72.09
-81.27
-88.27
-90.95
-87.64
-77.83
-62.42
-43.61
-24.19
-6.70
7.24
17.22
23.84
28.14
31.17
33.62
35.79
37.76
39.55
41.16
42.55
43.65
44.32
44.44
44.05
43.33
42.55
41.89
41.23
40.11
37.96
34.29
28.94
22.25
14.81
7.31
0.21
-6.38
-12.72
-19.32
-26.73
-35.31
-44.98
-55.00
-63.97
-70.03
-71.36
-66.81
-56.35
-41.27
-23.82
-6.60
8.26
19.60
27.31
32.08
34.92
36.70
37.91
38.69
38.99
38.70
37.88
36.68
35.28
33.83
32.34
30.71
28.82
26.64
24.14
21.36
18.20
14.41
9.69
3.87
-2.93
-10.21
-17.28
-23.49
-28.58
-32.89
-37.28
-42.92
-50.79
-61.10
-72.97
-84.35
-92.56
-95.01
-90.20
-78.21
-60.76
-40.59
-20.56
-2.83
11.46
22.19
29.81
34.97
38.32
40.44
41.92
43.21
44.59
46.07
47.35
48.02
47.70
46.30
44.02
41.35
38.76
36.57
34.69
32.65
29.81
25.60
19.80
12.68
4.89
-2.84
-9.98
-16.53
-22.95
-30.07
-38.74
-49.52
-62.29
-76.03
-88.88
-98.41
-102.28
-99.05
-88.73
-72.82
-53.86
-34.62
-17.21
-2.62
9.11
18.55
26.28
32.61
37.62
41.35
44.00
45.93
47.53
48.91
49.90
50.14
49.27
47.21
44.29
41.11
38.19
35.73
33.42
30.59
26.50
20.72
13.33
4.89
-3.82
-12.08
-19.58
-26.46
-33.24
-40.69
-49.59
-60.41
-73.00
-86.31
-98.38
-106.63
-108.60
-102.79
-89.32
-70.06
-48.04
-26.43
-7.61
7.47
19.20
28.62
36.77
44.14
50.63
55.86
59.58
61.93
63.38
64.47
65.53
66.54
67.13
66.86
65.50
63.11
60.08
56.87
53.69
50.36
46.32
40.91
33.72
24.95
15.44
6.34
-1.25
-6.64
-9.72
-10.77
-10.31
-8.94
-7.26
-5.80
-4.88
-4.44
-4.03
-2.97
-0.74
2.65
6.57
10.03
12.22
12.97
12.82
12.77
13.69
15.88
18.96
22.19
24.80
26.48
27.36
27.94
28.69
29.82
31.18
32.36
32.93
32.64
31.53
29.77
27.46
24.44
20.33
14.74
7.57
-0.81
-9.65
-18.07
-25.41
-31.51
-36.82
-42.21
-48.71
-57.07
-67.40
-78.96
-90.06
-98.37
-101.46
-97.62
-86.56
-69.63
-49.49
-29.17
-11.10
3.56
15.02
24.22
32.18
39.35
45.56
50.35
53.50
55.19
56.00
56.50
56.89
56.95
56.22
54.42
51.74
48.80
46.33
44.74
43.81
42.70
40.25
35.53
28.20
18.70
8.06
-2.47
-11.90
-19.85
-26.70
-33.42
-41.25
-51.20
-63.60
-77.73
-91.81
-103.30
-109.55
-108.61
-99.90
-84.55
-65.02
-44.32
-25.08
-8.73
4.60
15.78
25.88
35.53
44.59
52.41
58.23
61.72
63.07
62.88
61.81
60.25
58.25
55.68
52.48
48.86
45.19
41.90
39.13
36.64
33.82
29.91
24.30
16.90
8.17
-0.89
-9.14
-15.73
-20.44
-23.84
-27.11
-31.69
-38.84
-49.16
-62.29
-76.77
-90.21
-99.81
-103.14
-98.88
-87.29
-70.16
-50.22
-30.30
-12.49
2.25
13.98
23.35
31.12
37.75
43.38
48.02
51.71
54.74
57.45
60.13
62.69
64.70
65.56
64.79
62.42
58.98
55.31
52.08
49.46
46.95
43.65
38.67
31.68
23.03
13.72
4.93
-2.45
-8.23
-12.96
-17.67
-23.52
-31.35
-41.34
-52.95
-64.86
-75.20
-81.88
-83.11
-77.94
-66.58
-50.49
-31.92
-13.27
3.56
17.52
28.39
36.48
42.17
45.81
47.64
48.05
47.61
47.01
46.84
47.37
48.43
49.48
49.90
49.25
47.49
44.95
42.10
39.26
36.39
33.02
28.51
22.36
14.59
5.77
-3.16
-11.25
-17.99
-23.54
-28.67
-34.49
-42.05
-51.98
-64.07
-77.28
-89.70
-98.90
-102.50
-98.94
-88.01
-71.07
-50.66
-29.74
-10.74
5.00
17.35
26.93
34.50
40.54
45.07
47.95
49.23
49.31
48.91
48.73
49.11
49.88
50.49
50.38
49.23
47.17
44.66
42.18
39.91
37.57
34.54
30.16
24.02
16.23
7.41
-1.58
-9.93
-17.22
-23.57
-29.57
-36.09
-44.05
-54.13
-66.36
-79.99
-93.24
-103.68
-108.74
-106.59
-96.83
-80.79
-61.06
-40.61
-21.86
-5.98
7.05
17.95
27.45
35.83
42.89
48.23
51.67
53.44
54.16
54.50
54.94
55.57
56.11
56.15
55.34
53.64
51.20
48.36
45.34
42.17
38.52
33.87
27.77
20.04
11.03
1.54
-7.38
-14.88
-20.67
-25.18
-29.40
-34.51
-41.50
-50.86
-62.45
-75.45
-88.35
-99.07
-105.30
-105.08
-97.49
-83.07
-63.81
-42.58
-22.15
-4.47
9.75
20.80
29.42
36.32
41.83
46.07
49.07
51.00
52.14
52.82
53.18
53.23
52.87
51.98
50.57
48.82
46.98
45.27
43.75
42.20
40.19
37.16
32.68
26.64
19.41
11.74
4.50
-1.66
-6.68
-11.03
-15.64
-21.49
-29.30
-39.23
-50.78
-62.75
-73.31
-80.35
-81.91
-76.84
-65.24
-48.61
-29.45
-10.53
5.94
18.79
27.93
33.93
37.59
39.55
40.25
40.06
39.33
38.49
37.91
37.77
38.00
38.34
38.48
38.17
37.24
35.64
33.26
29.94
25.46
19.72
12.82
5.11
-2.82
-10.39
-17.23
-23.33
-29.07
-35.15
-42.26
-50.88
-60.93
-71.59
-81.33
-88.11
-89.92
-85.42
-74.55
-58.56
-39.82
-21.08
-4.61
8.25
17.33
23.22
26.84
28.99
30.19
30.73
30.83
30.74
30.70
30.85
31.15
31.39
31.26
30.60
29.37
27.68
25.58
22.94
19.48
14.89
9.08
2.28
-4.98
-12.15
-18.88
-25.23
-31.58
-38.53
-46.62
-56.14
-66.88
-78.02
-88.02
-94.85
-96.49
-91.68
-80.46
-64.34
-45.83
-27.58
-11.51
1.61
12.10
20.72
28.14
34.56
39.79
43.58
45.93
47.16
47.79
48.23
48.56
48.51
47.66
45.75
42.87
39.47
36.04
32.83
29.66
26.00
21.26
15.13
7.78
-0.22
-8.13
-15.39
-21.83
-27.72
-33.71
-40.62
-49.20
-59.74
-71.73
-83.68
-93.27
-97.94
-95.80
-86.35
-70.85
-51.82
-32.25
-14.47
0.38
12.43
22.52
31.50
39.67
46.79
52.33
55.96
57.85
58.63
59.06
59.65
60.40
60.78
60.07
57.82
54.08
49.50
45.02
41.36
38.68
36.44
33.63
29.28
22.94
14.85
5.86
-2.91
-10.63
-16.99
-22.34
-27.44
-33.18
-40.31
-49.29
-60.13
-72.30
-84.61
-95.21
-101.81
-102.37
-95.72
-82.24
-63.81
-43.30
-23.59
-6.67
6.82
17.38
26.03
33.62
40.42
46.19
50.51
53.17
54.32
54.44
54.09
53.70
53.42
53.19
52.77
51.93
50.51
48.50
46.00
43.10
39.84
36.08
31.54
25.95
19.17
11.46
3.37
-4.36
-11.13
-16.70
-21.32
-25.56
-30.14
-35.68
-42.54
-50.83
-60.39
-70.62
-80.37
-87.92
-91.27
-88.73
-79.62
-64.71
-46.08
-26.50
-8.50
6.34
17.72
26.25
32.88
38.28
42.62
45.73
47.50
48.14
48.22
48.43
49.22
50.54
51.95
52.82
52.73
51.68
49.95
47.85
45.45
42.46
38.41
32.95
26.09
18.28
10.28
2.79
-3.79
-9.51
-14.85
-20.54
-27.35
-35.80
-45.95
-57.15
-68.00
-76.48
-80.45
-78.26
-69.45
-54.98
-37.06
-18.47
-1.64
11.95
21.97
28.93
33.63
36.73
38.57
39.31
39.20
38.70
38.31
38.44
39.07
39.83
40.15
39.59
38.05
35.83
33.44
31.23
29.18
26.80
23.37
18.30
11.47
3.35
-5.14
-13.02
-19.64
-24.88
-29.25
-33.66
-39.19
-46.68
-56.44
-67.91
-79.59
-89.24
-94.38
-93.05
-84.58
-69.83
-51.01
-31.04
-12.58
2.65
14.20
22.72
29.34
35.06
40.36
45.10
48.83
51.14
52.02
51.89
51.39
51.07
51.10
51.26
51.08
50.19
48.52
46.30
43.85
41.32
38.51
34.88
29.81
22.93
14.38
4.87
-4.58
-13.02
-19.94
-25.47
-30.27
-35.32
-41.54
-49.59
-59.69
-71.53
-84.14
-95.87
-104.56
-107.92
-104.37
-93.60
-76.91
-56.89
-36.60
-18.57
-4.07
7.02
15.70
23.22
30.34
37.14
43.15
47.80
50.75
52.13
52.42
52.19
51.90
51.74
51.58
51.13
50.07
48.19
45.51
42.20
38.54
34.76
30.91
26.85
22.28
16.92
10.68
3.73
-3.50
-10.57
-17.14
-23.21
-29.04
-35.06
-41.75
-49.52
-58.64
-69.12
-80.54
-91.80
-101.10
-106.21
-105.10
-96.77
-81.76
-62.12
-40.82
-20.72
-3.69
9.72
20.10
28.43
35.47
41.45
46.18
49.35
50.98
51.51
51.66
52.08
53.05
54.35
55.36
55.42
54.13
51.53
48.11
44.47
41.02
37.72
34.11
29.56
23.62
16.30
8.13
-0.03
-7.39
-13.50
-18.45
-22.84
-27.54
-33.42
-41.10
-50.72
-61.87
-73.48
-83.85
-90.95
-92.83
-88.24
-77.16
-60.90
-41.82
-22.61
-5.51
8.26
18.59
26.10
31.68
36.00
39.35
41.75
43.20
43.78
43.77
43.46
43.09
42.77
42.45
42.02
41.40
40.55
39.46
38.06
36.14
33.37
29.37
23.98
17.36
10.08
2.91
-3.46
-8.73
-13.17
-17.56
-22.92
-30.15
-39.62
-50.90
-62.71
-73.02
-79.52
-80.22
-74.13
-61.60
-44.39
-25.13
-6.53
9.37
21.61
30.26
35.95
39.44
41.28
41.82
41.33
40.19
38.93
38.00
37.66
37.80
37.97
37.67
36.54
34.58
32.09
29.48
26.99
24.46
21.37
17.05
11.02
3.28
-5.61
-14.73
-23.14
-30.26
-36.11
-41.29
-46.79
-53.63
-62.49
-73.35
-85.30
-96.53
-104.66
-107.35
-103.04
-91.58
-74.35
-53.94
-33.31
-14.90
-0.00
11.31
19.76
26.30
31.59
35.90
39.29
41.81
43.73
45.42
47.09
48.67
49.73
49.71
48.27
45.50
41.94
38.32
35.17
32.50
29.73
25.98
20.49
13.05
4.09
-5.43
-14.46
-22.31
-28.92
-34.83
-41.04
-48.59
-58.25
-70.13
-83.44
-96.41
-106.58
-111.43
-109.13
-99.28
-83.06
-62.97
-41.93
-22.41
-5.81
7.66
18.63
27.91
36.00
42.93
48.40
52.18
54.36
55.38
55.87
56.26
56.56
56.42
55.40
53.23
50.12
46.63
43.40
40.73
38.42
35.74
31.76
25.83
17.91
8.68
-0.77
-9.34
-16.41
-22.14
-27.29
-33.02
-40.36
-49.96
-61.78
-75.01
-88.08
-98.79
-104.75
-104.04
-95.84
-80.89
-61.36
-40.17
-20.07
-2.83
11.02
21.96
30.92
38.61
45.31
50.92
55.20
58.12
59.86
60.81
61.35
61.68
61.79
61.53
60.74
59.40
57.68
55.89
54.21
52.51
50.31
46.90
41.67
34.49
25.88
16.92
8.77
2.18
-2.86
-7.13
-11.90
-18.47
-27.61
-39.40
-52.96
-66.60
-78.03
-84.85
-85.17
-78.22
-64.73
-46.77
-27.17
-8.60
7.18
19.62
29.11
36.40
42.05
46.14
48.55
49.27
48.73
47.77
47.32
47.92
49.45
51.20
52.28
52.02
50.27
47.40
44.06
40.72
37.52
34.16
30.08
24.71
17.77
9.39
0.13
-9.24
-17.99
-25.70
-32.39
-38.52
-44.85
-52.16
-61.07
-71.70
-83.49
-95.04
-104.20
-108.52
-105.99
-95.86
-79.01
-57.83
-35.42
-14.59
2.98
16.96
27.97
36.95
44.50
50.69
55.26
58.02
59.08
58.94
58.23
57.40
56.57
55.49
53.84
51.40
48.29
44.91
41.77
39.20
37.11
35.03
32.21
27.97
21.95
14.28
5.53
-3.50
-12.03
-19.61
-26.21
-32.22
-38.31
-45.26
-53.71
-64.01
-75.99
-88.76
-100.65
-109.37
-112.57
-108.60
-97.17
-79.58
-58.41
-36.65
-16.72
0.12
13.90
25.38
35.43
44.44
52.22
58.24
62.10
63.82
63.87
63.07
62.18
61.69
61.65
61.74
61.47
60.41
58.36
55.43
51.89
47.98
43.71
38.83
32.95
25.74
17.23
7.91
-1.37
-9.73
-16.55
-21.81
-26.03
-30.11
-34.98
-41.35
-49.60
-59.70
-71.19
-83.02
-93.49
-100.40
-101.57
-95.54
-82.27
-63.30
-41.44
-19.81
-0.87
14.20
25.58
34.26
41.27
47.21
52.08
55.60
57.62
58.45
58.78
59.42
60.91
63.21
65.76
67.74
68.43
67.57
65.29
61.99
58.02
53.43
48.01
41.38
33.34
24.08
14.21
4.64
-3.77
-10.51
-15.67
-19.92
-24.29
-29.81
-37.22
-46.78
-58.11
-70.18
-81.34
-89.52
-92.64
-89.18
-78.79
-62.53
-42.77
-22.43
-4.17
10.41
20.95
28.15
33.08
36.63
39.22
40.84
41.45
41.16
40.39
39.71
39.56
40.08
40.97
41.74
41.84
40.94
39.01
36.31
33.20
30.00
26.82
23.45
19.43
14.27
7.67
-0.19
-8.67
-16.84
-23.92
-29.58
-34.07
-38.10
-42.52
-48.07
-55.22
-64.09
-74.34
-85.03
-94.49
-100.56
-101.09
-94.71
-81.49
-63.09
-42.25
-21.92
-4.27
9.73
20.35
28.45
34.92
40.22
44.43
47.37
49.01
49.60
49.61
49.58
49.84
50.38
50.86
50.84
49.93
48.03
45.33
42.20
38.98
35.78
32.43
28.47
23.44
17.04
9.39
0.99
-7.46
-15.28
-22.13
-28.09
-33.62
-39.41
-46.16
-54.38
-64.28
-75.62
-87.43
-98.02
-105.19
-106.70
-101.10
-88.33
-69.91
-48.59
-27.47
-9.03
5.49
16.20
24.06
30.22
35.46
39.98
43.56
45.92
47.02
47.20
47.02
46.96
47.18
47.47
47.34
46.33
44.21
41.17
37.60
33.97
30.47
26.97
23.04
18.14
11.99
4.67
-3.31
-11.21
-18.36
-24.42
-29.49
-34.11
-38.99
-44.81
-52.08
-61.00
-71.32
-82.20
-92.08
-98.88
-100.44
-95.27
-83.15
-65.44
-44.73
-23.97
-5.57
9.26
20.52
28.96
35.43
40.42
43.95
45.97
46.59
46.34
46.03
46.33
47.49
49.21
50.77
51.47
50.96
49.40
47.28
45.10
43.06
40.90
38.07
33.96
28.26
21.13
13.16
5.18
-2.11
-8.33
-13.67
-18.76
-24.53
-31.90
-41.45
-53.12
-66.02
-78.40
-87.97
-92.40
-90.04
-80.53
-65.01
-45.85
-25.88
-7.59
7.52
19.09
27.53
33.61
37.94
40.87
42.58
43.32
43.48
43.51
43.79
44.39
45.11
45.52
45.26
44.18
42.40
40.15
37.59
34.60
30.81
25.75
19.11
11.04
2.10
-6.84
-14.92
-21.68
-27.26
-32.41
-38.23
-45.85
-55.95
-68.45
-82.29
-95.50
-105.50
-109.81
-106.75
-96.10
-79.19
-58.57
-37.26
-17.79
-1.68
10.76
20.10
27.20
32.79
37.25
40.64
42.98
44.42
45.25
45.82
46.35
46.80
46.94
46.45
45.17
43.18
40.76
38.21
35.55
32.48
28.38
22.71
15.28
6.53
-2.66
-11.23
-18.46
-24.26
-29.24
-34.44
-40.97
-49.63
-60.64
-73.44
-86.69
-98.29
-105.85
-107.18
-101.09
-87.85
-69.33
-48.42
-28.16
-10.77
2.89
13.26
21.44
28.47
34.84
40.42
44.78
47.66
49.18
49.82
50.19
50.64
51.16
51.40
50.99
49.76
47.89
45.76
43.69
41.64
39.18
35.59
30.29
23.14
14.57
5.50
-3.07
-10.39
-16.25
-21.03
-25.56
-30.89
-37.94
-47.31
-58.89
-71.67
-83.73
-92.52
-95.52
-91.06
-79.02
-61.00
-39.79
-18.53
0.33
15.60
27.26
36.05
42.78
47.93
51.66
54.02
55.26
55.87
56.41
57.18
58.09
58.66
58.31
56.62
53.54
49.34
44.43
39.09
33.39
27.15
20.08
12.05
3.13
-6.23
-15.42
-23.77
-30.82
-36.52
-41.31
-46.09
-51.98
-59.93
-70.27
-82.30
-94.21
-103.38
-107.09
-103.46
-92.12
-74.43
-53.05
-31.05
-11.01
5.62
18.58
28.34
35.60
40.82
44.22
45.95
46.39
46.20
46.20
47.03
48.83
51.27
53.64
55.24
55.60
54.61
52.36
48.97
44.42
38.61
31.51
23.37
14.77
6.50
-0.77
-6.70
-11.55
-16.15
-21.73
-29.52
-40.28
-53.81
-68.70
-82.41
-91.90
-94.48
-88.77
-75.16
-55.72
-33.51
-11.56
7.96
24.07
36.90
47.12
55.35
61.92
66.80
69.92
71.36
71.45
70.66
69.34
67.60
65.28
62.17
58.23
53.64
48.65
43.36
37.50
30.46
21.67
10.96
-1.23
-13.84
-25.65
-35.66
-43.49
-49.49
-54.63
-60.17
-67.35
-76.86
-88.55
-101.13
-112.30
-119.18
-119.21
-111.01
-94.97
-73.20
-48.89
-25.24
-4.56
12.19
25.26
35.54
43.95
51.04
56.98
61.74
65.40
68.20
70.51
72.58
74.45
75.89
76.56
76.24
74.91
72.83
70.39
67.92
65.47
62.71
59.00
53.71
46.51
37.70
28.09
18.76
10.50
3.42
-3.17
-10.47
-19.77
-31.93
-47.14
-64.75
-83.30
-100.60
-114.01
-120.93
-119.56
-109.60
-92.50
-71.14
-48.92
-28.67
-11.90
1.41
12.24
21.78
30.78
39.22
46.55
52.08
55.52
57.05
57.35
57.19
57.14
57.34
57.54
57.31
56.26
54.30
51.54
48.19
44.43
40.33
35.83
30.81
25.13
18.66
11.32
3.23
-5.26
-13.59
-21.15
-27.51
-32.60
-36.73
-40.58
-44.98
-50.76
-58.54
-68.52
-80.19
-92.08
-101.82
-106.68
-104.36
-93.90
-76.20
-53.82
-30.14
-8.29
9.81
23.70
34.10
42.19
48.93
54.78
59.67
63.43
66.04
67.82
69.24
70.75
72.48
74.17
75.37
75.61
74.70
72.73
69.98
66.74
63.21
59.40
55.25
50.59
45.26
39.12
32.08
24.21
15.76
7.15
-1.09
-8.59
-15.24
-21.30
-27.34
-34.03
-41.91
-51.27
-62.02
-73.65
-85.08
-94.66
-100.39
-100.28
-93.09
-78.91
-59.35
-37.28
-15.90
2.23
15.88
25.24
31.41
35.62
38.65
40.73
41.77
41.88
41.58
41.66
42.85
45.39
48.85
52.31
54.75
55.50
54.45
52.07
49.09
46.11
43.29
40.28
36.43
31.16
24.34
16.43
8.30
0.91
-5.19
-10.07
-14.36
-19.06
-25.12
-33.15
-43.27
-54.98
-67.09
-77.77
-84.80
-86.12
-80.44
-67.81
-49.77
-28.92
-8.18
9.99
24.17
34.01
40.01
43.00
43.86
43.31
41.92
40.21
38.65
37.55
37.03
36.96
37.05
36.98
36.50
35.58
34.30
32.69
30.62
27.74
23.53
17.58
9.76
0.37
-9.91
-20.20
-29.78
-38.25
-45.76
-52.86
-60.33
-68.85
-78.60
-89.03
-98.69
-105.57
-107.56
-103.20
-92.21
-75.76
-56.11
-35.98
-17.74
-2.83
8.35
16.19
21.45
24.82
26.85
27.93
28.44
28.70
29.01
29.53
30.34
31.47
32.94
34.74
36.80
38.82
40.31
40.69
39.43
36.27
31.31
24.99
17.95
10.89
4.35
-1.40
-6.51
-11.46
-17.07
-24.11
-32.92
-42.95
-52.64
-59.68
-61.68
-57.07
-45.79
-29.45
-10.87
6.85
21.28
31.28
36.97
39.27
39.30
37.89
35.53
32.50
29.05
25.58
22.54
20.32
19.07
18.67
18.76
18.87
18.54
17.36
15.08
11.55
6.81
1.08
-5.27
-11.80
-18.14
-24.06
-29.65
-35.20
-41.20
-48.14
-56.29
-65.37
-74.36
-81.51
-84.69
-82.02
-72.56
-56.76
-36.47
-14.46
6.33
23.60
36.19
44.04
47.93
48.97
48.19
46.32
43.77
40.79
37.59
34.44
31.65
29.43
27.82
26.59
25.34
23.63
21.10
17.59
13.10
7.76
1.71
-4.89
-11.86
-19.04
-26.22
-33.35
-40.58
-48.46
-57.73
-68.87
-81.59
-94.37
-104.57
-109.22
-106.10
-94.71
-76.63
-55.06
-33.63
-15.28
-1.56
7.48
12.74
15.42
16.67
17.34
18.17
19.69
22.22
25.68
29.65
33.46
36.50
38.46
39.36
39.36
38.64
37.20
35.00
32.05
28.59
25.07
21.92
19.37
17.21
14.84
11.38
5.92
-2.24
-13.47
-27.60
-43.75
-60.25
-74.68
-84.30
-86.74
-80.78
-66.95
-47.45
-25.60
-4.77
12.54
25.25
33.57
38.50
41.17
42.43
42.73
42.34
41.48
40.43
39.42
38.58
37.87
37.17
36.36
35.44
34.51
33.59
32.54
30.95
28.22
23.80
17.43
9.36
0.33
-8.68
-16.83
-23.83
-30.06
-36.46
-44.21
-54.25
-66.87
-81.32
-95.77
-107.57
-113.87
-112.40
-102.31
-84.54
-61.64
-36.94
-13.55
6.50
22.42
34.47
43.24
49.20
52.61
53.73
53.09
51.65
50.49
50.39
51.50
53.25
54.67
54.88
53.50
50.79
47.40
43.97
40.73
37.32
33.01
27.04
19.13
9.65
-0.44
-9.98
-18.07
-24.49
-29.78
-35.09
-41.76
-50.85
-62.74
-76.85
-91.69
-104.98
-114.12
-116.80
-111.65
-98.76
-79.69
-57.15
-34.13
-13.17
4.24
17.69
27.53
34.40
38.86
41.31
42.15
41.95
41.51
41.70
43.13
45.89
49.53
53.27
56.36
58.43
59.52
59.98
60.08
59.67
58.13
54.59
48.33
39.26
28.07
16.04
4.62
-5.11
-12.88
-19.22
-25.31
-32.50
-41.87
-53.88
-68.05
-82.91
-96.17
-105.13
-107.40
-101.67
-88.24
-69.01
-46.99
-25.31
-6.40
8.50
19.25
26.43
30.77
33.04
33.90
34.09
34.41
35.59
38.02
41.52
45.40
48.71
50.66
50.94
49.84
47.98
46.04
44.26
42.40
39.76
35.59
29.46
21.57
12.67
3.82
-4.04
-10.45
-15.58
-20.08
-24.84
-30.68
-38.18
-47.45
-57.92
-68.27
-76.37
-79.70
-76.09
-64.53
-45.74
-22.11
3.04
26.43
45.71
59.86
68.95
73.56
74.38
72.06
67.27
60.89
54.02
47.74
42.76
39.20
36.65
34.48
32.18
29.62
27.01
24.61
22.42
20.03
16.77
12.04
5.71
-1.85
-9.82
-17.37
-23.99
-29.71
-35.07
-40.98
-48.31
-57.59
-68.58
-80.06
-89.84
-95.31
-94.24
-85.62
-70.16
-50.15
-28.70
-8.77
7.68
19.92
28.20
33.16
35.38
35.27
33.20
29.79
26.00
22.91
21.40
21.82
23.86
26.69
29.26
30.68
30.44
28.46
25.00
20.44
15.05
8.90
1.92
-5.96
-14.71
-24.09
-33.73
-43.30
-52.78
-62.44
-72.64
-83.40
-93.86
-102.15
-105.71
-102.09
-89.94
-69.70
-43.66
-15.29
11.76
34.70
52.11
63.96
71.12
74.78
76.10
75.97
75.16
74.27
73.73
73.76
74.23
74.73
74.73
73.76
71.56
68.12
63.54
57.96
51.54
44.50
37.20
30.14
23.64
17.62
11.47
4.12
-5.49
-18.08
-33.73
-51.90
-71.46
-90.83
-108.01
-120.79
-127.12
-125.79
-116.94
-102.26
-84.50
-66.57
-50.58
-37.44
-27.01
-18.78
-12.39
-7.82
-5.14
-4.08
-3.78
-3.01
-0.61
4.06
10.74
18.39
25.50
30.64
32.94
32.38
29.77
26.38
23.46
21.71
21.02
20.55
18.97
14.99
7.64
-3.51
-18.12
-35.09
-52.46
-67.56
-77.50
-79.90
-73.67
-59.51
-39.79
-17.81
3.31
21.48
36.07
47.52
56.63
63.83
68.89
71.25
70.59
67.28
62.46
57.57
53.72
51.23
49.58
47.76
44.83
40.27
34.11
26.78
18.76
10.36
1.63
-7.59
-17.56
-28.55
-40.73
-54.25
-69.12
-85.09
-101.38
-116.43
-127.98
-133.41
-130.58
-118.68
-98.77
-73.67
-47.13
-22.64
-2.43
12.94
24.23
32.75
39.52
44.95
48.94
51.29
52.18
52.24
52.36
53.31
55.36
58.10
60.60
61.73
60.55
56.68
50.34
42.19
33.08
23.61
14.02
4.22
-6.06
-17.14
-29.25
-42.72
-57.88
-74.82
-92.95
-110.57
-124.90
-132.73
-131.54
-120.57
-101.27
-76.81
-51.02
-27.11
-6.87
9.42
22.42
33.04
41.96
49.45
55.55
60.27
63.75
66.17
67.78
68.76
69.33
69.65
69.86
69.99
69.87
69.14
67.34
64.05
59.08
52.57
44.95
36.81
28.68
20.92
13.52
6.13
-1.92
-11.51
-23.40
-37.87
-54.17
-70.32
-83.27
-89.72
-87.27
-75.43
-56.09
-32.94
-10.26
8.52
21.76
29.77
34.06
36.46
38.21
39.76
40.99
41.62
41.57
40.97
40.06
38.95
37.59
35.88
33.74
31.22
28.42
25.35
21.87
17.76
12.93
7.46
1.65
-4.13
-9.62
-14.77
-19.83
-25.31
-31.88
-40.14
-50.33
-61.83
-72.99
-81.24
-83.68
-78.08
-63.76
-41.99
-15.72
11.31
35.76
55.52
69.95
79.59
85.47
88.57
89.53
88.69
86.29
82.69
78.32
73.62
68.90
64.30
59.75
55.17
50.48
45.57
40.30
34.38
27.48
19.29
9.68
-1.27
-13.24
-25.78
-38.43
-50.80
-62.72
-74.23
-85.50
-96.54
-106.86
-115.20
-119.57
-117.80
-108.34
-91.08
-67.65
-41.00
-14.51
9.09
28.35
43.10
53.94
61.56
66.41
68.77
69.06
68.10
67.04
66.99
68.55
71.55
75.15
78.27
80.08
80.29
79.14
77.08
74.38
70.91
66.21
59.82
51.62
41.97
31.69
21.69
12.58
4.49
-3.01
-10.76
-19.78
-31.02
-45.06
-61.70
-79.67
-96.58
-109.29
-114.77
-111.21
-98.74
-79.55
-57.19
-35.34
-16.64
-2.17
8.33
15.79
21.04
24.47
26.26
26.74
26.76
27.48
29.97
34.66
41.11
48.20
54.71
59.78
63.21
65.31
66.51
66.82
65.80
62.67
56.72
47.78
36.42
23.89
11.64
0.91
-7.75
-14.52
-20.14
-25.64
-31.99
-39.92
-49.69
-60.86
-72.06
-81.00
-84.89
-81.30
-69.15
-49.37
-24.81
0.59
23.15
40.51
51.99
58.32
60.75
60.35
57.73
53.19
47.28
40.99
35.76
32.93
33.10
35.81
39.64
42.70
43.39
40.85
35.07
26.59
16.20
4.64
-7.41
-19.20
-30.02
-39.31
-46.96
-53.41
-59.49
-66.14
-74.10
-83.77
-95.03
-107.18
-118.66
-127.13
-129.80
-124.33
-109.75
-87.17
-59.59
-31.04
-5.27
15.34
30.13
39.80
45.66
48.97
50.58
50.99
50.60
49.83
49.23
49.36
50.59
53.01
56.29
59.74
62.49
63.71
62.82
59.60
54.20
47.08
38.85
30.16
21.45
12.92
4.40
-4.56
-14.63
-26.51
-40.74
-57.36
-75.65
-93.91
-109.55
-119.56
-121.33
-113.63
-97.12
-74.46
-49.45
-25.91
-6.64
7.18
15.84
20.51
22.57
23.13
22.89
22.25
21.42
20.53
19.59
18.57
17.40
16.01
14.41
12.71
10.99
9.18
7.01
4.04
-0.10
-5.53
-11.94
-18.70
-25.07
-30.52
-35.00
-38.97
-43.34
-49.11
-57.03
-67.15
-78.45
-88.81
-95.36
-95.21
-86.44
-68.94
-44.64
-17.10
9.59
31.92
47.91
57.29
61.21
61.50
59.93
57.79
55.70
53.81
51.97
49.99
47.73
45.09
42.09
38.71
35.00
31.07
27.06
23.06
19.00
14.59
9.43
3.18
-4.20
-12.40
-20.82
-28.78
-35.83
-42.00
-47.76
-53.96
-61.46
-70.66
-81.06
-91.04
-98.08
-99.47
-93.32
-79.28
-58.91
-35.18
-11.51
9.32
25.84
37.90
46.21
51.75
55.36
57.64
59.15
60.47
62.14
64.46
67.23
69.83
71.41
71.31
69.37
65.94
61.68
57.12
52.34
46.93
40.22
31.75
21.61
10.46
-0.67
-10.81
-19.51
-26.92
-33.74
-40.99
-49.60
-60.22
-72.89
-86.77
-100.04
-110.10
-114.19
-110.32
-98.13
-79.24
-56.87
-34.69
-15.68
-1.33
8.41
14.51
18.08
19.90
20.32
19.58
18.07
16.43
15.28
14.97
15.37
15.96
16.09
15.38
13.77
11.57
9.16
6.69
3.96
0.44
-4.49
-11.17
-19.39
-28.40
-37.12
-44.59
-50.36
-54.72
-58.61
-63.30
-69.82
-78.60
-89.04
-99.50
-107.58
-110.72
-106.92
-95.45
-77.22
-54.50
-30.37
-7.72
11.46
26.40
37.43
45.39
51.15
55.26
57.97
59.46
60.12
60.58
61.57
63.56
66.60
70.13
73.31
75.22
75.20
72.96
68.56
62.27
54.52
45.81
36.76
28.05
20.27
13.76
8.44
3.73
-1.28
-7.60
-15.93
-26.29
-37.71
-48.21
-55.13
-55.97
-49.20
-35.00
-15.37
6.48
27.06
43.72
55.22
61.76
64.41
64.48
62.97
60.48
57.35
53.95
50.70
48.07
46.38
45.64
45.48
45.21
43.98
41.11
36.19
29.31
20.90
11.58
1.89
-7.89
-17.74
-27.79
-38.19
-49.01
-60.28
-71.98
-83.91
-95.41
-105.10
-110.94
-110.74
-102.95
-87.45
-65.89
-41.26
-17.03
3.90
19.90
30.76
37.27
40.56
41.63
41.08
39.27
36.55
33.53
30.98
29.71
30.15
32.10
34.64
36.41
36.08
32.84
26.74
18.67
9.94
1.71
-5.41
-11.60
-17.64
-24.47
-32.88
-43.28
-55.67
-69.67
-84.41
-98.29
-109.06
-114.14
-111.47
-100.39
-82.22
-60.01
-37.53
-17.94
-2.68
8.61
17.50
25.66
33.97
42.21
49.47
54.85
57.93
58.99
58.79
58.15
57.66
57.57
57.81
58.11
58.03
57.00
54.40
49.67
42.48
32.91
21.40
8.72
-4.33
-17.17
-29.63
-42.04
-55.07
-69.39
-85.23
-101.88
-117.48
-129.32
-134.51
-131.01
-118.40
-98.19
-73.30
-47.11
-22.37
-0.50
18.39
34.92
49.72
62.89
74.02
82.61
88.47
92.01
94.05
95.31
96.05
95.93
94.28
90.62
85.09
78.46
71.76
65.72
60.46
55.57
50.55
45.28
40.17
35.83
32.58
30.12
27.47
23.45
17.09
7.93
-4.04
-18.49
-34.90
-52.23
-68.71
-81.82
-88.81
-87.64
-77.89
-61.13
-40.39
-19.13
-0.01
15.82
28.64
39.48
49.25
58.24
66.12
72.36
76.81
79.84
82.31
85.08
88.56
92.49
95.95
97.78
96.97
93.10
86.43
77.86
68.47
59.21
50.55
42.43
34.45
26.19
17.47
8.48
-0.25
-8.22
-15.17
-21.22
-26.84
-32.62
-39.07
-46.50
-55.10
-64.94
-75.93
-87.56
-98.68
-107.36
-111.39
-108.87
-99.09
-83.00
-63.00
-42.15
-23.14
-7.40
5.06
15.19
24.14
32.58
40.43
47.15
52.15
55.29
56.94
57.83
58.62
59.66
60.86
61.87
62.33
62.08
61.24
59.99
58.47
56.56
54.05
50.66
46.30
41.08
35.30
29.26
23.24
17.45
12.03
7.13
2.82
-0.94
-4.38
-7.92
-12.19
-17.92
-25.86
-36.42
-49.41
-63.64
-76.96
-86.58
-89.88
-85.34
-73.13
-55.18
-34.56
-14.53
2.43
15.16
23.71
28.89
31.64
32.63
32.19
30.53
27.97
25.09
22.60
21.12
20.88
21.71
23.08
24.31
24.90
24.58
23.32
21.28
18.61
15.38
11.56
7.09
1.97
-3.62
-9.31
-14.59
-19.01
-22.34
-24.65
-26.32
-27.88
-29.87
-32.73
-36.68
-41.82
-47.99
-54.70
-60.97
-65.37
-66.37
-62.80
-54.48
-42.43
-28.67
-15.58
-5.07
2.02
5.99
7.99
9.43
11.42
14.56
18.93
24.21
29.85
35.18
39.48
42.10
42.59
40.74
36.72
31.04
24.52
18.12
12.72
8.91
6.75
5.77
5.10
3.80
1.22
-2.73
-7.61
-12.67
-17.25
-21.06
-24.31
-27.66
-31.91
-37.79
-45.64
-55.30
-65.91
-75.90
-83.24
-85.91
-82.51
-72.91
-58.41
-41.43
-24.71
-10.45
0.37
7.90
13.05
16.77
19.51
21.17
21.42
20.10
17.55
14.63
12.33
11.40
12.02
13.74
15.72
17.14
17.54
16.89
15.54
13.93
12.28
10.51
8.32
5.35
1.54
-2.81
-7.10
-10.62
-13.03
-14.44
-15.57
-17.38
-20.81
-26.41
-34.18
-43.56
-53.48
-62.48
-68.76
-70.57
-66.61
-56.63
-41.68
-24.01
-6.45
8.51
19.42
26.14
29.58
31.02
31.47
31.51
31.26
30.74
30.13
29.70
29.76
30.36
31.31
32.14
32.40
31.85
30.55
28.88
27.27
25.94
24.79
23.32
20.78
16.60
10.55
2.98
-5.27
-13.13
-19.75
-24.79
-28.57
-31.95
-35.94
-41.43
-48.78
-57.62
-66.87
-74.79
-79.45
-79.24
-73.43
-62.48
-47.93
-32.00
-16.87
-4.13
5.51
12.10
16.12
18.13
18.59
17.91
16.52
14.94
13.67
13.09
13.34
14.32
15.65
16.86
17.50
17.31
16.27
14.59
12.59
10.50
8.35
5.93
2.95
-0.74
-4.99
-9.33
-13.18
-16.16
-18.27
-20.01
-22.17
-25.55
-30.67
-37.64
-46.02
-54.86
-62.73
-67.92
-68.80
-64.26
-54.16
-39.50
-22.27
-4.91
10.44
22.49
30.98
36.48
39.91
42.07
43.45
44.24
44.54
44.49
44.32
44.17
44.03
43.71
42.98
41.72
40.10
38.48
37.17
36.22
35.33
33.94
31.51
27.81
23.10
17.98
13.23
9.43
6.72
4.71
2.48
-1.14
-7.23
-16.38
-28.31
-41.72
-54.45
-63.99
-68.20
-66.03
-57.88
-45.53
-31.54
-18.42
-7.88
-0.58
3.82
6.12
7.11
7.31
7.01
6.43
5.96
6.06
7.05
8.89
11.06
12.76
13.19
11.96
9.14
5.22
0.83
-3.53
-7.58
-11.31
-14.77
-18.09
-21.38
-24.81
-28.66
-33.28
-39.03
-46.12
-54.41
-63.27
-71.53
-77.65
-80.03
-77.50
-69.78
-57.56
-42.54
-26.88
-12.67
-1.38
6.41
11.00
13.22
14.06
14.28
14.34
14.42
14.60
15.01
15.81
17.13
18.92
20.89
22.62
23.76
24.08
23.54
22.17
19.99
16.98
13.17
8.66
3.67
-1.57
-6.94
-12.49
-18.41
-25.03
-32.61
-41.22
-50.53
-59.64
-67.11
-71.19
-70.35
-63.90
-52.34
-37.36
-21.26
-6.26
6.18
15.63
22.52
27.69
31.89
35.56
38.72
41.23
42.92
43.67
43.54
42.68
41.29
39.59
37.78
36.04
34.48
33.11
31.84
30.39
28.34
25.24
20.76
14.92
8.08
0.93
-5.82
-11.69
-16.66
-21.24
-26.27
-32.62
-40.85
-50.88
-61.77
-71.76
-78.68
-80.49
-76.04
-65.51
-50.49
-33.41
-16.81
-2.44
9.09
18.23
25.93
32.87
39.21
44.48
48.14
49.97
50.35
50.10
50.05
50.63
51.61
52.36
52.19
50.86
48.63
46.12
43.88
42.07
40.38
38.23
35.12
30.94
25.95
20.63
15.42
10.47
5.65
0.61
-5.08
-11.76
-19.69
-29.06
-39.85
-51.80
-64.16
-75.73
-84.85
-89.89
-89.58
-83.47
-72.12
-56.93
-39.72
-22.21
-5.62
9.46
22.82
34.36
43.82
50.76
54.87
56.16
55.19
52.91
50.37
48.35
47.09
46.34
45.58
44.39
42.57
40.29
37.91
35.76
33.92
32.16
30.02
26.98
22.75
17.40
11.36
5.26
-0.38
-5.35
-9.81
-14.31
-19.45
-25.75
-33.41
-42.25
-51.67
-60.66
-67.87
-71.75
-70.91
-64.59
-52.99
-37.36
-19.80
-2.58
12.43
24.27
32.88
38.82
42.79
45.34
46.79
47.40
47.53
47.65
48.15
49.20
50.58
51.77
52.19
51.44
49.37
46.11
41.96
37.16
31.89
26.11
19.65
12.33
4.11
-4.72
-13.49
-21.37
-27.66
-32.12
-35.13
-37.59
-40.59
-45.09
-51.55
-59.84
-69.13
-77.99
-84.53
-86.86
-83.60
-74.38
-60.16
-43.00
-25.42
-9.62
3.07
12.41
18.90
23.37
26.51
28.69
30.11
30.97
31.61
32.49
33.99
36.27
39.07
41.82
43.81
44.43
43.39
40.88
37.43
33.74
30.35
27.48
24.90
22.10
18.55
13.92
8.32
2.23
-3.70
-8.91
-13.18
-16.70
-20.00
-23.80
-28.80
-35.48
-43.99
-53.90
-64.06
-72.64
-77.44
-76.58
-69.16
-55.75
-38.35
-19.78
-2.74
11.02
21.10
28.28
33.82
38.86
43.86
48.66
52.71
55.56
57.10
57.60
57.54
57.26
56.89
56.26
55.09
53.15
50.40
46.96
43.03
38.80
34.39
29.83
25.11
20.19
14.98
9.41
3.48
-2.77
-9.12
-15.33
-21.13
-26.40
-31.26
-36.03
-41.25
-47.45
-55.08
-64.28
-74.66
-85.23
-94.34
-100.04
-100.52
-94.76
-83.02
-66.85
-48.71
-31.15
-16.04
-4.07
5.15
12.65
19.39
25.85
31.92
37.14
41.11
43.72
45.19
45.90
46.21
46.30
46.21
45.91
45.36
44.53
43.39
41.86
39.87
37.39
34.48
31.27
27.85
24.26
20.43
16.25
11.66
6.63
1.27
-4.30
-9.97
-15.71
-21.57
-27.77
-34.59
-42.39
-51.29
-61.04
-70.73
-78.80
-83.40
-82.87
-76.48
-64.71
-49.29
-32.61
-16.94
-3.77
6.52
14.38
20.63
25.89
30.40
34.00
36.49
37.90
38.54
38.87
39.32
40.01
40.73
41.08
40.66
39.30
37.12
34.51
31.95
29.78
28.04
26.41
24.33
21.21
16.74
11.04
4.67
-1.55
-6.93
-11.15
-14.41
-17.37
-20.80
-25.40
-31.56
-39.31
-48.26
-57.57
-65.89
-71.52
-72.70
-68.24
-58.04
-43.37
-26.50
-10.07
3.82
14.19
21.26
25.96
29.33
32.01
34.09
35.38
35.78
35.59
35.39
35.82
37.17
39.18
41.16
42.34
42.19
40.68
38.14
35.07
31.79
28.35
24.59
20.26
15.25
9.63
3.68
-2.23
-7.74
-12.62
-16.89
-20.76
-24.65
-29.07
-34.47
-41.23
-49.48
-59.01
-69.09
-78.40
-85.08
-87.15
-83.19
-72.96
-57.66
-39.72
-21.89
-6.42
5.67
14.55
21.13
26.33
30.63
33.93
35.97
36.74
36.67
36.52
36.99
38.32
40.10
41.47
41.55
39.89
36.68
32.60
28.47
24.78
21.43
17.82
13.18
7.04
-0.47
-8.68
-16.60
-23.42
-28.79
-32.95
-36.68
-40.93
-46.63
-54.37
-64.23
-75.59
-87.09
-96.69
-102.11
-101.51
-94.12
-80.60
-62.92
-43.66
-25.26
-9.31
3.66
13.90
21.96
28.25
32.91
35.98
37.63
38.36
38.83
39.63
41.01
42.72
44.15
44.64
43.82
41.76
38.91
35.87
33.04
30.44
27.67
24.11
19.22
12.86
5.32
-2.66
-10.21
-16.67
-21.84
-26.07
-30.21
-35.30
-42.24
-51.45
-62.62
-74.59
-85.44
-92.87
-94.81
-90.06
-78.71
-62.25
-43.11
-23.87
-6.62
7.59
18.63
27.05
33.47
38.36
41.95
44.46
46.21
47.74
49.56
51.90
54.54
56.77
57.78
57.03
54.55
50.96
47.13
43.77
40.95
38.17
34.52
29.24
22.12
13.64
4.86
-3.08
-9.40
-14.02
-17.59
-21.22
-26.18
-33.41
-43.21
-54.96
-67.13
-77.45
-83.49
-83.29
-76.09
-62.60
-44.91
-25.79
-7.90
7.00
18.30
26.33
31.87
35.63
38.07
39.48
40.20
40.74
41.70
43.47
46.00
48.70
50.72
51.29
50.14
47.61
44.37
41.08
37.95
34.67
30.56
24.98
17.80
9.44
0.73
-7.43
-14.54
-20.66
-26.37
-32.56
-40.14
-49.69
-61.23
-73.95
-86.20
-95.68
-99.96
-97.23
-87.02
-70.43
-49.95
-28.62
-9.11
6.93
19.10
27.86
34.04
38.40
41.44
43.56
45.16
46.72
48.69
51.19
53.90
56.14
57.17
56.51
54.23
50.81
46.92
43.01
39.04
34.54
28.88
21.68
13.08
3.77
-5.32
-13.41
-20.29
-26.40
-32.72
-40.41
-50.37
-62.81
-77.01
-91.30
-103.27
-110.31
-110.34
-102.46
-87.44
-67.48
-45.58
-24.55
-6.26
8.70
20.68
30.48
38.69
45.51
50.88
54.78
57.49
59.46
61.17
62.78
64.07
64.60
63.96
62.10
59.34
56.22
53.16
50.23
47.04
42.89
37.16
29.63
20.67
11.11
1.94
-6.08
-12.78
-18.62
-24.59
-31.82
-41.24
-53.10
-66.75
-80.53
-91.98
-98.51
-98.09
-90.05
-75.37
-56.48
-36.33
-17.54
-1.52
11.60
22.58
32.29
41.14
48.93
55.14
59.47
62.22
64.24
66.53
69.77
74.03
78.90
83.87
88.65
93.25
97.71
101.65
104.14
103.84
99.54
90.73
77.93
62.50
46.22
30.70
16.92
5.16
-4.97
-14.22
-23.56
-33.92
-45.89
-59.45
-73.74
-86.93
-96.59
-100.30
-96.53
-85.24
-68.11
-48.07
-28.36
-11.50
1.38
10.60
17.39
22.99
28.12
32.77
36.51
39.03
40.40
41.10
41.69
42.49
43.43
44.14
44.26
43.68
42.49
40.88
38.85
36.14
32.28
26.91
20.01
11.99
3.65
-4.11
-10.61
-15.67
-19.67
-23.52
-28.38
-35.29
-44.76
-56.33
-68.38
-78.36
-83.42
-81.36
-71.48
-54.98
-34.57
-13.53
5.34
20.53
31.95
40.35
46.68
51.48
54.75
56.30
56.07
54.44
52.07
49.65
47.49
45.39
42.79
39.15
34.32
28.73
23.14
18.28
14.37
10.97
7.21
2.24
-4.25
-11.88
-19.68
-26.59
-31.97
-35.89
-39.19
-43.07
-48.77
-57.04
-67.83
-80.15
-92.12
-101.28
-105.19
-102.19
-91.90
-75.54
-55.60
-35.06
-16.46
-1.20
10.64
19.90
27.58
34.37
40.30
45.04
48.27
50.04
50.81
51.26
51.84
52.61
53.21
53.08
51.77
49.22
45.77
41.98
38.35
35.04
31.78
27.96
22.97
16.50
8.82
0.68
-6.92
-13.21
-17.94
-21.58
-25.04
-29.42
-35.62
-44.05
-54.55
-66.24
-77.61
-86.61
-91.08
-89.29
-80.62
-65.84
-47.10
-27.18
-8.71
6.62
18.33
26.91
33.30
38.28
42.27
45.34
47.44
48.62
49.17
49.46
49.77
50.12
50.29
49.91
48.72
46.74
44.30
41.88
39.81
38.04
36.06
33.16
28.70
22.51
15.00
7.04
-0.37
-6.54
-11.37
-15.38
-19.51
-24.80
-31.95
-41.05
-51.39
-61.46
-69.18
-72.44
-69.75
-60.79
-46.65
-29.56
-12.22
3.05
14.96
23.34
28.82
32.33
34.56
35.83
36.22
35.79
34.81
33.70
32.84
32.39
32.17
31.77
30.74
28.84
26.14
22.89
19.33
15.53
11.32
6.43
0.74
-5.62
-12.27
-18.72
-24.56
-29.74
-34.50
-39.43
-45.23
-52.52
-61.42
-71.27
-80.53
-86.96
-88.32
-83.14
-71.38
-54.66
-35.70
-17.48
-2.33
8.71
15.79
19.86
22.05
23.22
23.83
24.09
24.09
23.94
23.81
23.86
24.22
24.98
26.24
28.10
30.58
33.47
36.23
38.02
37.95
35.36
30.16
22.90
14.53
6.08
-1.76
-8.82
-15.45
-22.29
-30.05
-39.24
-49.99
-61.87
-73.74
-83.75
-89.65
-89.47
-82.16
-68.16
-49.45
-29.01
-9.94
5.48
16.27
22.75
26.12
27.82
28.98
30.19
31.51
32.70
33.40
33.41
32.66
31.26
29.44
27.46
25.56
23.85
22.31
20.63
18.38
15.09
10.50
4.67
-1.99
-8.89
-15.47
-21.43
-26.84
-32.01
-37.43
-43.58
-50.82
-59.08
-67.77
-75.54
-80.49
-80.70
-74.87
-63.02
-46.59
-28.09
-10.31
4.58
15.62
22.99
27.56
30.39
32.24
33.50
34.32
34.79
35.02
35.16
35.30
35.37
35.21
34.63
33.51
31.90
29.95
27.82
25.54
22.93
19.67
15.51
10.40
4.60
-1.41
-7.12
-12.27
-17.02
-21.86
-27.50
-34.52
-43.01
-52.36
-61.17
-67.45
-69.19
-65.02
-54.79
-39.79
-22.44
-5.50
8.79
19.34
26.22
30.35
32.74
34.13
34.78
34.67
33.81
32.42
30.94
29.77
29.14
28.94
28.80
28.22
26.77
24.15
20.27
15.28
9.50
3.37
-2.63
-8.12
-12.89
-17.04
-20.89
-24.91
-29.71
-35.79
-43.45
-52.47
-61.93
-70.16
-75.03
-74.62
-67.86
-55.17
-38.39
-20.25
-3.50
9.96
19.51
25.66
29.50
32.10
34.05
35.43
36.06
35.80
34.77
33.31
31.83
30.58
29.55
28.56
27.27
25.39
22.68
19.05
14.49
9.16
3.33
-2.67
-8.53
-14.10
-19.45
-24.86
-30.74
-37.57
-45.68
-55.15
-65.48
-75.52
-83.47
-87.26
-85.26
-76.88
-62.98
-45.63
-27.49
-10.94
2.56
12.72
20.12
25.70
30.19
33.93
36.91
38.96
40.00
40.14
39.63
38.76
37.74
36.64
35.43
33.96
32.01
29.33
25.70
21.00
15.28
8.80
2.01
-4.72
-11.10
-17.13
-23.06
-29.33
-36.46
-44.89
-54.72
-65.43
-75.75
-83.70
-87.12
-84.32
-74.81
-59.58
-40.85
-21.38
-3.62
11.07
22.45
31.16
38.11
43.97
48.90
52.71
55.09
55.93
55.48
54.30
53.04
52.16
51.82
51.79
51.63
50.76
48.73
45.22
40.15
33.67
26.13
18.02
9.86
2.05
-5.22
-11.96
-18.43
-25.09
-32.52
-41.24
-51.39
-62.43
-72.86
-80.47
-82.88
-78.48
-67.16
-50.55
-31.50
-13.09
2.34
13.87
21.81
27.24
31.29
34.66
37.55
39.83
41.36
42.10
42.20
41.90
41.49
41.18
41.04
40.98
40.75
40.00
38.34
35.48
31.32
26.03
19.93
13.41
6.81
0.31
-6.01
-12.26
-18.63
-25.50
-33.35
-42.56
-53.11
-64.17
-74.00
-80.24
-80.61
-73.81
-60.20
-41.85
-21.85
-3.28
11.81
22.79
30.26
35.40
39.23
42.26
44.49
45.80
46.21
46.00
45.57
45.21
44.96
44.63
43.90
42.50
40.30
37.24
33.30
28.51
22.86
16.46
9.48
2.15
-5.21
-12.45
-19.53
-26.69
-34.34
-42.98
-52.89
-63.86
-74.85
-84.03
-89.15
-88.16
-80.05
-65.38
-46.13
-25.25
-5.65
10.61
22.77
31.29
37.24
41.76
45.57
48.91
51.64
53.54
54.48
54.48
53.69
52.36
50.81
49.27
47.87
46.50
44.84
42.42
38.77
33.62
26.98
19.22
10.87
2.49
-5.51
-13.03
-20.21
-27.48
-35.42
-44.60
-55.30
-67.21
-79.17
-89.23
-95.01
-94.45
-86.56
-71.90
-52.55
-31.46
-11.60
4.97
17.47
26.32
32.58
37.38
41.47
45.10
48.30
50.96
53.02
54.45
55.10
54.77
53.26
50.60
47.17
43.59
40.41
37.77
35.27
32.17
27.90
22.45
16.57
11.56
8.87
9.64
14.39
22.71
33.11
43.17
49.79
50.03
42.15
26.41
5.40
-16.62
-35.12
-46.73
-50.27
-46.76
-38.61
-28.46
-18.25
-8.95
-0.84
6.00
11.35
14.82
16.16
15.59
13.87
12.06
11.09
11.32
12.42
13.65
14.25
13.83
12.56
10.96
9.53
8.44
7.38
5.69
2.70
-1.90
-7.87
-14.47
-20.78
-26.06
-30.05
-33.13
-36.18
-40.27
-46.27
-54.42
-64.06
-73.61
-80.81
-83.35
-79.51
-68.81
-52.24
-32.04
-10.98
8.44
24.61
36.98
45.91
52.10
56.25
58.79
59.91
59.73
58.39
56.15
53.36
50.41
47.68
45.47
43.91
42.82
41.78
40.14
37.27
32.78
26.61
19.15
11.03
3.01
-4.29
-10.51
-15.69
-20.18
-24.54
-29.39
-35.28
-42.38
-50.36
-58.17
-64.19
-66.46
-63.35
-54.13
-39.46
-21.36
-2.62
14.02
26.69
34.80
38.85
39.90
38.98
36.75
33.50
29.48
25.10
21.02
17.95
16.33
16.13
16.80
17.48
17.33
15.77
12.64
8.11
2.59
-3.44
-9.59
-15.60
-21.35
-26.84
-32.14
-37.47
-43.15
-49.61
-57.17
-65.65
-74.09
-80.69
-83.19
-79.71
-69.52
-53.63
-34.55
-15.50
0.67
12.41
19.66
23.55
25.58
26.91
27.97
28.58
28.40
27.28
25.59
24.00
23.14
23.23
23.95
24.58
24.30
22.62
19.46
15.13
10.13
4.90
-0.30
-5.40
-10.48
-15.71
-21.31
-27.62
-34.98
-43.67
-53.64
-64.23
-74.08
-81.21
-83.54
-79.60
-69.12
-53.33
-34.65
-15.91
0.53
13.39
22.62
28.97
33.44
36.72
39.09
40.45
40.66
39.71
37.84
35.48
33.06
30.91
29.12
27.57
25.93
23.79
20.81
16.81
11.86
6.23
0.33
-5.41
-10.68
-15.40
-19.71
-24.01
-28.93
-35.12
-43.08
-52.70
-63.03
-72.21
-77.86
-77.77
-70.78
-57.33
-39.43
-20.11
-2.36
11.78
21.71
28.12
32.34
35.53
38.25
40.34
41.27
40.69
38.71
35.94
33.22
31.20
30.08
29.51
28.84
27.39
24.74
20.85
16.01
10.68
5.29
0.13
-4.73
-9.34
-13.94
-18.83
-24.42
-31.12
-39.17
-48.39
-57.87
-66.00
-70.69
-70.03
-63.03
-50.08
-33.01
-14.51
2.70
16.67
26.59
32.76
36.06
37.47
37.72
37.18
36.07
34.62
33.17
32.11
31.67
31.84
32.27
32.38
31.57
29.46
26.11
21.95
17.69
13.96
11.06
8.75
6.38
3.15
-1.62
-8.32
-16.96
-27.23
-38.49
-49.61
-58.98
-64.68
-65.01
-59.10
-47.43
-31.85
-14.99
0.53
12.94
21.67
27.19
30.41
32.16
32.83
32.51
31.18
29.05
26.60
24.46
23.13
22.76
23.03
23.26
22.67
20.64
16.95
11.85
5.89
-0.22
-5.97
-11.18
-16.05
-21.00
-26.57
-33.16
-41.00
-50.07
-59.99
-69.92
-78.36
-83.39
-83.14
-76.48
-63.69
-46.52
-27.75
-10.21
4.17
14.88
22.70
28.98
34.95
41.08
47.15
52.48
56.46
58.76
59.62
59.66
59.80
60.93
63.65
67.94
72.95
77.17
78.76
76.17
68.65
56.56
41.19
24.21
7.25
-8.64
-22.94
-35.72
-47.31
-58.22
-68.95
-79.72
-90.22
-99.32
-105.24
-105.98
-100.11
-87.45
-69.36
-48.40
-27.50
-9.06
5.67
16.64
24.58
30.41
34.87
38.37
41.11
43.24
44.95
46.38
47.51
48.16
48.09
47.18
45.52
43.41
41.12
38.65
35.69
31.66
26.06
18.76
10.16
1.10
-7.51
-15.04
-21.35
-26.88
-32.47
-39.05
-47.36
-57.51
-68.80
-79.56
-87.45
-90.04
-85.58
-73.79
-56.07
-35.22
-14.45
3.60
17.55
27.45
34.24
39.05
42.67
45.41
47.28
48.25
48.55
48.51
48.45
48.51
48.55
48.31
47.61
46.33
44.54
42.22
39.26
35.41
30.42
24.16
16.78
8.71
0.53
-7.20
-14.20
-20.49
-26.44
-32.67
-39.86
-48.45
-58.40
-68.87
-78.24
-84.31
-84.94
-78.81
-66.01
-48.15
-27.94
-8.37
8.21
20.65
29.02
34.25
37.48
39.60
41.08
41.99
42.37
42.33
42.11
42.02
42.24
42.75
43.28
43.44
42.80
41.05
38.03
33.81
28.60
22.70
16.49
10.26
4.23
-1.51
-7.01
-12.46
-18.15
-24.55
-32.11
-41.02
-50.90
-60.53
-67.98
-71.00
-67.88
-58.12
-42.80
-24.32
-5.62
10.77
23.43
32.16
37.68
40.95
42.73
43.37
42.96
41.63
39.67
37.63
35.97
34.97
34.53
34.26
33.62
