1703082288.00
64.000000
-0.00
-0.00
-0.00
-0.00
-0.00
-0.00
-0.00
-0.00
-0.00
-0.00
0.00
0.01
0.01
-0.00
-0.03
-0.05
-0.05
0.00
0.13
0.36
0.66
1.01
1.37
1.72
2.06
2.40
2.79
3.24
3.80
4.42
5.06
5.66
6.20
6.68
7.15
7.68
8.31
9.14
10.09
11.04
11.88
12.56
13.14
13.76
14.65
15.96
17.91
20.32
22.90
25.38
27.58
29.57
31.68
34.32
37.81
42.54
48.15
54.10
59.83
64.97
69.58
74.14
79.34
85.71
93.76
103.00
112.62
121.73
129.77
136.75
143.30
150.75
157.77
166.64
177.95
191.79
206.97
220.57
228.25
225.36
208.53
176.87
132.76
80.05
23.07
-34.94
-92.44
-149.16
-205.23
-260.37
-313.74
-363.88
-409.83
-450.90
-486.49
-515.72
-537.19
-549.17
-549.88
-538.26
-514.06
-478.49
-433.65
-382.16
-326.68
-269.44
-212.17
-156.13
-102.35
-51.71
-5.17
36.39
72.32
102.33
126.56
145.54
159.96
170.53
177.87
182.39
184.37
184.04
181.68
177.62
172.29
166.08
159.36
152.35
145.21
138.01
130.79
123.59
116.49
109.54
102.83
96.40
90.28
84.50
79.06
73.97
69.25
64.90
60.93
57.34
54.14
51.30
48.83
46.74
45.02
43.67
42.68
42.01
41.62
41.42
41.30
41.12
40.70
39.87
38.46
36.32
33.36
29.57
24.97
19.65
13.78
7.59
1.33
-4.71
-10.30
-15.20
-19.26
-22.37
-24.50
-25.65
-25.91
-25.40
-24.25
-22.61
-20.62
-18.41
-16.05
-13.63
-11.17
-8.71
-6.28
-3.89
-1.52
0.85
3.25
5.70
8.24
10.91
13.68
16.54
19.48
22.50
25.62
28.84
32.19
35.71
39.48
43.40
47.44
51.58
55.83
60.19
64.71
69.42
74.38
79.68
85.18
90.77
96.42
102.08
107.76
113.45
119.16
124.95
130.86
136.61
141.98
146.74
150.65
153.40
154.63
153.80
150.21
145.19
139.25
132.72
125.81
118.70
111.53
104.42
97.48
90.83
84.62
78.68
72.92
67.29
61.80
56.47
51.32
46.43
41.89
37.81
34.07
30.58
27.32
24.24
21.33
18.60
16.04
13.70
11.63
9.75
8.02
6.41
4.93
3.57
2.33
1.23
0.26
-0.56
-1.28
-1.95
-2.59
-3.21
-3.81
-4.37
-4.87
-5.28
-5.57
-5.73
-5.76
-5.67
-5.46
-5.16
-4.81
-4.42
-4.02
-3.66
-3.36
-3.17
-3.12
-3.23
-3.51
-3.92
-4.43
-4.95
-5.46
-5.92
-6.32
-6.70
-7.11
-7.60
-8.17
-8.82
-9.53
-10.25
-11.01
-11.81
-12.71
-13.75
-14.94
-16.24
-17.53
-18.71
-19.69
-20.50
-21.26
-22.22
-23.61
-25.57
-28.10
-31.01
-34.01
-36.91
-39.64
-42.41
-45.58
-49.58
-54.63
-60.68
-67.37
-74.19
-80.72
-86.88
-93.00
-99.69
-107.64
-117.24
-128.41
-140.63
-153.18
-165.47
-177.24
-188.73
-200.53
-213.46
-228.51
-246.60
-268.27
-293.04
-318.96
-342.63
-359.89
-367.18
-362.81
-347.67
-324.73
-297.89
-270.47
-244.38
-220.15
-197.57
-176.49
-157.15
-139.95
-125.04
-112.04
-100.10
-88.38
-76.41
-64.32
-52.75
-42.49
-34.09
-27.63
-22.72
-18.66
-14.77
-10.64
-6.29
-2.01
1.76
4.75
6.88
8.30
9.21
9.78
10.05
10.11
10.07
10.21
10.83
12.18
14.31
17.19
20.63
24.49
28.55
32.55
36.14
38.87
40.45
40.80
40.18
39.10
38.07
37.40
37.14
37.08
36.98
36.66
36.09
35.46
34.93
34.66
34.59
34.60
34.51
34.18
33.56
32.68
31.68
30.64
29.68
28.86
28.22
27.76
27.46
27.32
27.28
27.28
27.25
27.11
26.75
26.01
24.69
22.58
19.59
15.78
11.48
7.25
3.79
1.87
2.03
4.48
8.93
14.71
20.89
26.54
30.96
33.88
35.42
35.93
35.88
35.60
35.24
34.73
33.89
32.48
30.28
27.18
23.20
18.55
13.47
8.33
3.46
-0.86
-4.44
-7.21
-9.22
-10.62
-11.67
-12.60
-13.53
-14.43
-15.06
-15.17
-14.58
-13.32
-11.66
-9.99
-8.71
-8.04
-7.98
-8.35
-8.90
-9.40
-9.75
-10.03
-10.37
-10.99
-12.06
-13.60
-15.46
-17.33
-18.79
-19.44
-19.00
-17.38
-14.65
-11.03
-6.84
-2.44
1.75
5.39
8.20
10.10
11.24
11.88
12.40
13.02
13.77
14.50
14.97
15.01
14.60
13.88
13.13
12.63
12.60
13.05
13.81
14.58
15.01
14.89
14.30
13.52
12.87
12.56
12.58
12.65
12.44
11.69
10.36
8.63
6.72
4.83
3.02
1.27
-0.50
-2.32
-4.13
-5.85
-7.42
-8.86
-10.19
-11.37
-12.23
-12.47
-11.73
-9.78
-6.69
-2.81
1.31
5.09
8.14
10.35
11.80
12.65
13.03
13.00
12.58
11.84
10.95
10.15
9.69
9.71
10.20
11.02
12.07
13.27
14.63
16.11
17.53
18.56
18.83
18.11
16.46
14.23
11.89
9.83
8.15
6.74
5.39
3.94
2.40
0.88
-0.52
-1.80
-3.05
-4.40
-5.98
-7.77
-9.68
-11.56
-13.26
-14.75
-16.04
-17.12
-17.93
-18.21
-17.69
-16.14
-13.51
-10.06
-6.23
-2.46
0.92
3.82
6.28
8.37
9.99
11.01
11.29
10.87
9.97
8.97
8.21
7.81
7.70
7.61
7.32
6.76
5.98
5.21
4.61
4.28
4.20
4.25
4.28
4.11
3.59
2.66
1.39
-0.07
-1.46
-2.56
-3.31
-3.83
-4.30
-4.94
-5.81
-6.71
-7.45
-7.90
-8.15
-8.39
-8.89
-9.69
-10.51
-10.87
-10.31
-8.58
-5.86
-2.61
0.62
3.40
5.59
7.27
8.63
9.75
10.63
11.24
11.56
11.69
11.78
12.02
12.51
13.26
14.14
14.94
15.44
15.46
14.93
13.90
12.59
11.19
9.95
9.03
8.50
8.29
8.29
8.28
8.02
7.34
6.16
4.59
2.83
1.12
-0.35
-1.61
-2.80
-4.12
-5.76
-7.77
-10.03
-12.29
-14.22
-15.50
-15.81
-14.94
-12.88
-9.81
-6.08
-2.15
1.53
4.65
7.16
9.11
10.69
11.95
12.89
13.40
13.38
12.87
12.04
11.11
10.30
9.69
9.25
8.86
8.38
7.74
6.94
6.08
5.28
4.65
4.21
3.88
3.45
2.73
1.62
0.18
-1.38
-2.77
-3.79
-4.42
-4.82
-5.22
-5.84
-6.82
-8.18
-9.88
-11.76
-13.60
-15.04
-15.73
-15.35
-13.80
-11.16
-7.75
-3.97
-0.18
3.39
6.63
9.52
11.96
13.83
14.90
15.10
14.51
13.45
12.41
11.81
11.80
12.25
12.84
13.27
13.44
13.44
13.50
13.70
13.92
13.90
13.39
12.31
10.79
9.15
7.64
6.42
5.39
4.36
3.13
1.56
-0.33
-2.42
-4.52
-6.45
-8.07
-9.33
-10.37
-11.43
-12.79
-14.60
-16.77
-18.92
-20.46
-20.79
-19.55
-16.76
-12.78
-8.21
-3.64
0.49
3.97
6.75
8.89
10.48
11.61
12.39
12.90
13.29
13.63
14.00
14.41
14.81
15.12
15.26
15.14
14.80
14.38
14.06
14.00
14.21
14.59
14.94
15.10
15.06
14.84
14.45
13.79
12.61
10.69
7.95
4.62
1.18
-1.83
-4.02
-5.30
-5.88
-6.11
-6.30
-6.69
-7.44
-8.65
-10.45
-12.91
-15.86
-18.86
-21.21
-22.17
-21.30
-18.63
-14.68
-10.23
-5.97
-2.27
0.79
3.36
5.59
7.43
8.68
9.15
8.79
7.78
6.48
5.30
4.50
4.18
4.18
4.27
4.26
4.13
4.00
4.05
4.38
4.87
5.32
5.40
4.95
4.04
2.93
1.98
1.45
1.41
1.69
2.07
2.31
2.29
2.01
1.50
0.82
-0.01
-1.01
-2.20
-3.59
-5.16
-6.82
-8.44
-9.84
-10.83
-11.24
-10.95
-9.92
-8.17
-5.85
-3.18
-0.44
2.09
4.25
5.98
7.36
8.48
9.46
10.30
10.95
11.33
11.36
10.96
10.09
8.81
7.27
5.74
4.56
3.97
4.10
4.78
5.64
6.25
6.24
5.44
3.88
1.84
-0.30
-2.09
-3.22
-3.59
-3.32
-2.77
-2.34
-2.31
-2.77
-3.56
-4.43
-5.21
-5.90
-6.63
-7.63
-8.95
-10.46
-11.85
-12.73
-12.84
-12.11
-10.71
-8.91
-6.93
-4.84
-2.53
0.07
3.00
6.08
9.02
11.40
12.83
13.10
12.27
10.57
8.47
6.53
5.18
4.67
4.95
5.69
6.44
6.87
6.89
6.70
6.62
6.88
7.50
8.28
8.86
8.98
8.48
7.44
6.03
4.50
3.01
1.69
0.54
-0.53
-1.76
-3.35
-5.47
-8.16
-11.33
-14.72
-17.99
-20.72
-22.50
-23.02
-22.16
-20.01
-16.87
-13.09
-9.00
-4.84
-0.80
2.93
6.16
8.65
10.26
11.04
11.17
10.92
10.60
10.36
10.28
10.36
10.55
10.84
11.21
11.71
12.31
13.02
13.70
14.24
14.51
14.39
13.85
12.90
11.59
9.97
8.08
5.96
3.72
1.49
-0.63
-2.52
-4.15
-5.53
-6.73
-7.87
-9.09
-10.63
-12.63
-15.14
-17.88
-20.36
-21.87
-21.81
-19.96
-16.54
-12.19
-7.72
-3.70
-0.40
2.29
4.60
6.65
8.39
9.67
10.37
10.55
10.48
10.46
10.66
11.06
11.55
11.93
12.10
12.06
11.84
11.47
10.84
9.85
8.50
6.90
5.32
4.01
3.09
2.45
1.81
0.85
-0.60
-2.45
-4.41
-6.08
-7.14
-7.47
-7.21
-6.70
-6.39
-6.69
-7.85
-9.87
-12.48
-15.08
-17.05
-17.79
-17.03
-14.82
-11.56
-7.83
-4.10
-0.69
2.33
4.95
7.19
8.91
9.89
9.99
9.29
8.14
7.14
6.75
7.16
8.17
9.30
10.04
10.15
9.74
9.20
8.92
9.12
9.66
10.24
10.52
10.30
9.66
8.77
7.84
6.94
5.98
4.75
3.11
1.00
-1.41
-3.86
-6.02
-7.77
-9.12
-10.29
-11.61
-13.33
-15.61
-18.36
-21.20
-23.62
-25.04
-25.00
-23.30
-20.07
-15.70
-10.80
-5.99
-1.75
1.61
4.07
5.78
6.97
7.91
8.76
9.62
10.45
11.18
11.69
11.89
11.74
11.30
10.66
10.02
9.55
9.36
9.47
9.80
10.16
10.38
10.29
9.81
8.99
7.92
6.75
5.60
4.52
3.51
2.53
1.51
0.39
-0.89
-2.29
-3.70
-4.99
-6.01
-6.65
-7.02
-7.37
-8.06
-9.42
-11.56
-14.22
-16.80
-18.51
-18.69
-17.01
-13.67
-9.27
-4.62
-0.38
3.11
5.84
7.94
9.50
10.49
10.81
10.41
9.40
8.14
7.03
6.39
6.37
6.83
7.54
8.27
8.88
9.40
9.83
10.11
10.12
9.70
8.85
7.74
6.66
5.88
5.48
5.27
4.89
4.08
2.78
1.20
-0.37
-1.68
-2.75
-3.75
-4.89
-6.27
-7.81
-9.35
-10.76
-12.00
-13.01
-13.68
-13.73
-12.82
-10.67
-7.30
-3.03
1.66
6.25
10.36
13.83
16.64
18.82
20.31
21.04
20.87
19.79
17.91
15.50
12.92
10.52
8.55
7.04
5.82
4.71
3.61
2.60
1.90
1.66
1.82
2.08
2.02
1.38
0.14
-1.41
-2.88
-4.03
-4.88
-5.60
-6.41
-7.39
-8.47
-9.44
-10.15
-10.62
-10.98
-11.53
-12.54
-14.18
-16.35
-18.75
-20.77
-21.82
-21.40
-19.41
-16.13
-12.09
-7.87
-3.86
-0.19
3.20
6.29
8.98
11.03
12.23
12.60
12.37
11.91
11.55
11.37
11.27
11.05
10.59
9.95
9.28
8.78
8.51
8.40
8.36
8.27
8.11
7.92
7.71
7.39
6.82
5.84
4.36
2.49
0.42
-1.59
-3.33
-4.70
-5.68
-6.33
-6.74
-7.07
-7.57
-8.55
-10.32
-12.94
-16.14
-19.27
-21.56
-22.39
-21.54
-19.27
-16.07
-12.47
-8.75
-4.99
-1.17
2.67
6.32
9.45
11.79
13.27
13.98
14.18
14.14
13.99
13.79
13.48
13.09
12.77
12.73
13.20
14.25
15.73
17.26
18.41
18.83
18.35
17.10
15.35
13.36
11.31
9.22
7.01
4.62
2.00
-0.75
-3.48
-6.04
-8.36
-10.42
-12.31
-14.11
-15.87
-17.63
-19.37
-20.91
-22.03
-22.37
-21.57
-19.39
-15.86
-11.26
-6.13
-1.09
3.34
6.87
9.46
11.24
12.36
12.92
12.94
12.50
11.69
10.79
10.09
9.79
9.95
10.43
11.01
11.46
11.64
11.54
11.13
10.40
9.40
8.19
6.93
5.82
4.98
4.42
3.91
3.19
2.05
0.47
-1.34
-3.09
-4.54
-5.62
-6.46
-7.30
-8.39
-9.90
-11.80
-13.95
-16.16
-18.15
-19.67
-20.48
-20.38
-19.20
-16.95
-13.84
-10.22
-6.51
-3.03
0.01
2.67
5.07
7.30
9.36
11.11
12.34
12.95
13.05
12.85
12.63
12.59
12.76
13.06
13.33
13.43
13.24
12.71
11.75
10.47
8.99
7.55
6.31
5.42
4.84
4.38
3.91
3.31
2.58
1.75
0.79
-0.39
-1.96
-3.99
-6.36
-8.82
-11.12
-13.14
-14.93
-16.70
-18.55
-20.35
-21.69
-22.02
-20.86
-18.01
-13.64
-8.29
-2.61
2.74
7.32
10.83
13.22
14.56
14.96
14.60
13.65
12.32
10.85
9.45
8.35
7.71
7.63
8.06
8.83
9.61
10.09
10.00
9.33
8.25
7.11
6.18
5.52
5.00
4.37
3.48
2.35
1.12
0.04
-0.83
-1.56
-2.35
-3.40
-4.86
-6.80
-9.23
-12.09
-15.13
-17.92
-19.90
-20.51
-19.39
-16.61
-12.54
-7.83
-3.13
1.08
4.51
7.05
8.71
9.52
9.57
9.03
8.17
7.32
6.79
6.73
7.14
7.85
8.63
9.21
9.49
9.44
9.15
8.80
8.51
8.30
8.13
7.84
7.27
6.31
4.89
3.06
0.94
-1.28
-3.41
-5.25
-6.67
-7.67
-8.41
-9.18
-10.35
-12.11
-14.44
-16.99
-19.18
-20.45
-20.44
-19.12
-16.73
-13.60
-10.10
-6.42
-2.70
0.96
4.41
7.44
9.89
11.62
12.58
12.84
12.52
11.86
11.11
10.54
10.36
10.66
11.37
12.30
13.22
13.88
14.06
13.68
12.76
11.48
10.12
8.93
8.02
7.23
6.26
4.77
2.63
0.01
-2.72
-5.11
-6.87
-8.03
-8.84
-9.68
-10.85
-12.46
-14.40
-16.49
-18.49
-20.17
-21.34
-21.81
-21.35
-19.83
-17.23
-13.71
-9.60
-5.34
-1.33
2.15
4.96
7.06
8.53
9.43
9.84
9.86
9.63
9.28
8.96
8.83
8.92
9.25
9.74
10.32
10.91
11.41
11.75
11.85
11.62
11.03
10.13
9.02
7.78
6.40
4.83
2.92
0.62
-1.97
-4.57
-6.88
-8.78
-10.31
-11.79
-13.54
-15.71
-18.15
-20.46
-22.17
-22.86
-22.32
-20.55
-17.64
-13.76
-9.13
-4.05
1.05
5.70
9.43
11.94
13.23
13.47
13.00
12.14
11.14
10.20
9.44
8.98
8.88
9.16
9.70
10.32
10.83
10.98
10.67
9.93
8.90
7.86
6.99
6.37
5.90
5.28
4.25
2.68
0.62
-1.70
-4.02
-6.16
-8.17
-10.23
-12.51
-15.13
-18.01
-20.93
-23.62
-25.83
-27.33
-27.98
-27.63
-26.22
-23.72
-20.25
-16.00
-11.15
-5.91
-0.49
4.81
9.60
13.53
16.35
18.06
18.92
19.23
19.30
19.19
18.85
18.19
17.23
16.19
15.31
14.78
14.63
14.67
14.58
14.12
13.17
11.80
10.19
8.55
7.07
5.73
4.42
2.98
1.29
-0.65
-2.75
-4.89
-6.95
-8.87
-10.67
-12.42
-14.20
-16.10
-18.21
-20.53
-22.91
-25.05
-26.45
-26.59
-25.08
-21.76
-16.86
-10.90
-4.61
1.29
6.29
10.12
12.80
14.57
15.67
16.30
16.57
16.50
16.15
15.59
15.01
14.57
14.38
14.43
14.58
14.65
14.44
13.87
13.00
11.95
10.83
9.70
8.53
7.22
5.77
4.24
2.78
1.44
0.20
-1.12
-2.69
-4.54
-6.50
-8.25
-9.56
-10.48
-11.38
-12.76
-15.00
-18.03
-21.31
-24.02
-25.32
-24.79
-22.45
-18.78
-14.41
-9.87
-5.42
-1.06
3.27
7.53
11.48
14.66
16.68
17.34
16.84
15.66
14.43
13.57
13.25
13.29
13.48
13.61
13.61
13.51
13.28
12.88
12.19
11.22
9.99
8.67
7.35
6.00
4.57
2.98
1.30
-0.35
-1.83
-3.20
-4.65
-6.46
-8.81
-11.57
-14.44
-17.00
-18.98
-20.33
-21.19
-21.66
-21.68
-20.92
-18.99
-15.65
-10.96
-5.40
0.34
5.57
9.81
12.95
15.12
16.61
17.65
18.34
18.63
18.51
18.02
17.31
16.60
16.04
15.60
15.14
14.48
13.50
12.29
10.99
9.75
8.57
7.35
5.93
4.30
2.53
0.84
-0.63
-1.84
-2.89
-3.96
-5.19
-6.62
-8.16
-9.69
-11.06
-12.24
-13.34
-14.57
-16.15
-18.21
-20.60
-22.91
-24.50
-24.72
-23.14
-19.70
-14.80
-9.16
-3.59
1.25
5.02
7.71
9.52
10.67
11.36
11.61
11.46
10.99
10.37
9.85
9.61
9.70
10.01
10.40
10.81
11.21
11.57
11.85
11.89
11.59
10.93
9.97
8.92
7.93
7.02
6.05
4.83
3.25
1.35
-0.63
-2.44
-3.86
-4.86
-5.55
-6.14
-6.86
-7.87
-9.18
-10.67
-12.06
-12.99
-13.20
-12.52
-10.99
-8.79
-6.20
-3.45
-0.74
1.83
4.21
6.28
7.85
8.73
8.72
7.81
6.25
4.46
2.91
1.93
1.55
1.53
1.61
1.57
1.41
1.33
1.52
2.02
2.71
3.36
3.76
3.81
3.51
2.91
2.05
0.99
-0.24
-1.55
-2.86
-4.03
-4.98
-5.61
-5.97
-6.21
-6.61
-7.46
-8.90
-10.78
-12.63
-13.83
-13.83
-12.42
-9.72
-6.16
-2.19
1.82
5.64
9.13
12.11
14.40
15.81
16.27
15.87
14.84
13.52
12.26
11.32
10.77
10.51
10.29
9.89
9.19
8.27
7.34
6.57
5.99
5.46
4.80
3.88
2.70
1.32
-0.16
-1.73
-3.37
-5.05
-6.64
-7.95
-8.79
-9.12
-9.10
-9.05
-9.32
-10.25
-12.02
-14.61
-17.77
-20.96
-23.48
-24.61
-23.82
-20.91
-16.10
-9.94
-3.16
3.49
9.45
14.29
17.87
20.22
21.53
22.09
22.21
22.24
22.40
22.89
23.76
25.02
26.58
28.22
29.69
30.72
31.21
31.28
31.23
31.38
31.99
33.08
34.42
35.66
36.45
36.58
35.99
34.79
33.12
31.19
29.29
27.75
26.84
26.47
26.08
24.63
20.89
13.96
3.80
-8.59
-21.35
-32.46
-40.41
-44.69
-45.90
-45.15
-43.61
-42.00
-40.49
-38.92
-37.07
-34.98
-32.87
-31.01
-29.56
-28.48
-27.55
-26.43
-24.92
-22.99
-20.80
-18.65
-16.84
-15.52
-14.61
-13.76
-12.60
-10.85
-8.52
-5.95
-3.57
-1.80
-0.84
-0.68
-1.16
-2.00
-2.99
-3.94
-4.69
-5.17
-5.37
-5.37
-5.37
-5.59
-6.24
-7.48
-9.34
-11.70
-14.31
-16.82
-18.78
-19.78
-19.49
-17.85
-14.97
-11.20
-6.95
-2.59
1.58
5.34
8.56
11.07
12.80
13.79
14.21
14.35
14.51
14.91
15.55
16.28
16.90
17.22
17.16
16.76
16.13
15.37
14.54
13.61
12.46
10.95
9.01
6.71
4.25
1.94
0.04
-1.31
-2.23
-2.99
-3.82
-4.91
-6.21
-7.56
-8.79
-9.88
-10.99
-12.38
-14.27
-16.60
-19.00
-20.83
-21.47
-20.54
-18.06
-14.46
-10.33
-6.24
-2.50
0.76
3.54
5.75
7.16
7.56
6.89
5.38
3.45
1.57
0.07
-0.95
-1.49
-1.61
-1.32
-0.54
0.76
2.53
4.58
6.62
8.35
9.58
10.21
10.27
9.85
9.03
7.87
6.39
4.60
2.60
0.57
-1.26
-2.73
-3.85
-4.84
-6.04
-7.73
-10.02
-12.80
-15.75
-18.41
-20.35
-21.18
-20.71
-19.04
-16.47
-13.42
-10.32
-7.39
-4.65
-1.95
0.83
3.63
6.21
8.32
9.77
10.65
11.19
11.64
12.10
12.43
12.40
11.82
10.77
9.57
8.65
8.35
8.64
9.22
9.67
9.62
8.95
7.80
6.38
4.84
3.23
1.48
-0.46
-2.50
-4.50
-6.37
-8.15
-10.06
-12.26
-14.83
-17.60
-20.15
-22.02
-22.79
-22.22
-20.28
-17.10
-13.00
-8.38
-3.73
0.52
4.07
6.78
8.69
9.81
10.09
9.50
8.08
6.13
4.19
2.85
2.55
3.32
4.82
6.40
7.60
8.16
8.21
8.05
7.92
7.85
7.71
7.30
6.51
5.40
4.10
2.71
1.27
-0.25
-1.79
-3.24
-4.36
-5.03
-5.27
-5.33
-5.54
-6.15
-7.20
-8.50
-9.81
-10.89
-11.58
-11.74
-11.21
-9.87
-7.65
-4.75
-1.54
1.47
3.94
5.72
7.01
8.06
9.04
9.87
10.34
10.18
9.32
7.96
6.51
5.36
4.77
4.76
5.19
5.76
6.21
6.27
5.86
4.99
3.88
2.95
2.61
3.20
4.68
6.71
8.58
9.56
9.12
7.10
3.80
-0.22
-4.32
-8.09
-11.37
-14.30
-17.03
-19.69
-22.10
-23.90
-24.65
-24.01
-21.85
-18.28
-13.64
-8.46
-3.33
1.16
4.65
6.95
8.22
8.71
8.70
8.38
7.80
7.08
6.39
6.05
6.33
7.31
8.79
10.32
11.44
11.88
11.67
11.10
10.50
10.09
9.91
9.82
9.67
9.25
8.51
7.38
5.89
4.13
2.22
0.35
-1.32
-2.67
-3.71
-4.62
-5.69
-7.20
-9.36
-12.11
-15.15
-17.92
-19.83
-20.36
-19.32
-16.87
-13.46
-9.61
-5.78
-2.25
0.88
3.59
5.92
7.79
9.11
9.83
9.95
9.66
9.19
8.78
8.57
8.58
8.71
8.88
8.96
8.93
8.81
8.66
8.46
8.16
7.68
6.96
5.98
4.81
3.51
2.19
0.85
-0.50
-1.90
-3.38
-4.97
-6.71
-8.62
-10.77
-13.12
-15.54
-17.73
-19.31
-19.90
-19.33
-17.67
-15.18
-12.17
-8.96
-5.70
-2.46
0.72
3.74
6.42
8.59
10.14
11.00
11.25
11.03
10.54
9.99
9.62
9.55
9.77
10.08
10.20
9.90
9.16
8.17
7.28
6.75
6.62
6.68
6.60
6.06
4.99
3.52
1.94
0.54
-0.52
-1.20
-1.65
-2.09
-2.76
-3.81
-5.32
-7.27
-9.51
-11.92
-14.29
-16.34
-17.76
-18.26
-17.64
-15.97
-13.47
-10.56
-7.58
-4.79
-2.26
0.01
1.98
3.66
4.97
5.93
6.60
7.09
7.48
7.81
8.13
8.50
9.05
9.82
10.77
11.71
12.38
12.57
12.25
11.54
10.66
9.83
9.12
8.53
7.95
7.30
6.48
5.35
3.78
1.69
-0.86
-3.68
-6.41
-8.70
-10.34
-11.38
-12.05
-12.69
-13.53
-14.64
-15.81
-16.69
-16.92
-16.23
-14.55
-12.06
-9.08
-6.02
-3.15
-0.64
1.53
3.49
5.23
6.63
7.41
7.28
6.19
4.41
2.51
1.13
0.68
1.16
2.20
3.25
3.91
4.01
3.72
3.30
2.94
2.76
2.71
2.75
2.90
3.17
3.57
3.98
4.20
3.98
3.20
1.90
0.32
-1.24
-2.56
-3.65
-4.71
-6.00
-7.64
-9.54
-11.30
-12.47
-12.73
-12.03
-10.63
-8.96
-7.37
-6.08
-5.05
-4.20
-3.45
-2.97
-2.99
-3.77
-5.31
-7.32
-9.26
-10.66
-11.25
-11.16
-10.76
-10.39
-10.24
-10.27
-10.33
-10.42
-10.67
-11.27
-12.26
-13.36
-14.07
-13.85
-12.34
-9.47
-5.45
-0.60
4.64
9.77
14.16
17.19
18.41
17.70
15.35
11.91
8.09
4.47
1.54
-0.37
-1.01
-0.23
1.92
5.11
8.85
12.56
15.77
18.25
19.94
20.93
21.38
21.39
21.10
20.58
19.94
19.23
18.56
18.02
17.73
17.75
17.98
18.15
17.89
16.85
14.90
12.25
9.44
7.01
5.43
4.87
5.26
6.29
7.47
8.32
8.34
7.16
4.74
1.40
-2.30
-5.71
-8.37
-10.22
-11.48
-12.48
-13.50
-14.64
-15.83
-16.89
-17.62
-17.80
-17.19
-15.62
-13.03
-9.49
-5.20
-0.44
4.51
9.40
14.04
18.17
21.50
23.77
24.86
24.89
24.20
23.36
22.93
23.24
24.22
25.42
26.07
25.46
23.25
19.61
15.20
10.90
7.51
5.44
4.59
4.43
4.28
3.58
2.12
0.03
-2.26
-4.38
-6.21
-7.96
-10.07
-12.92
-16.57
-20.66
-24.49
-27.32
-28.65
-28.36
-26.68
-24.01
-20.68
-16.96
-13.02
-9.10
-5.63
-3.07
-1.89
-2.36
-4.40
-7.52
-10.96
-13.97
-16.06
-17.14
-17.53
-17.66
-17.83
-18.08
-18.13
-17.64
-16.32
-14.21
-11.49
-8.48
-5.41
-2.42
0.37
2.82
4.61
5.42
5.02
3.42
0.88
-2.15
-5.21
-8.04
-10.66
-13.34
-16.34
-19.78
-23.49
-27.10
-30.21
-32.60
-34.33
-35.60
-36.57
-37.17
-37.09
-35.96
-33.62
-30.30
-26.50
-22.86
-19.81
-17.40
-15.42
-13.61
-11.94
-10.64
-10.08
-10.47
-11.76
-13.55
-15.27
-16.46
-16.94
-16.84
-16.52
-16.45
-16.98
-18.32
-20.52
-23.37
-26.52
-29.54
-32.04
-33.90
-35.29
-36.61
-38.36
-40.86
-44.06
-47.48
-50.46
-52.36
-53.02
-52.91
-52.99
-54.35
-57.65
-62.59
-67.79
-71.03
-69.92
-62.79
-49.38
-31.16
-10.75
8.81
25.06
36.71
43.99
48.22
51.24
54.61
59.13
64.53
69.56
72.42
71.39
65.48
54.82
40.72
25.34
11.07
0.10
-5.99
-6.23
-0.37
11.13
26.92
44.90
62.63
77.99
89.82
98.17
104.01
108.60
112.72
116.37
118.96
119.84
118.86
116.60
114.18
112.62
112.33
112.90
113.08
111.26
105.95
96.34
82.66
66.28
49.60
35.35
25.93
22.33
23.71
27.44
29.92
27.92
19.78
5.98
-11.18
-28.67
-43.78
-54.85
-61.24
-62.96
-60.36
-54.08
-45.27
-35.72
-27.56
-22.75
-22.27
-25.75
-31.69
-38.05
-43.05
-45.73
-46.05
-44.69
-42.64
-40.86
-39.94
-39.99
-40.56
-40.90
-40.29
-38.24
-34.82
-30.41
-25.60
-20.76
-16.08
-11.56
-7.20
-3.19
0.12
2.40
3.47
3.41
2.54
1.19
-0.35
-1.97
-3.64
-5.27
-6.73
-7.88
-8.65
-9.10
-9.47
-10.00
-10.76
-11.60
-12.09
-11.81
-10.44
-8.14
-5.49
-3.36
-2.50
-3.28
-5.50
-8.62
-11.98
-15.33
-18.84
-23.06
-28.53
-35.30
-42.84
-50.07
-55.71
-58.84
-59.15
-57.03
-53.35
-49.15
-45.29
-42.31
-40.37
-39.38
-39.13
-39.39
-40.02
-40.84
-41.81
-42.90
-44.15
-45.59
-47.20
-48.87
-50.45
-51.96
-53.52
-55.48
-58.16
-61.73
-65.96
-70.28
-73.92
-76.27
-77.13
-76.83
-76.09
-75.62
-75.70
-75.89
-75.15
-72.31
-66.89
-59.82
-53.50
-51.24
-55.85
-68.22
-86.39
-105.74
-120.51
-125.72
-118.99
-101.08
-75.44
-46.85
-20.18
0.46
12.49
15.25
10.70
3.60
0.45
7.01
25.10
50.52
73.70
83.26
71.01
36.11
-14.18
-67.42
-111.02
-136.89
-143.40
-134.29
-115.82
-93.69
-71.48
-50.69
-31.80
-15.24
-1.55
8.84
16.06
21.08
25.22
29.63
34.72
39.93
44.47
48.29
53.01
62.08
79.34
106.62
141.47
176.32
200.28
202.87
178.18
127.38
58.73
-15.27
-81.86
-131.38
-159.12
-165.15
-153.03
-128.33
-97.28
-65.82
-38.79
-19.20
-7.91
-3.70
-4.07
-5.95
-6.74
-4.85
0.08
7.23
15.08
21.95
26.63
28.75
28.94
28.40
28.43
29.82
32.52
35.63
37.88
38.13
35.90
31.56
26.11
20.71
16.12
12.35
8.69
4.09
-2.25
-10.47
-19.72
-28.43
-34.51
-35.79
-30.41
-17.39
2.77
27.77
53.81
76.60
92.67
100.43
100.29
93.95
83.27
69.61
53.89
37.16
21.25
8.50
0.99
-0.57
2.75
8.41
13.53
16.16
15.91
13.89
11.84
11.26
12.65
15.56
19.01
22.17
24.83
27.29
30.10
33.52
37.47
41.63
45.81
50.03
54.40
58.76
62.45
64.43
63.68
59.86
53.38
45.32
36.93
29.13
22.43
16.79
12.08
8.14
4.90
2.32
0.16
-2.04
-4.88
-8.82
-13.79
-19.08
-23.47
-25.80
-25.48
-22.84
-18.99
-15.31
-12.83
-11.98
-12.55
-14.13
-16.43
-19.41
-23.18
-27.86
-33.45
-39.93
-47.37
-55.95
-65.83
-77.02
-89.36
-102.53
-116.08
-129.48
-141.97
-152.43
-159.51
-161.77
-158.09
-147.83
-130.97
-107.91
-79.36
-46.27
-9.89
28.30
66.69
103.76
138.26
169.12
195.38
216.03
230.06
236.71
235.78
227.89
214.27
196.57
176.38
155.04
133.48
112.33
92.12
73.31
56.50
42.27
31.21
23.84
20.54
21.57
27.03
36.89
50.56
66.81
83.50
98.05
108.08
112.30
111.04
106.04
99.63
93.62
88.59
83.80
77.91
69.77
59.10
46.52
33.26
20.69
9.99
2.13
-2.08
-1.98
2.83
12.24
25.58
41.58
58.59
74.89
88.97
99.73
106.51
109.08
107.45
101.90
92.77
80.70
66.61
51.69
37.35
24.88
15.34
9.36
6.94
7.33
9.09
10.41
9.60
5.61
-1.57
-11.00
-21.31
-31.23
-40.09
-47.88
-54.89
-61.30
-66.90
-71.01
-72.74
-71.21
-65.87
-56.54
-43.46
-27.29
-8.89
10.73
30.50
49.42
66.49
80.84
91.88
99.24
102.99
103.56
101.66
98.16
93.87
89.31
84.50
78.96
71.86
62.50
50.79
37.59
24.50
13.38
5.49
0.90
-1.61
-4.07
-8.40
-15.53
-25.00
-35.08
-43.55
-48.50
-48.99
-45.24
-38.42
-30.05
-21.34
-12.76
-3.78
6.84
20.45
37.76
58.16
79.57
99.04
113.67
121.62
122.50
116.91
105.58
88.50
64.96
34.42
-2.44
-43.07
-83.63
-120.17
-150.06
-172.55
-188.36
-198.69
-204.19
-204.66
-199.58
-188.85
-173.39
-155.07
-136.16
-118.54
-103.38
-90.88
-80.70
-72.19
-64.75
-57.98
-51.70
-45.90
-40.57
-35.64
-30.89
-25.98
-20.54
-14.28
-7.15
0.67
8.78
16.70
23.96
30.18
35.09
38.59
40.67
41.43
41.07
39.87
38.12
36.10
33.97
31.83
29.74
27.80
26.14
24.85
23.94
23.29
22.70
21.94
20.87
19.51
17.95
16.38
14.89
13.52
12.18
10.74
9.04
6.95
4.33
1.13
-2.56
-6.47
-10.13
-12.98
-14.51
-14.38
-12.54
-9.24
-4.90
-0.00
5.01
9.80
14.18
18.04
21.33
23.99
26.04
27.47
28.37
28.91
29.25
29.55
29.88
30.18
30.32
30.21
29.80
29.13
28.24
27.11
25.69
23.82
21.44
18.56
15.33
11.98
8.74
5.72
2.94
0.29
-2.39
-5.27
-8.40
-11.68
-14.82
-17.42
-19.03
-19.26
-17.90
-14.95
-10.65
-5.42
0.28
6.00
11.37
16.12
20.03
22.94
24.77
25.53
25.36
24.56
23.42
22.28
21.34
20.69
20.30
20.08
19.88
19.56
18.98
18.10
16.98
15.69
14.35
12.99
11.62
10.16
8.55
6.80
4.90
2.90
0.78
-1.53
-4.15
-7.17
-10.51
-13.92
-16.93
-18.96
-19.53
-18.38
-15.58
-11.57
-6.93
-2.23
2.13
6.00
9.32
12.11
14.32
15.85
16.69
16.91
16.68
16.21
15.64
15.01
14.30
13.52
12.77
12.26
12.21
12.77
13.87
15.23
16.40
16.95
16.60
15.34
13.44
11.35
9.45
7.89
6.56
5.06
2.95
-0.15
-4.33
-9.32
-14.40
-18.51
-20.38
-18.89
-13.50
-4.39
7.42
20.44
33.17
44.54
54.09
61.96
68.57
74.37
79.63
84.36
88.28
90.90
91.59
89.72
84.88
77.06
66.68
54.47
41.22
27.54
13.81
0.26
-12.79
-24.86
-35.36
-43.83
-50.20
-54.81
-58.28
-61.20
-63.86
-66.17
-67.80
-68.35
-67.46
-64.92
-60.61
-54.59
-47.18
-39.10
-31.32
-24.82
-20.24
-17.60
-16.24
-15.17
-13.45
-10.72
-7.29
-4.06
-2.09
-2.13
-4.41
-8.53
-13.75
-19.28
-24.43
-28.63
-31.37
-32.10
-30.43
-26.34
-20.47
-13.97
-8.20
-4.26
-2.59
-2.90
-4.54
-6.78
-9.06
-11.10
-12.69
-13.68
-13.89
-13.26
-11.89
-10.08
-8.29
-6.98
-6.56
-7.25
-9.12
-12.03
-15.66
-19.55
-23.15
-25.99
-27.72
-28.11
-27.11
-24.77
-21.32
-17.09
-12.44
-7.68
-3.01
1.50
5.74
9.61
12.96
15.71
17.97
20.05
22.39
25.38
29.16
33.56
38.15
42.41
45.82
48.03
48.81
48.07
45.84
42.27
37.66
32.43
27.00
21.79
17.04
12.80
8.94
5.20
1.36
-2.76
-7.20
-11.81
-16.33
-20.38
-23.60
-25.67
-26.41
-25.84
-24.16
-21.69
-18.79
-15.80
-12.93
-10.32
-8.02
-6.02
-4.23
-2.58
-0.96
0.64
2.21
3.64
4.83
5.74
6.41
6.92
7.39
7.92
8.55
9.25
9.87
10.22
10.05
9.15
7.44
5.09
2.41
-0.20
-2.49
-4.42
-6.16
-7.96
-10.02
-12.38
-15.00
-17.69
-20.24
-22.40
-23.85
-24.33
-23.62
-21.66
-18.60
-14.72
-10.41
-6.01
-1.83
1.94
5.15
7.73
9.66
10.98
11.77
12.11
12.08
11.78
11.34
10.89
10.60
10.59
10.85
11.27
11.67
11.83
11.60
10.94
9.86
8.46
6.80
4.95
2.98
0.93
-1.10
-3.10
-5.08
-7.19
-9.56
-12.31
-15.40
-18.54
-21.23
-22.89
-23.07
-21.60
-18.71
-14.88
-10.77
-6.90
-3.62
-1.05
0.86
2.19
3.04
3.51
3.77
4.00
4.34
4.88
5.55
6.20
6.62
6.69
6.41
5.88
5.26
4.69
4.20
3.73
3.18
2.43
1.41
0.08
-1.54
-3.36
-5.28
-7.13
-8.87
-10.45
-12.02
-13.78
-15.87
-18.32
-20.92
-23.26
-24.84
-25.29
-24.45
-22.40
-19.43
-15.89
-12.10
-8.31
-4.70
-1.42
1.44
3.78
5.56
6.82
7.66
8.18
8.49
8.70
8.87
9.01
9.05
8.94
8.64
8.14
7.48
6.78
6.17
5.71
5.45
5.33
5.20
4.90
4.25
3.18
1.74
0.07
-1.66
-3.30
-4.83
-6.36
-8.01
-9.94
-12.20
-14.73
-17.37
-19.84
-21.82
-22.95
-22.93
-21.57
-18.91
-15.15
-10.69
-6.03
-1.62
2.24
5.39
7.87
9.70
10.95
11.64
11.80
11.57
11.14
10.75
10.58
10.69
10.98
11.20
11.14
10.70
9.90
8.94
8.02
7.25
6.62
6.00
5.22
4.19
2.89
1.43
-0.05
-1.51
-2.91
-4.32
-5.82
-7.38
-8.99
-10.55
-12.04
-13.46
-14.89
-16.42
-18.15
-20.09
-22.12
-23.97
-25.28
-25.63
-24.71
-22.45
-19.02
-14.81
-10.28
-5.85
-1.78
1.78
4.81
7.33
9.33
10.86
11.97
12.76
13.31
13.70
13.95
14.06
14.03
13.90
13.71
13.47
13.19
12.80
12.25
11.53
10.63
9.66
8.74
7.95
7.35
6.84
6.27
5.41
4.07
2.18
-0.09
-2.42
-4.44
-5.87
-6.70
-7.20
-7.81
-8.94
-10.73
-13.00
-15.34
-17.33
-18.67
-19.30
-19.34
-18.85
-17.90
-16.43
-14.42
-11.77
-8.32
-3.78
2.19
9.58
17.68
24.85
28.98
28.53
23.63
16.67
11.79
13.35
24.17
44.33
71.08
99.87
125.80
144.84
154.54
154.26
145.05
129.46
111.09
93.88
81.05
74.25
73.15
75.88
79.95
83.36
85.15
85.49
85.12
84.80
85.08
86.09
87.77
89.81
91.79
93.04
92.72
90.04
84.51
76.16
65.52
53.44
40.74
27.93
15.18
2.52
-10.00
-22.19
-33.70
-44.17
-53.38
-61.27
-67.96
-73.82
-79.29
-84.69
-89.98
-94.54
-97.27
-97.08
-93.45
-86.90
-78.90
-71.26
-65.37
-61.69
-59.74
-58.62
-57.67
-56.68
-55.81
-55.13
-54.40
-53.10
-50.81
-47.43
-43.36
-39.22
-35.47
-32.23
-29.21
-26.07
-22.58
-18.90
-15.37
-12.43
-10.41
-9.34
-9.10
-9.44
-10.11
-11.02
-12.19
-13.69
-15.62
-18.02
-20.80
-23.81
-26.87
-29.78
-32.33
-34.31
-35.54
-35.88
-35.38
-34.26
-32.98
-32.05
-31.88
-32.61
-34.08
-35.92
-37.74
-39.29
-40.58
-41.80
-43.11
-44.55
-46.01
-47.25
-48.10
-48.44
-48.31
-47.85
-47.26
-46.80
-46.70
-47.17
-48.30
-50.00
-52.05
-54.21
-56.32
-58.42
-60.70
-63.39
-66.59
-70.08
-73.36
-75.77
-76.73
-75.99
-73.74
-70.58
-67.30
-64.58
-62.77
-61.86
-61.53
-61.34
-60.88
-59.83
-58.04
-55.54
-52.57
-49.69
-47.56
-46.62
-46.57
-46.02
-42.73
-34.33
-19.34
2.04
27.80
54.90
80.21
101.36
117.07
126.79
130.39
127.89
119.76
107.20
92.30
77.61
65.33
56.61
51.19
47.82
44.99
41.60
37.33
32.51
27.77
23.69
20.54
18.34
16.95
16.18
15.90
16.00
16.34
16.78
17.16
17.35
17.25
16.80
15.97
14.75
13.30
11.79
10.52
9.71
9.50
9.86
10.59
11.41
12.01
12.25
12.09
11.69
11.28
11.09
11.25
11.75
12.54
13.51
14.71
16.23
18.20
20.67
23.56
26.72
29.93
33.06
36.00
38.69
40.95
42.55
43.16
42.53
40.53
37.23
32.86
27.76
22.28
16.59
10.77
4.81
-1.32
-7.54
-13.70
-19.60
-25.12
-30.24
-35.00
-39.41
-43.38
-46.69
-49.14
-50.65
-51.36
-51.59
-51.63
-51.66
-51.69
-51.68
-51.59
-51.50
-51.49
-51.56
-51.56
-51.26
-50.54
-49.48
-48.37
-47.53
-47.21
-47.41
-47.94
-48.49
-48.76
-48.55
-47.68
-46.04
-43.46
-39.97
-35.72
-31.12
-26.68
-22.86
-19.92
-17.78
-16.20
-14.81
-13.37
-11.79
-10.16
-8.63
-7.30
-6.16
-5.11
-4.05
-2.90
-1.69
-0.47
0.69
1.76
2.77
3.75
4.71
5.61
6.36
6.94
7.33
7.57
7.70
7.77
7.80
7.80
7.74
7.61
7.37
6.94
6.25
5.28
4.06
2.71
1.43
0.38
-0.30
-0.56
-0.44
-0.06
0.42
0.83
1.08
1.17
1.16
1.15
1.18
1.22
1.22
1.12
0.92
0.71
0.56
0.49
0.45
0.29
-0.11
-0.79
-1.62
-2.44
-3.06
-3.37
-3.41
-3.35
-3.40
-3.76
-4.45
-5.35
-6.20
-6.72
-6.77
-6.37
-5.75
-5.23
-5.05
-5.30
-5.86
-6.49
-6.93
-7.00
-6.67
-6.04
-5.32
-4.74
-4.47
-4.63
-5.25
-6.22
-7.34
-8.44
-9.29
-9.75
-9.75
-9.30
-8.50
-7.54
-6.60
-5.82
-5.29
-4.97
-4.73
-4.45
-4.06
-3.60
-3.19
-2.91
-2.84
-2.90
-2.97
-2.91
-2.62
-2.06
-1.29
-0.35
0.74
1.94
3.20
4.42
5.47
6.20
6.55
6.58
6.45
6.35
6.40
6.58
6.76
6.73
6.36
5.60
4.53
3.26
2.00
0.93
0.27
0.17
0.68
1.65
2.77
3.66
3.99
3.64
2.70
1.40
-0.03
-1.42
-2.70
-3.80
-4.66
-5.19
-5.36
-5.22
-4.89
-4.53
-4.21
-3.93
-3.63
-3.28
-2.93
-2.66
-2.59
-2.70
-2.90
-2.98
-2.78
-2.26
-1.51
-0.70
0.02
0.58
1.00
1.34
1.64
1.91
2.07
2.12
2.08
2.03
2.06
2.17
2.30
2.30
2.05
1.47
0.65
-0.29
-1.18
-1.96
-2.63
-3.25
-3.92
-4.65
-5.42
-6.11
-6.63
-6.92
-6.99
-6.87
-6.67
-6.49
-6.43
-6.54
-6.83
-7.27
-7.78
-8.27
-8.72
-9.18
-9.64
-10.09
-10.39
-10.43
-10.09
-9.39
-8.38
-7.22
-6.04
-4.90
-3.88
-3.00
-2.32
-1.87
-1.65
-1.56
-1.50
-1.39
-1.16
-0.85
-0.50
-0.16
0.17
0.52
0.88
1.20
1.43
1.48
1.32
0.98
0.51
-0.05
-0.65
-1.28
-1.91
-2.54
-3.13
-3.66
-4.13
-4.55
-4.95
-5.36
-5.75
-6.07
-6.32
-6.50
-6.64
-6.81
-7.01
-7.19
-7.25
-7.08
-6.60
-5.81
-4.83
-3.82
-2.95
-2.34
-1.97
-1.70
-1.37
-0.87
-0.18
0.59
1.30
1.81
2.09
2.22
2.37
2.71
3.28
4.03
4.75
5.28
5.50
5.47
5.34
5.28
5.43
5.79
6.28
6.72
7.02
7.13
7.15
7.19
7.32
7.51
7.63
7.53
7.05
6.18
4.97
3.63
2.37
1.31
0.53
-0.04
-0.46
-0.84
-1.19
-1.48
-1.65
-1.68
-1.61
-1.56
-1.65
-1.93
-2.35
-2.73
-2.91
-2.77
-2.35
-1.77
-1.19
-0.70
-0.33
-0.02
0.30
0.66
1.03
1.40
1.76
2.12
2.51
2.92
3.29
3.54
3.60
3.49
3.30
3.19
3.38
4.00
5.08
6.43
7.81
8.92
9.64
10.02
10.22
10.45
10.72
10.95
10.94
10.62
10.09
9.66
9.69
10.38
11.73
13.52
15.55
17.65
19.75
21.75
23.44
24.52
24.67
23.76
21.92
19.51
16.94
14.49
12.17
9.83
7.31
4.57
1.82
-0.63
-2.50
-3.68
-4.27
-4.55
-4.76
-5.04
-5.42
-5.84
-6.27
-6.80
-7.55
-8.62
-9.97
-11.47
-12.86
-13.93
-14.55
-14.74
-14.68
-14.56
-14.58
-14.85
-15.39
-16.09
-16.82
-17.44
-17.89
-18.21
-18.52
-18.89
-19.35
-19.80
-20.09
-20.08
-19.72
-19.08
-18.29
-17.46
-16.61
-15.67
-14.54
-13.15
-11.56
-9.97
-8.63
-7.81
-7.65
-8.12
-9.03
-10.06
-10.88
-11.24
-11.06
-10.37
-9.40
-8.43
-7.72
-7.44
-7.52
-7.81
-8.04
-7.99
-7.57
-6.81
-5.88
-4.98
-4.30
-3.98
-4.06
-4.56
-5.37
-6.33
-7.19
-7.75
-7.85
-7.49
-6.75
-5.75
-4.67
-3.56
-2.50
-1.51
-0.59
0.24
0.96
1.58
2.17
2.72
3.25
3.68
3.94
3.95
3.74
3.43
3.16
3.12
3.34
3.75
4.23
4.58
4.68
4.48
4.02
3.40
2.78
2.29
2.00
1.88
1.77
1.52
1.01
0.29
-0.48
-1.06
-1.32
-1.26
-1.03
-0.87
-0.94
-1.27
-1.79
-2.40
-3.05
-3.73
-4.49
-5.30
-6.07
-6.67
-7.00
-7.08
-6.97
-6.79
-6.61
-6.43
-6.23
-5.97
-5.67
-5.32
-4.92
-4.45
-3.84
-3.10
-2.29
-1.51
-0.83
-0.31
0.13
0.55
1.06
1.73
2.57
3.50
4.35
4.92
4.99
4.54
3.68
2.73
2.06
1.87
2.16
2.70
3.21
3.50
3.51
3.37
3.22
3.16
3.19
3.29
3.40
3.49
3.53
3.49
3.35
3.05
2.61
2.06
1.49
0.96
0.53
0.22
0.04
0.05
0.28
0.71
1.26
1.77
2.13
2.26
2.20
2.06
1.96
2.00
2.21
2.49
2.73
2.75
2.44
1.74
0.74
-0.39
-1.39
-2.06
-2.32
-2.25
-2.04
-1.88
-1.90
-2.11
-2.48
-2.97
-3.55
-4.19
-4.92
-5.65
-6.29
-6.68
-6.71
-6.34
-5.66
-4.83
-4.06
-3.54
-3.37
-3.50
-3.80
-4.10
-4.27
-4.32
-4.29
-4.28
-4.32
-4.34
-4.20
-3.75
-2.91
-1.81
-0.72
0.06
0.32
0.06
-0.44
-0.82
-0.74
-0.03
1.17
2.55
3.74
4.47
4.64
4.35
3.75
3.01
2.31
1.72
1.34
1.25
1.48
2.00
2.66
3.21
3.38
3.07
2.35
1.46
0.77
0.49
0.70
1.30
2.08
2.83
3.47
3.93
4.23
4.36
4.35
4.26
4.19
4.27
4.52
4.92
5.34
5.69
6.00
6.38
6.98
7.88
8.95
9.96
10.65
10.95
11.00
11.07
11.39
12.00
12.67
13.08
12.94
12.25
11.22
10.17
9.33
8.69
8.09
7.31
6.29
5.09
3.89
2.87
2.08
1.56
1.22
1.01
0.89
0.82
0.69
0.42
-0.11
-0.96
-2.09
-3.45
-4.89
-6.25
-7.38
-8.12
-8.40
-8.19
-7.62
-6.88
-6.19
-5.69
-5.43
-5.26
-5.00
-4.53
-3.81
-2.96
-2.10
-1.36
-0.80
-0.49
-0.49
-0.84
-1.52
-2.29
-2.83
-2.79
-2.02
-0.61
1.06
2.56
3.59
4.08
4.15
3.98
3.69
3.27
2.62
1.69
0.49
-0.87
-2.26
-3.58
-4.85
-6.19
-7.78
-9.75
-12.19
-15.04
-18.17
-21.50
-24.94
-28.47
-32.01
-35.31
-37.98
-39.59
-39.85
-38.72
-36.45
-33.50
-30.30
-27.15
-24.18
-21.34
-18.56
-15.81
-13.08
-10.38
-7.75
-5.17
-2.66
-0.23
2.15
4.51
6.85
9.16
11.41
13.52
15.47
17.25
18.89
20.49
22.08
23.64
25.05
26.22
27.08
27.71
28.30
29.06
30.10
31.32
32.49
33.36
33.86
34.13
34.41
34.93
35.68
36.46
36.96
36.95
36.42
35.56
34.62
33.75
32.91
31.88
30.39
28.30
25.70
22.88
20.17
17.76
15.55
13.10
9.79
5.06
-1.38
-9.50
-19.00
-29.40
-40.25
-51.08
-61.42
-70.74
-78.48
-84.19
-87.56
-88.54
-87.34
-84.44
-80.44
-75.96
-71.51
-67.37
-63.58
-59.93
-56.09
-51.66
-46.34
-39.99
-32.71
-24.80
-16.67
-8.75
-1.43
5.08
10.85
16.38
22.44
29.69
38.34
47.86
57.10
64.75
69.92
72.53
73.21
72.83
71.91
70.28
67.34
62.47
55.66
47.60
39.39
32.05
26.02
21.17
16.99
13.06
9.25
5.82
3.10
1.34
0.45
0.06
-0.26
-0.78
-1.53
-2.33
-2.92
-3.15
-3.08
-2.86
-2.65
-2.50
-2.37
-2.14
-1.71
-1.04
-0.22
0.63
1.32
1.70
1.68
1.28
0.65
0.01
-0.44
-0.59
-0.48
-0.32
-0.38
-0.90
-2.01
-3.66
-5.67
-7.74
-9.55
-10.85
-11.52
-11.62
-11.23
-10.54
-9.64
-8.63
-7.53
-6.43
-5.42
-4.60
-3.97
-3.49
-3.03
-2.45
-1.71
-0.86
-0.05
0.52
0.74
0.62
0.25
-0.21
-0.61
-0.86
-0.95
-0.93
-0.89
-0.86
-0.85
-0.84
-0.81
-0.84
-1.02
-1.46
-2.22
-3.25
-4.37
-5.34
-5.94
-6.03
-5.62
-4.93
-4.24
-3.82
-3.84
-4.30
-5.06
-5.88
-6.53
-6.85
-6.83
-6.60
-6.34
-6.21
-6.25
-6.38
-6.40
-6.13
-5.51
-4.55
-3.43
-2.33
-1.40
-0.72
-0.27
-0.04
0.07
0.14
0.31
0.68
1.32
2.19
3.14
4.01
4.61
4.85
4.62
3.99
3.05
2.02
1.17
0.74
0.82
1.29
1.90
2.36
2.46
2.19
1.67
1.03
0.38
-0.27
-0.92
-1.56
-2.12
-2.57
-2.97
-3.45
-4.16
-5.14
-6.28
-7.34
-8.07
-8.36
-8.24
-7.81
-7.16
-6.33
-5.33
-4.19
-3.01
-1.91
-0.98
-0.22
0.39
0.91
1.31
1.57
1.68
1.69
1.75
1.97
2.38
2.93
3.47
3.94
4.31
4.65
4.99
5.36
5.68
5.85
5.77
5.44
4.92
4.32
3.77
3.36
3.13
3.10
3.23
3.45
3.67
3.74
3.57
3.09
2.33
1.37
0.32
-0.75
-1.81
-2.92
-4.10
-5.33
-6.46
-7.32
-7.71
-7.58
-7.03
-6.18
-5.24
-4.33
-3.54
-2.89
-2.43
-2.11
-1.84
-1.48
-0.88
0.01
1.13
2.30
3.30
3.97
4.33
4.56
4.91
5.60
6.74
8.24
9.86
11.31
12.37
12.94
13.09
12.96
12.77
12.64
12.65
12.84
13.18
13.58
13.92
14.09
14.02
13.79
13.56
13.48
13.62
13.90
14.18
14.38
14.56
14.90
15.59
16.67
17.99
19.30
20.41
21.26
21.94
22.61
23.34
24.07
24.57
24.58
23.89
22.42
20.33
17.93
15.59
13.60
12.09
10.95
9.94
8.75
7.14
4.94
2.10
-1.32
-5.25
-9.54
-14.10
-18.81
-23.55
-28.16
-32.51
-36.36
-39.57
-42.04
-43.82
-45.07
-46.05
-46.97
-48.01
-49.22
-50.46
-51.43
-51.71
-50.91
-48.83
-45.67
-42.10
-39.02
-37.33
-37.53
-39.42
-42.21
-44.72
-45.92
-45.21
-42.59
-38.60
-33.98
-29.29
-24.59
-19.45
-13.11
-5.00
4.95
16.10
27.21
36.81
43.62
46.84
46.36
42.82
37.47
32.07
28.51
28.29
32.00
39.05
47.75
55.91
61.63
64.04
63.41
60.87
57.72
54.85
52.42
50.07
47.27
43.79
39.70
35.37
31.08
26.93
22.74
18.24
13.30
8.13
3.18
-0.99
-4.01
-5.91
-7.04
-7.97
-9.20
-10.93
-13.04
-15.14
-16.88
-18.02
-18.59
-18.78
-18.82
-18.82
-18.77
-18.51
-17.89
-16.88
-15.52
-14.00
-12.53
-11.33
-10.57
-10.31
-10.47
-10.82
-11.03
-10.74
-9.76
-8.10
-6.05
-4.03
-2.45
-1.44
-0.92
-0.60
-0.22
0.33
0.99
1.60
2.07
2.39
2.63
2.82
2.88
2.63
1.96
0.87
-0.48
-1.83
-2.93
-3.71
-4.20
-4.57
-5.01
-5.65
-6.55
-7.69
-8.97
-10.30
-11.58
-12.71
-13.63
-14.27
-14.55
-14.45
-13.97
-13.17
-12.16
-11.03
-9.81
-8.52
-7.07
-5.42
-3.61
-1.73
0.08
1.65
2.91
3.85
4.48
4.84
4.97
4.84
4.50
4.00
3.46
3.04
2.87
3.01
3.42
3.96
4.50
4.93
5.22
5.35
5.34
5.20
4.91
4.52
4.01
3.47
2.89
2.26
1.54
0.65
-0.46
-1.74
-3.16
-4.66
-6.21
-7.86
-9.57
-11.21
-12.56
-13.35
-13.39
-12.63
-11.20
-9.34
-7.30
-5.26
-3.38
-1.76
-0.44
0.54
1.24
1.76
2.26
2.81
3.43
4.01
4.40
4.51
4.32
3.94
3.50
3.14
2.93
2.90
3.07
3.48
4.13
4.94
5.73
6.30
6.49
6.29
5.85
5.36
5.02
4.86
4.75
4.52
3.96
2.94
1.45
-0.34
-2.21
-3.84
-5.00
-5.60
-5.71
-5.54
-5.29
-5.13
-5.09
-5.19
-5.41
-5.73
-6.12
-6.40
-6.35
-5.72
-4.43
-2.61
-0.58
1.25
2.63
3.45
3.87
4.11
4.38
4.79
5.33
5.93
6.52
7.05
7.49
7.87
8.16
8.30
8.19
7.75
6.97
5.92
4.80
3.84
3.25
3.08
3.25
3.56
3.75
3.67
3.26
2.62
1.91
1.25
0.67
0.09
-0.65
-1.67
-3.02
-4.64
-6.36
-7.95
-9.22
-10.09
-10.58
-10.77
-10.77
-10.64
-10.32
-9.69
-8.67
-7.25
-5.55
-3.78
-2.17
-0.83
0.27
1.20
2.08
2.96
3.83
4.62
5.34
6.03
6.81
7.77
8.96
10.33
11.79
13.25
14.66
16.03
17.36
18.64
19.74
20.57
21.07
21.29
21.42
21.66
22.21
23.08
24.18
25.28
26.18
26.75
27.00
27.07
27.17
27.47
27.96
28.49
28.69
28.18
26.67
24.04
20.48
16.28
11.82
7.42
3.19
-0.96
-5.31
-10.19
-15.89
-22.44
-29.60
-36.85
-43.56
-49.17
-53.33
-56.02
-57.45
-58.00
-58.03
-57.73
-57.17
-56.25
-54.87
-52.98
-50.65
-48.04
-45.30
-42.50
-39.57
-36.34
-32.63
-28.44
-23.95
-19.50
-15.43
-11.78
-8.24
-4.12
1.31
8.50
17.26
26.75
35.80
43.33
48.74
51.99
53.49
53.94
54.14
54.89
56.85
60.28
64.84
69.62
73.38
75.01
73.92
70.28
64.77
58.22
51.36
44.59
38.11
32.06
26.53
21.60
17.20
13.23
9.53
6.05
2.76
-0.28
-3.06
-5.54
-7.71
-9.50
-10.89
-11.83
-12.41
-12.78
-13.17
-13.74
-14.52
-15.42
-16.25
-16.85
-17.08
-16.94
-16.51
-15.92
-15.26
-14.59
-13.91
-13.18
-12.38
-11.56
-10.83
-10.36
-10.29
-10.61
-11.21
-11.85
-12.28
-12.41
-12.23
-11.86
-11.45
-11.10
-10.87
-10.81
-10.94
-11.28
-11.80
-12.43
-12.99
-13.36
-13.47
-13.33
-12.99
-12.47
-11.76
-10.78
-9.51
-7.99
-6.34
-4.78
-3.44
-2.42
-1.70
-1.23
-0.91
-0.62
-0.32
0.04
0.43
0.83
1.18
1.49
1.76
2.08
2.52
3.12
3.85
4.64
5.35
5.87
6.09
5.99
5.60
5.07
4.53
4.13
3.94
3.87
3.79
3.56
3.11
2.46
1.68
0.85
-0.03
-0.94
-1.89
-2.85
-3.80
-4.69
-5.57
-6.50
-7.49
-8.47
-9.26
-9.65
-9.55
-9.00
-8.17
-7.29
-6.54
-5.95
-5.46
-4.98
-4.44
-3.85
-3.30
-2.85
-2.54
-2.35
-2.19
-1.99
-1.72
-1.38
-0.95
-0.43
0.19
0.90
1.63
2.36
3.05
3.77
4.59
5.51
6.41
7.09
7.30
6.94
6.13
5.13
4.25
3.71
3.46
3.33
3.08
2.59
1.88
1.11
0.44
-0.09
-0.56
-1.11
-1.88
-2.92
-4.17
-5.53
-6.91
-8.27
-9.54
-10.65
-11.45
-11.77
-11.54
-10.79
-9.68
-8.39
-7.05
-5.74
-4.45
-3.18
-1.92
-0.72
0.37
1.35
2.30
3.25
4.26
5.25
6.13
6.79
7.20
7.40
7.50
7.62
7.83
8.16
8.54
8.87
9.06
9.00
8.69
8.22
7.76
7.43
7.29
7.24
7.08
6.66
5.92
4.94
3.86
2.78
1.77
0.83
-0.07
-0.91
-1.70
-2.48
-3.35
-4.39
-5.58
-6.83
-7.93
-8.74
-9.23
-9.45
-9.51
-9.48
-9.37
-9.10
-8.67
-8.02
-7.20
-6.26
-5.25
-4.19
-3.12
-2.04
-0.96
0.09
1.12
2.10
2.95
3.58
3.93
3.98
3.84
3.66
3.55
3.59
3.70
3.75
3.61
3.24
2.67
2.10
1.71
1.67
2.00
2.62
3.36
3.98
4.31
4.19
3.62
2.66
1.43
0.10
-1.20
-2.43
-3.60
-4.75
-5.92
-7.07
-8.08
-8.82
-9.16
-9.08
-8.63
-7.88
-6.85
-5.56
-4.04
-2.36
-0.72
0.64
1.52
1.88
1.79
1.51
1.27
1.26
1.56
2.12
2.87
3.68
4.43
5.07
5.56
5.90
6.17
6.44
6.75
7.13
7.57
7.95
8.20
8.25
8.05
7.64
7.07
6.37
5.58
4.69
3.65
2.44
1.05
-0.42
-1.88
-3.19
-4.26
-5.04
-5.57
-5.95
-6.26
-6.56
-6.81
-6.95
-6.89
-6.61
-6.13
-5.51
-4.86
-4.24
-3.68
-3.20
-2.76
-2.30
-1.76
-1.09
-0.28
0.61
1.45
2.08
2.38
2.35
2.09
1.80
1.66
1.76
2.07
2.46
2.75
2.80
2.58
2.18
1.74
1.38
1.14
1.00
0.86
0.63
0.31
-0.05
-0.31
-0.33
0.02
0.80
2.03
3.65
5.50
7.28
8.59
9.07
8.48
6.83
4.39
1.61
-1.10
-3.43
-5.26
-6.64
-7.60
-8.13
-8.19
-7.78
-6.94
-5.82
-4.54
-3.22
-1.89
-0.56
0.73
1.91
2.93
3.78
4.56
5.34
6.18
7.02
7.75
8.33
8.83
9.39
10.11
10.96
11.76
12.28
12.35
12.04
11.56
11.19
11.10
11.27
11.47
11.44
11.00
10.07
8.70
7.03
5.18
3.32
1.58
0.12
-0.95
-1.61
-1.91
-1.99
-2.07
-2.27
-2.70
-3.34
-4.13
-4.97
-5.68
-6.09
-6.03
-5.44
-4.40
-3.14
-1.93
-0.98
-0.29
0.26
0.83
1.57
2.45
3.41
4.34
5.21
6.00
6.72
7.33
7.79
8.11
8.34
8.61
9.00
9.46
9.84
9.94
9.63
8.92
8.01
7.08
6.27
5.61
5.06
4.56
4.07
3.64
3.24
2.85
2.36
1.67
0.75
-0.33
-1.40
-2.34
-3.07
-3.63
-4.11
-4.63
-5.19
-5.75
-6.20
-6.45
-6.43
-6.09
-5.45
-4.47
-3.17
-1.64
-0.04
1.42
2.55
3.28
3.68
3.93
4.17
4.45
4.69
4.79
4.65
4.31
3.86
3.42
3.05
2.72
2.39
2.00
1.62
1.33
1.23
1.36
1.65
1.98
2.23
2.28
2.13
1.86
1.60
1.43
1.36
1.29
1.10
0.72
0.16
-0.51
-1.24
-1.96
-2.67
-3.30
-3.80
-4.07
-4.12
-4.04
-4.03
-4.30
-4.98
-6.00
-7.13
-8.13
-8.74
-8.83
-8.45
-7.68
-6.72
-5.76
-4.92
-4.23
-3.65
-3.09
-2.49
-1.82
-1.12
-0.41
0.29
1.04
1.89
2.80
3.73
4.51
5.00
5.15
5.04
4.84
4.73
4.84
5.22
5.89
6.85
8.15
9.80
11.67
13.40
14.48
14.41
12.87
9.92
5.94
1.49
-2.91
-6.97
-10.69
-14.21
-17.75
-21.45
-25.35
-29.43
-33.61
-37.73
-41.49
-44.38
-45.81
-45.24
-42.33
-37.09
-29.90
-21.33
-12.00
-2.32
7.47
17.21
26.66
35.35
42.58
47.61
49.93
49.61
47.37
44.34
41.66
40.04
39.45
39.35
38.93
37.64
35.32
32.24
28.86
25.59
22.67
20.20
18.14
16.39
14.73
12.81
10.27
6.96
3.02
-1.20
-5.33
-9.25
-13.16
-17.37
-22.08
-27.17
-32.25
-36.97
-41.18
-45.13
-49.19
-53.53
-57.95
-61.95
-65.00
-66.86
-67.70
-67.87
-67.74
-67.40
-66.70
-65.41
-63.48
-61.02
-58.32
-55.57
-52.81
-49.99
-47.07
-44.17
-41.45
-39.01
-36.67
-33.95
-30.39
-25.87
-21.02
-17.08
-15.51
-17.28
-22.33
-29.50
-36.95
-42.92
-46.31
-47.06
-45.89
-43.91
-42.23
-41.68
-42.77
-45.65
-50.05
-55.19
-59.94
-63.10
-63.81
-61.89
-57.76
-52.38
-46.94
-42.76
-41.24
-43.76
-51.31
-63.83
-79.69
-95.63
-107.56
-111.78
-106.25
-91.09
-68.38
-41.22
-12.94
13.47
35.72
52.34
63.06
69.17
73.42
79.50
90.65
108.31
131.13
155.22
175.48
187.58
189.60
182.73
170.71
158.18
148.90
144.48
144.09
145.23
145.04
141.56
134.23
123.71
111.12
97.43
83.06
67.95
51.78
34.15
14.64
-7.24
-31.81
-58.90
-87.42
-115.12
-138.85
-155.35
-162.18
-158.54
-145.47
-125.52
-102.01
-78.24
-56.89
-39.60
-26.91
-18.35
-12.73
-8.60
-4.64
0.04
5.82
12.50
19.48
25.78
30.20
31.49
28.76
21.94
12.05
1.09
-8.46
-14.42
-15.63
-12.34
-6.08
0.84
6.12
8.17
6.59
2.14
-3.77
-9.77
-15.13
-19.90
-24.68
-29.96
-35.66
-40.98
-44.77
-46.07
-44.58
-40.69
-35.20
-28.84
-22.01
-14.78
-7.11
0.78
8.33
14.74
19.32
21.78
22.35
21.68
20.61
19.79
19.51
19.68
20.05
20.40
20.75
21.35
22.53
24.47
27.06
29.88
32.43
34.24
35.11
35.04
34.13
32.46
30.02
26.74
22.60
17.66
12.15
6.29
0.44
-5.03
-9.66
-12.96
-14.49
-14.05
-11.68
-7.75
-2.83
2.42
7.43
11.79
15.30
17.92
19.75
20.92
21.57
21.80
21.65
21.26
20.77
20.40
20.35
20.67
21.20
21.65
21.71
21.18
20.08
18.50
16.59
14.39
11.86
8.92
5.62
2.15
-1.21
-4.23
-6.91
-9.43
-12.09
-15.03
-18.01
-20.43
-21.47
-20.37
-16.75
-10.81
-3.28
4.81
12.45
18.96
24.07
27.88
30.68
32.70
34.06
34.75
34.76
34.19
33.33
32.55
32.21
32.46
33.18
34.02
34.64
34.72
34.13
32.89
31.08
28.77
26.05
23.01
19.79
16.60
13.51
10.53
7.54
4.28
0.54
-3.86
-8.86
-14.19
-19.34
-23.65
-26.46
-27.29
-25.99
-22.85
-18.38
-13.19
-7.81
-2.56
2.40
6.98
11.03
14.41
17.00
18.80
19.96
20.73
21.37
22.07
22.93
23.97
25.17
26.45
27.75
28.97
30.05
30.95
31.64
32.10
32.27
32.12
31.76
31.44
31.53
32.40
34.27
36.99
40.21
43.43
46.35
48.91
51.30
53.85
56.85
60.58
65.35
71.49
79.36
89.28
101.48
116.17
133.61
154.10
177.60
203.30
229.17
251.89
267.48
272.31
264.27
243.44
212.11
173.90
132.65
91.44
52.05
15.08
-19.59
-52.34
-83.55
-113.61
-142.87
-171.43
-198.90
-224.14
-245.32
-260.44
-267.96
-267.34
-259.21
-245.04
-226.63
-205.52
-182.80
-159.19
-135.21
-111.40
-88.35
-66.56
-46.30
-27.58
-10.18
6.21
21.87
37.09
52.20
67.73
84.38
102.81
123.13
144.48
164.68
180.40
187.91
184.05
167.18
137.73
98.06
51.80
3.00
-44.66
-88.23
-125.57
-155.16
-176.00
-187.64
-190.34
-185.26
-174.31
-159.88
-144.30
-129.37
-116.05
-104.56
-94.63
-85.90
-78.18
-71.55
-66.19
-62.24
-59.61
-57.97
-56.75
-55.27
-52.87
-49.03
-43.52
-36.42
-28.08
-19.07
-10.00
-1.36
6.52
13.49
19.51
24.60
28.82
32.22
34.89
36.91
38.40
39.48
40.26
40.83
41.24
41.51
41.59
41.41
40.94
40.20
39.22
38.07
36.74
35.18
33.26
30.84
27.80
24.12
19.89
15.17
10.09
4.68
-1.04
-6.98
-12.98
-18.80
-24.15
-28.83
-32.81
-36.17
-39.10
-41.66
-43.72
-44.92
-44.83
-43.09
-39.60
-34.58
-28.49
-21.92
-15.42
-9.40
-4.09
0.45
4.25
7.41
10.00
12.06
13.64
14.82
15.71
16.45
17.13
17.77
18.32
18.70
18.88
18.92
18.98
19.24
19.82
20.71
21.72
22.56
22.89
22.48
21.23
19.26
16.79
14.09
11.36
8.71
6.19
3.91
1.98
0.43
-0.85
-2.23
-4.21
-7.24
-11.40
-16.25
-20.85
-24.01
-24.72
-22.50
-17.53
-10.50
-2.35
6.05
14.07
21.38
27.82
33.34
38.01
41.94
45.41
48.78
52.48
56.92
62.29
68.65
75.81
83.53
91.54
99.66
107.80
115.90
123.98
132.06
140.29
149.06
158.89
170.20
182.95
196.34
208.76
218.22
222.80
221.26
213.21
199.17
180.51
159.30
138.15
119.55
105.28
95.58
88.86
82.08
71.66
54.85
30.80
0.99
-31.00
-60.30
-81.95
-92.11
-89.11
-73.94
-49.99
-22.06
5.21
28.74
47.82
63.89
79.56
97.33
118.52
142.77
168.14
191.62
209.97
220.58
222.17
215.11
201.26
183.29
163.80
144.63
126.61
109.73
93.69
78.28
63.57
49.71
36.60
23.74
10.23
-4.83
-21.94
-40.83
-60.50
-79.56
-96.86
-111.99
-125.58
-139.07
-154.16
-172.27
-194.19
-220.10
-249.44
-280.81
-311.64
-338.19
-356.16
-361.96
-354.11
-334.01
-305.42
-272.78
-239.11
-204.81
-167.93
-125.98
-78.00
-25.81
26.46
74.23
114.54
147.14
174.10
198.31
221.68
244.16
263.75
277.73
283.87
281.36
270.92
254.29
233.49
210.18
185.50
160.16
134.78
110.05
86.82
65.81
47.26
30.79
15.46
0.17
-15.84
-32.69
-50.00
-67.26
-84.31
-101.49
-119.40
-138.40
-158.17
-177.44
-194.07
-205.40
-208.81
-202.52
-186.32
-162.06
-133.69
-106.41
-85.32
-73.97
-73.42
-82.25
-97.37
-115.29
-133.11
-148.95
-161.67
-170.55
-175.03
-174.90
-170.57
-163.30
-154.95
-147.45
-142.16
-139.36
-138.34
-137.74
-136.40
-133.76
-130.08
-126.19
-122.93
-120.84
-119.92
-119.82
-120.06
-120.20
-119.93
-119.05
-117.49
-115.36
-113.03
-110.98
-109.65
-109.11
-108.94
-108.15
-105.55
-100.03
-90.76
-77.41
-60.04
-39.11
-15.42
9.85
35.22
58.96
79.42
95.35
106.14
111.91
113.25
110.92
105.54
97.55
87.40
75.84
64.04
53.36
44.85
38.77
34.41
30.47
25.77
19.88
13.46
7.81
4.22
3.24
4.53
7.11
9.82
11.96
13.30
13.94
14.02
13.43
11.84
8.93
4.55
-1.06
-7.33
-13.55
-19.08
-23.53
-26.89
-29.37
-31.22
-32.56
-33.25
-33.04
-31.78
-29.67
-27.32
-25.55
-25.02
-25.87
-27.64
-29.45
-30.38
-29.90
-28.12
-25.65
-23.46
-22.45
-23.26
-26.04
-30.47
-35.80
-41.01
-45.06
-47.11
-46.76
-44.02
-39.30
-33.12
-26.03
-18.54
-11.12
-4.27
1.52
5.88
8.59
9.65
9.23
7.52
4.80
1.36
-2.23
-5.25
-6.89
-6.62
-4.49
-1.33
1.54
2.82
1.82
-1.15
-4.98
-8.16
-9.53
-8.56
-5.43
-0.71
4.94
10.83
16.20
20.11
21.54
19.66
14.33
6.33
-2.76
-10.96
-16.54
-18.55
-17.06
-13.05
-8.06
-3.60
-0.76
0.12
-0.56
-1.94
-3.12
-3.50
-3.05
-2.34
-2.16
-3.18
-5.59
-8.97
-12.42
-15.10
-16.47
-16.71
-16.52
-16.82
-18.34
-21.25
-25.09
-28.98
-31.98
-33.41
-33.10
-31.40
-29.00
-26.63
-24.78
-23.60
-22.92
-22.51
-22.24
-22.21
-22.51
-23.18
-24.08
-25.07
-26.18
-27.62
-29.53
-31.58
-32.67
-31.19
-25.55
-14.97
0.02
17.73
35.91
52.53
66.37
76.98
84.42
88.72
89.63
86.82
80.13
69.97
57.29
43.40
29.58
16.70
5.12
-5.14
-14.12
-21.70
-27.57
-31.43
-33.13
-32.91
-31.23
-28.65
-25.68
-22.64
-19.76
-17.23
-15.17
-13.69
-12.75
-12.26
-12.03
-11.94
-11.91
-11.92
-11.93
-11.87
-11.71
-11.53
-11.58
-12.15
-13.39
-15.17
-16.97
-18.04
-17.77
-15.91
-12.71
-8.78
-4.85
-1.40
1.42
3.68
5.49
6.84
7.59
7.63
7.05
6.10
5.11
4.29
3.62
3.04
2.51
2.03
1.68
1.38
0.86
-0.23
-2.08
-4.53
-7.03
-8.90
-9.69
-9.43
-8.61
-7.89
-7.78
-8.34
-9.25
-9.96
-10.13
-9.78
-9.30
-9.27
-10.15
-12.07
-14.74
-17.56
-19.84
-21.05
-21.03
-19.94
-18.15
-16.03
-13.72
-11.18
-8.30
-5.10
-1.86
0.94
2.78
3.38
2.77
1.24
-0.79
-2.90
-4.73
-6.00
-6.31
-5.33
-2.84
1.06
5.90
10.95
15.44
18.68
20.18
19.71
17.17
12.76
6.81
-0.03
-7.06
-13.50
-18.71
-22.31
-24.13
-24.30
-23.21
-21.54
-20.13
-19.77
-21.03
-23.99
-28.34
-33.55
-39.16
-44.88
-50.54
-55.85
-60.26
-62.95
-63.08
-60.25
-54.74
-47.54
-40.02
-33.39
-28.22
-24.18
-20.33
-15.58
-9.23
-1.26
7.81
17.33
26.85
36.22
45.43
54.25
62.12
68.16
71.58
72.01
69.67
65.27
59.78
54.04
48.71
44.13
40.25
36.73
33.03
28.63
23.25
17.03
10.49
4.25
-1.33
-6.33
-11.29
-16.90
-23.62
-31.49
-40.10
-48.86
-57.24
-64.85
-71.37
-76.37
-79.25
-79.35
-76.36
-70.55
-62.91
-54.88
-47.87
-42.80
-39.88
-38.75
-38.73
-39.10
-39.21
-38.49
-36.34
-32.27
-26.18
-18.66
-11.13
-5.39
-2.93
-4.11
-7.60
-10.82
-10.86
-5.89
3.98
16.57
28.66
37.29
41.05
40.44
37.36
33.95
31.66
30.75
30.60
30.36
29.55
28.29
26.96
25.70
24.16
21.57
17.30
11.36
4.71
-0.93
-3.74
-2.51
2.95
11.77
22.47
33.52
43.85
52.98
60.89
67.74
73.54
78.02
80.76
81.35
79.61
75.82
70.67
65.09
60.03
56.09
53.41
51.71
50.41
48.98
47.15
44.95
42.64
40.50
38.63
36.77
34.40
30.91
25.88
19.39
12.04
4.82
-1.31
-5.85
-9.00
-11.50
-14.25
-17.68
-21.53
-24.83
-26.51
-25.83
-22.80
-18.09
-12.56
-6.92
-1.45
3.82
8.88
13.48
17.21
19.64
20.64
20.52
19.91
19.58
20.05
21.50
23.69
26.09
28.14
29.54
30.24
30.47
30.50
30.39
29.91
28.62
26.24
22.79
18.73
14.73
11.34
8.71
6.50
4.14
1.11
-2.74
-7.15
-11.59
-15.51
-18.48
-20.27
-20.83
-20.11
-18.04
-14.59
-9.85
-4.11
2.12
8.14
13.31
17.11
19.34
20.08
19.65
18.46
16.84
15.02
13.11
11.16
9.26
7.51
6.10
5.18
4.90
5.28
6.17
7.22
8.07
8.44
8.31
7.92
7.61
7.57
7.67
7.40
6.09
3.25
-1.19
-6.73
-12.40
-17.05
-19.67
-19.63
-16.88
-11.91
-5.55
1.28
7.82
13.62
18.49
22.40
25.29
27.03
27.59
27.10
25.95
24.68
23.84
23.78
24.55
25.95
27.71
29.62
31.62
33.81
36.33
39.28
42.55
45.84
48.79
51.16
53.05
54.96
57.57
61.31
65.99
70.60
73.62
73.59
69.61
61.68
50.65
37.86
24.89
13.26
4.23
-1.43
-3.82
-4.05
-4.14
-6.35
-12.40
-22.67
-36.02
-50.21
-62.70
-71.59
-76.05
-76.26
-72.83
-66.48
-57.75
-47.14
-35.53
-24.12
-14.27
-6.98
-2.53
-0.32
0.68
1.54
2.90
4.88
7.35
10.13
13.15
16.38
19.63
22.57
24.80
26.09
26.47
26.09
24.98
22.95
19.55
14.37
7.35
-1.11
-10.15
-18.82
-26.34
-32.32
-36.82
-40.06
-42.33
-43.83
-44.67
-44.96
-44.93
-44.87
-45.02
-45.41
-45.85
-45.87
-45.05
-43.06
-39.88
-35.77
-31.22
-26.89
-23.42
-21.37
-21.13
-22.80
-26.13
-30.53
-35.19
-39.23
-41.90
-42.77
-41.69
-38.82
-34.49
-29.12
-23.10
-16.77
-10.38
-4.19
1.46
6.10
9.20
10.42
9.80
7.94
5.88
4.66
4.91
6.48
8.57
10.13
10.42
9.42
7.73
6.18
5.36
5.38
5.96
6.82
7.90
9.34
11.26
13.37
14.93
15.12
13.42
10.07
5.96
2.30
-0.03
-0.80
-0.50
0.06
0.27
0.00
-0.40
-0.46
-0.01
0.62
0.75
-0.29
-2.77
-6.31
-10.02
-12.81
-13.76
-12.36
-8.65
-3.06
3.64
10.61
17.11
22.63
27.01
30.33
32.78
34.41
35.11
34.71
33.24
31.08
28.86
27.18
26.26
25.82
25.28
24.17
22.41
20.38
18.67
17.71
17.50
17.69
17.78
17.41
16.39
14.65
11.99
8.11
2.59
-4.77
-13.79
-23.88
-34.08
-43.38
-50.97
-56.50
-60.09
-62.35
-64.09
-66.05
-68.64
-71.79
-74.96
-77.20
-77.34
-74.22
-67.15
-56.22
-42.51
-27.89
-14.44
-3.74
3.67
8.33
11.39
13.98
16.64
19.34
21.79
23.90
25.84
28.00
30.51
33.05
34.92
35.44
34.32
31.85
28.87
26.39
25.18
25.52
27.16
29.43
31.45
32.42
31.80
29.48
25.76
21.28
16.83
13.10
10.50
9.03
8.34
7.89
7.15
5.87
4.12
2.23
0.56
-0.67
-1.60
-2.56
-3.91
-5.78
-7.93
-9.77
-10.57
-9.67
-6.70
-1.75
4.77
12.01
18.93
24.50
27.97
29.00
27.74
24.73
20.61
15.90
10.89
5.75
0.63
-4.08
-7.91
-10.38
-11.27
-10.82
-9.62
-8.39
-7.67
-7.48
-7.51
-7.24
-6.28
-4.67
-2.96
-1.82
-1.93
-3.53
-6.28
-9.43
-12.11
-13.70
-14.02
-13.46
-12.73
-12.59
-13.58
-15.82
-19.02
-22.67
-26.15
-28.89
-30.38
-30.19
-28.03
-23.81
-17.70
-10.30
-2.46
4.83
10.76
14.86
17.13
17.97
17.88
17.34
16.58
15.64
14.48
13.15
11.82
10.78
10.31
10.45
11.05
11.76
12.21
12.12
11.39
10.02
8.09
5.74
3.08
0.25
-2.60
-5.36
-7.95
-10.37
-12.58
-14.50
-16.00
-16.93
-17.30
-17.29
-17.23
-17.36
-17.70
-17.85
-17.21
-15.24
-11.74
-7.07
-1.93
2.84
6.71
9.52
11.50
12.95
14.08
14.90
15.32
15.24
14.76
14.04
13.29
12.62
12.01
11.37
10.69
10.07
9.71
9.78
10.21
10.67
10.64
9.65
7.54
4.57
1.31
-1.61
-3.84
-5.38
-6.56
-7.75
-9.30
-11.29
-13.69
-16.40
-19.27
-22.06
-24.35
-25.67
-25.56
-23.80
-20.58
-16.39
-11.92
-7.88
-4.75
-2.84
-2.28
-2.98
-4.69
-7.01
-9.45
-11.62
-13.39
-14.91
-16.57
-18.73
-21.39
-24.20
-26.53
-27.87
-28.05
-27.46
-26.89
-27.22
-29.06
-32.55
-37.23
-42.08
-45.64
-46.39
-43.06
-35.30
-23.92
-10.99
0.76
8.73
11.47
9.07
3.14
-3.89
-9.65
-12.55
-12.08
-8.64
-3.14
3.45
10.28
16.79
22.57
27.32
30.76
32.67
32.98
31.86
29.80
27.46
25.50
24.35
23.97
23.93
23.64
22.63
20.87
18.78
17.00
16.03
15.91
16.16
16.05
14.95
12.66
9.52
6.20
3.36
1.31
-0.09
-1.37
-3.18
-6.01
-10.08
-15.18
-20.76
-25.94
-29.80
-31.54
-30.74
-27.47
-22.38
-16.47
-10.74
-5.95
-2.38
0.15
2.04
3.73
5.49
7.37
9.29
11.15
12.90
14.57
16.21
17.84
19.42
20.82
21.86
22.36
22.27
21.67
20.81
19.97
19.29
18.67
17.78
16.18
13.58
10.03
5.83
1.54
-2.39
-5.73
-8.49
-10.81
-12.87
-14.75
-16.50
-18.16
-19.73
-21.18
-22.27
-22.68
-21.96
-19.83
-16.31
-11.73
-6.74
-1.98
2.14
5.58
8.54
11.34
14.12
16.77
19.03
20.59
21.38
21.52
21.33
21.09
20.97
20.98
20.99
20.90
20.65
20.33
20.05
19.89
19.82
19.71
19.31
18.38
16.72
14.31
11.32
8.06
4.92
2.10
-0.34
-2.61
-4.96
-7.63
-10.73
-14.21
-17.95
-21.76
-25.37
-28.41
-30.34
-30.63
-28.86
-25.02
-19.52
-13.14
-6.68
-0.74
4.45
8.95
12.97
16.63
19.85
22.43
24.14
24.89
24.87
24.44
24.01
23.94
24.36
25.16
26.10
26.86
27.16
26.82
25.80
24.15
22.08
19.82
17.58
15.50
13.58
11.73
9.87
8.01
6.25
4.77
3.66
2.89
2.29
1.68
0.90
-0.09
-1.25
-2.63
-4.41
-6.87
-10.27
-14.60
-19.41
-23.75
-26.52
-26.77
-24.14
-18.99
-12.24
-4.96
2.00
8.21
13.59
18.22
22.10
25.09
27.06
28.02
28.21
28.02
27.79
27.74
27.89
28.09
28.18
28.00
27.45
26.45
25.03
23.30
21.59
20.31
19.88
20.45
21.79
23.27
24.04
23.41
21.14
17.56
13.42
9.55
6.46
4.10
2.00
-0.49
-3.75
-7.82
-12.33
-16.85
-21.04
-24.85
-28.39
-31.80
-35.16
-38.48
-41.86
-45.37
-49.01
-52.50
-55.12
-55.86
-53.78
-48.43
-40.10
-29.77
-18.76
-8.29
0.81
8.18
13.73
17.53
19.67
20.37
19.97
19.02
18.08
17.55
17.61
18.14
18.89
19.63
20.24
20.77
21.34
22.01
22.70
23.27
23.50
23.23
22.37
20.94
19.01
16.74
14.31
11.94
9.84
8.11
6.69
5.32
3.64
1.35
-1.63
-5.06
-8.47
-11.36
-13.41
-14.64
-15.39
-16.26
-17.83
-20.43
-24.02
-28.09
-31.80
-34.20
-34.53
-32.38
-27.89
-21.60
-14.33
-6.97
-0.26
5.29
9.37
11.94
13.10
13.09
12.30
11.16
10.10
9.45
9.35
9.75
10.47
11.30
12.11
12.92
13.83
14.97
16.38
17.98
19.44
20.42
20.53
19.51
17.31
14.11
10.24
6.14
2.23
-1.29
-4.41
-7.32
-10.24
-13.23
-16.19
-18.79
-20.71
-21.84
-22.31
-22.52
-23.00
-24.13
-26.08
-28.70
-31.58
-34.12
-35.74
-35.97
-34.53
-31.43
-26.89
-21.25
-14.92
-8.29
-1.79
4.09
8.86
12.16
13.86
14.17
13.60
12.74
12.11
11.99
12.47
13.42
14.68
16.05
17.37
18.50
19.36
19.90
20.11
20.04
19.67
18.99
17.94
16.49
14.72
12.76
10.76
8.84
6.95
4.93
2.55
-0.28
-3.50
-6.90
-10.19
-13.13
-15.60
-17.61
-19.27
-20.78
-22.36
-24.26
-26.67
-29.55
-32.57
-34.97
-35.85
-34.37
-30.19
-23.66
-15.68
-7.42
0.11
6.37
11.26
14.94
17.63
19.39
20.19
20.06
19.20
18.04
17.03
16.42
16.20
16.13
15.95
15.52
14.90
14.26
13.83
13.72
13.90
14.30
14.76
15.15
15.26
14.86
13.75
11.93
9.63
7.23
5.09
3.36
1.87
0.20
-2.05
-5.03
-8.53
-12.05
-15.06
-17.24
-18.64
-19.51
-20.28
-21.35
-23.04
-25.49
-28.67
-32.23
-35.50
-37.62
-37.68
-35.07
-29.74
-22.18
-13.33
-4.31
3.89
10.61
15.54
18.67
20.20
20.40
19.64
18.29
16.74
15.33
14.36
14.01
14.30
15.11
16.19
17.24
18.05
18.54
18.81
19.00
19.19
19.23
18.80
17.50
15.17
12.02
8.57
5.52
3.32
1.99
1.14
0.13
-1.53
-3.95
-6.85
-9.64
-11.82
-13.14
-13.72
-13.93
-14.29
-15.29
-17.36
-20.70
-25.24
-30.54
-35.76
-39.80
-41.55
-40.30
-35.96
-29.11
-20.80
-12.15
-4.03
3.05
8.91
13.52
16.89
18.99
19.90
19.80
19.03
17.96
16.88
15.98
15.25
14.65
14.13
13.69
13.39
13.31
13.47
13.83
14.29
14.66
14.72
14.31
13.32
11.83
10.01
8.12
6.45
5.10
4.01
2.96
1.67
-0.06
-2.28
-4.84
-7.44
-9.85
-11.92
-13.69
-15.36
-17.10
-19.16
-21.64
-24.67
-28.24
-32.21
-36.17
-39.44
-41.21
-40.73
-37.64
-32.08
-24.66
-16.25
-7.73
0.18
7.00
12.47
16.46
18.93
19.96
19.75
18.58
16.81
14.83
13.01
11.60
10.71
10.24
10.01
9.88
9.77
9.78
10.03
10.46
10.75
10.40
8.97
6.34
2.81
-0.97
-4.28
-6.70
-8.20
-9.11
-9.85
-10.70
-11.71
-12.84
-13.99
-15.18
-16.49
-17.97
-19.60
-21.29
-23.06
-25.03
-27.46
-30.55
-34.19
-37.88
-40.78
-41.87
-40.39
-36.02
-29.01
-20.10
-10.28
-0.53
8.31
15.73
21.53
25.67
28.25
29.51
29.75
29.37
28.76
28.21
27.86
27.69
27.61
27.63
27.93
28.75
30.25
32.25
34.21
35.42
35.29
33.58
30.56
26.86
23.10
19.77
16.98
14.65
12.60
10.74
9.02
7.39
5.72
3.81
1.46
-1.44
-4.93
-8.98
-13.56
-18.66
-24.20
-29.91
-35.21
-39.21
-40.94
-39.68
-35.20
-28.00
-19.09
-9.75
-1.10
6.14
11.73
15.78
18.53
20.22
21.02
21.04
20.42
19.36
18.11
16.97
16.24
16.12
16.66
17.68
18.78
19.48
19.42
18.49
16.90
15.01
13.18
11.55
10.06
8.53
6.70
4.45
1.81
-1.12
-4.20
-7.35
-10.55
-13.81
-17.13
-20.47
-23.76
-27.00
-30.26
-33.69
-37.42
-41.28
-44.76
-46.97
-46.92
-43.94
-37.91
-29.46
-19.69
-9.82
-0.84
6.67
12.58
16.96
19.99
21.86
22.73
22.82
22.41
21.77
21.12
20.59
20.21
19.94
19.70
19.44
19.11
18.69
18.16
17.52
16.71
15.68
14.38
12.77
10.87
8.74
6.42
3.94
1.29
-1.60
-4.76
-8.17
-11.70
-15.08
-18.03
-20.33
-22.05
-23.53
-25.32
-27.98
-31.69
-36.14
-40.42
-43.35
-43.84
-41.31
-35.83
-28.08
-19.10
-9.93
-1.36
6.12
12.28
17.00
20.20
21.87
22.11
21.26
19.87
18.55
17.78
17.79
18.46
19.50
20.52
21.28
21.75
22.04
22.28
22.53
22.73
22.72
22.35
21.54
20.28
18.69
16.89
15.08
13.36
11.80
10.22
8.35
5.84
2.43
-1.85
-6.76
-11.83
-16.58
-20.66
-24.03
-26.95
-29.90
-33.37
-37.61
-42.42
-47.11
-50.61
-51.79
-49.83
-44.43
-36.02
-25.48
-14.00
-2.67
7.63
16.30
23.04
27.79
30.70
32.04
32.18
31.52
30.47
29.39
28.55
28.07
27.88
27.84
27.74
27.53
27.33
27.42
28.03
29.11
30.28
30.90
30.35
28.31
24.99
21.01
17.12
13.92
11.59
9.89
8.32
6.36
3.70
0.33
-3.58
-7.74
-11.86
-15.72
-19.18
-22.20
-24.94
-27.73
-31.01
-35.16
-40.24
-45.76
-50.74
-53.85
-54.02
-50.68
-44.05
-35.00
-24.74
-14.38
-4.72
3.78
10.95
16.74
21.14
24.16
25.87
26.43
26.18
25.56
24.96
24.70
24.88
25.39
25.95
26.29
26.19
25.62
24.65
23.47
22.27
21.16
20.18
19.26
18.22
16.82
14.90
12.47
9.71
6.93
4.40
2.25
0.42
-1.28
-3.09
-5.16
-7.55
-10.21
-13.06
-15.95
-18.79
-21.50
-24.08
-26.66
-29.46
-32.74
-36.71
-41.39
-46.49
-51.36
-55.03
-56.39
-54.58
-49.23
-40.68
-29.92
-18.21
-6.79
3.46
12.09
18.91
23.84
26.86
28.04
27.63
26.17
24.32
22.76
21.96
22.09
22.99
24.36
25.86
27.26
28.50
29.58
30.54
31.30
31.69
31.46
30.39
28.41
25.64
22.39
18.99
15.67
12.56
9.61
6.77
3.95
1.20
-1.45
-3.96
-6.38
-8.78
-11.29
-13.97
-16.74
-19.46
-21.94
-24.14
-26.17
-28.44
-31.43
-35.47
-40.59
-46.18
-51.19
-54.30
-54.37
-50.77
-43.63
-33.83
-22.67
-11.55
-1.60
6.55
12.76
17.24
20.34
22.36
23.55
24.01
23.86
23.32
22.66
22.14
21.92
21.98
22.13
22.18
22.00
21.67
21.39
21.40
21.75
22.27
22.57
22.20
20.91
18.67
15.79
12.74
9.96
7.74
6.11
4.89
3.72
2.23
0.05
-2.95
-6.67
-10.73
-14.63
-17.93
-20.45
-22.39
-24.29
-26.86
-30.62
-35.64
-41.42
-46.89
-50.73
-51.75
-49.25
-43.24
-34.44
-24.03
-13.28
-3.20
5.59
12.81
18.39
22.31
24.59
25.38
24.99
23.90
22.69
21.79
21.39
21.43
21.69
21.93
22.02
21.96
21.87
21.91
22.14
22.59
23.08
23.36
23.10
22.03
20.01
17.09
13.55
9.77
6.10
2.83
-0.02
-2.55
-5.00
-7.56
-10.34
-13.31
-16.32
-19.21
-21.84
-24.24
-26.53
-28.95
-31.80
-35.33
-39.72
-44.93
-50.67
-56.27
-60.70
-62.79
-61.51
-56.36
-47.61
-36.25
-23.71
-11.47
-0.60
8.34
15.28
20.42
24.01
26.31
27.59
28.18
28.44
28.72
29.14
29.70
30.23
30.59
30.80
30.94
31.12
31.36
31.50
31.33
30.69
29.54
28.03
26.35
24.62
22.84
20.89
18.62
15.95
13.01
10.04
7.36
5.12
3.32
1.68
-0.21
-2.68
-5.87
-9.57
-13.35
-16.71
-19.33
-21.23
-22.85
-24.86
-27.92
-32.42
-38.16
-44.36
-49.76
-52.94
-52.77
-48.73
-41.08
-30.83
-19.38
-8.14
1.84
10.03
16.36
20.98
24.14
26.00
26.66
26.28
25.14
23.70
22.43
21.71
21.72
22.35
23.39
24.49
25.43
26.03
26.28
26.24
25.98
25.52
24.78
23.68
22.14
20.18
17.98
15.79
13.85
12.27
11.03
9.92
8.68
7.00
4.65
1.48
-2.37
-6.61
-10.74
-14.31
-17.04
-19.06
-20.78
-22.82
-25.78
-29.97
-35.34
-41.45
-47.52
-52.55
-55.50
-55.53
-52.23
-45.70
-36.59
-25.94
-14.93
-4.59
4.31
11.35
16.43
19.70
21.48
22.11
21.99
21.45
20.76
20.07
19.48
18.95
18.47
18.02
17.63
17.40
17.40
17.59
17.80
17.71
17.01
15.44
12.95
9.70
5.99
2.19
-1.38
-4.48
-7.01
-9.02
-10.73
-12.46
-14.57
-17.30
-20.71
-24.60
-28.68
-32.61
-36.20
-39.48
-42.61
-45.83
-49.31
-53.26
-57.83
-63.18
-69.32
-75.94
-82.28
-87.10
-89.00
-86.72
-79.64
-68.09
-53.30
-37.15
-21.64
-8.42
1.71
8.77
13.52
17.00
20.10
23.29
26.52
29.52
32.02
34.10
36.12
38.58
41.78
45.59
49.39
52.36
53.95
54.06
53.05
51.47
49.63
47.44
44.44
40.22
34.69
28.32
22.04
16.78
13.12
11.04
9.96
8.97
7.26
4.44
0.66
-3.50
-7.34
-10.37
-12.50
-14.06
-15.64
-17.76
-20.76
-24.61
-29.05
-33.63
-37.81
-40.99
-42.50
-41.69
-38.03
-31.35
-22.00
-10.87
0.73
11.37
19.85
25.48
28.24
28.68
27.61
25.78
23.65
21.44
19.26
17.35
16.11
15.94
16.93
18.74
20.64
21.89
22.08
21.40
20.40
19.76
19.77
20.25
20.56
19.97
18.03
14.75
10.61
6.31
2.43
-0.82
-3.60
-6.35
-9.44
-12.97
-16.73
-20.28
-23.30
-25.78
-28.08
-30.82
-34.68
-40.06
-46.88
-54.48
-61.61
-66.67
-68.07
-64.77
-56.70
-44.85
-31.04
-17.31
-5.29
4.20
11.13
16.07
19.67
22.47
24.71
26.53
28.04
29.43
30.91
32.65
34.61
36.57
38.19
39.20
39.54
39.35
38.92
38.48
38.01
37.18
35.47
32.50
28.26
23.27
18.29
14.04
10.81
8.43
6.39
4.25
1.86
-0.58
-2.70
-4.27
-5.37
-6.35
-7.72
-9.87
-13.02
-17.21
-22.45
-28.72
-35.86
-43.35
-50.20
-55.04
-56.41
-53.42
-46.05
-35.33
-22.95
-10.69
0.12
8.96
15.96
21.64
26.42
30.39
33.38
35.18
35.79
35.58
35.28
35.61
37.09
39.70
43.03
46.35
49.03
50.70
51.38
51.31
50.70
49.63
47.99
45.66
42.57
38.81
34.63
30.33
26.26
22.69
19.73
17.32
15.17
12.86
10.03
6.57
2.72
-1.05
-4.31
-6.88
-8.93
-10.89
-13.20
-16.25
-20.29
-25.45
-31.68
-38.65
-45.56
-51.25
-54.35
-53.83
-49.44
-41.85
-32.43
-22.76
-13.99
-6.60
-0.40
5.08
10.13
14.76
18.70
21.66
23.58
24.66
25.27
25.68
25.93
25.82
25.08
23.58
21.45
19.11
17.08
15.74
15.14
14.94
14.60
13.57
11.64
9.00
6.15
3.71
2.11
1.39
1.30
1.32
0.97
-0.05
-1.83
-4.21
-6.94
-9.83
-12.93
-16.44
-20.78
-26.30
-33.10
-40.87
-48.77
-55.54
-59.78
-60.27
-56.38
-48.37
-37.34
-24.93
-12.82
-2.20
6.49
13.46
19.15
23.91
27.72
30.35
31.61
31.63
30.89
30.02
29.56
29.77
30.56
31.59
32.50
33.02
33.12
32.83
32.25
31.38
30.18
28.59
26.58
24.22
21.63
18.95
16.26
13.59
10.90
8.13
5.26
2.33
-0.69
-3.82
-7.12
-10.61
-14.21
-17.68
-20.80
-23.47
-25.82
-28.14
-30.88
-34.40
-38.88
-44.12
-49.58
-54.41
-57.61
-58.25
-55.72
-50.00
-41.59
-31.45
-20.71
-10.44
-1.44
5.80
11.08
14.51
16.35
17.00
16.98
16.81
17.04
18.14
20.42
23.89
28.17
32.53
36.16
38.43
39.23
38.89
37.95
36.81
35.50
33.69
31.00
27.31
22.81
18.08
13.72
10.20
7.64
5.90
4.64
3.53
2.33
0.93
-0.72
-2.63
-4.86
-7.49
-10.53
-13.88
-17.27
-20.37
-22.88
-24.77
-26.33
-28.10
-30.72
-34.62
-39.73
-45.39
-50.38
-53.20
-52.63
-48.09
-39.96
-29.45
-18.23
-7.84
0.67
6.92
11.16
14.00
16.06
17.89
19.81
21.96
24.31
26.60
28.49
29.61
29.76
28.99
27.59
25.95
24.43
23.23
22.33
21.57
20.78
19.80
18.56
17.10
15.47
13.68
11.78
9.86
8.05
6.46
5.14
3.98
2.75
1.17
-0.97
-3.64
-6.62
-9.56
-12.11
-14.10
-15.54
-16.62
-17.64
-18.98
-21.00
-24.03
-28.17
-33.18
-38.39
-42.74
-45.06
-44.37
-40.32
-33.26
-24.16
-14.31
-4.89
3.27
9.82
14.65
17.85
19.43
19.45
18.07
15.72
13.12
11.07
10.24
10.91
12.83
15.42
18.01
20.07
21.41
22.15
22.51
22.65
22.53
22.02
20.94
19.27
17.12
14.65
12.00
9.23
6.41
3.60
0.99
-1.27
-3.10
-4.65
-6.25
-8.27
-10.95
-14.28
-17.99
-21.69
-25.08
-28.04
-30.69
-33.30
-36.19
-39.63
-43.68
-48.15
-52.52
-56.01
-57.71
-56.79
-52.83
-45.91
-36.67
-26.14
-15.49
-5.75
2.45
8.87
13.57
16.77
18.61
19.20
18.59
17.03
14.88
12.60
10.57
8.90
7.46
6.08
4.65
3.35
2.51
2.42
3.04
4.02
4.75
4.71
3.63
1.57
-1.20
-4.35
-7.54
-10.38
-12.31
-12.63
-10.76
-6.55
-0.63
5.63
10.52
12.70
11.70
8.18
3.57
-0.63
-3.49
-5.06
-6.12
-7.75
-10.73
-15.32
-21.16
-27.54
-33.56
-38.32
-41.02
-41.12
-38.41
-33.06
-25.60
-16.76
-7.27
2.23
11.17
18.95
24.99
28.86
30.36
29.70
27.42
24.19
20.66
17.36
14.74
13.21
13.10
14.56
17.30
20.63
23.64
25.62
26.33
26.18
25.94
26.32
27.52
29.11
30.23
30.08
28.36
25.37
21.90
18.76
16.40
14.82
13.72
12.80
11.86
10.88
9.76
8.21
5.78
2.03
-3.19
-9.65
-16.85
-24.21
-31.17
-37.21
-41.74
-44.10
-43.64
-40.03
-33.46
-24.70
-14.91
-5.33
3.11
9.86
14.66
17.52
18.55
18.08
16.70
15.18
14.29
14.55
16.03
18.36
20.93
23.22
25.02
26.43
27.72
29.07
30.31
31.03
30.66
28.81
25.43
20.77
15.32
9.49
3.60
-2.25
-8.05
-13.74
-19.16
-24.09
-28.30
-31.60
-33.89
-35.21
-35.73
-35.79
-35.91
-36.72
-38.81
-42.44
-47.27
-52.35
-56.26
-57.55
-55.13
-48.76
-39.09
-27.41
-15.29
-4.05
5.47
13.01
18.66
22.66
25.27
26.71
27.21
27.01
26.36
25.38
24.14
22.61
20.85
18.99
17.29
16.07
15.48
15.48
15.85
16.28
16.45
16.15
15.23
13.62
11.42
8.81
6.14
3.73
1.75
0.12
-1.51
-3.56
-6.33
-9.78
-13.56
-17.18
-20.21
-22.54
-24.33
-25.97
-27.86
-30.35
-33.52
-37.23
-40.99
-43.97
-45.21
-43.86
-39.52
-32.40
-23.28
-13.25
-3.45
5.24
12.29
17.54
21.07
23.15
24.20
24.69
25.09
25.67
26.50
27.40
28.09
28.33
28.09
27.57
27.17
27.20
27.74
28.45
28.66
27.70
25.19
21.30
16.67
12.12
8.23
5.15
2.67
0.40
-1.91
-4.26
-6.49
-8.57
-10.61
-12.91
-15.75
-19.16
-22.91
-26.54
-29.59
-31.66
-32.55
-32.04
-29.94
-26.07
-20.42
-13.27
-5.09
3.56
12.40
21.44
30.98
41.33
52.55
64.43
76.48
88.12
98.79
107.97
115.14
119.97
122.34
122.53
121.07
118.53
115.15
110.69
104.46
95.74
84.22
70.31
55.13
40.23
27.07
16.74
9.58
5.12
2.10
-1.23
-6.70
-15.62
-28.23
-43.55
-59.66
-74.33
-85.87
-93.68
-98.33
-101.10
-103.28
-105.47
-107.43
-108.11
-106.17
-100.49
-90.56
-76.66
-59.78
-41.44
-23.33
-6.99
6.40
16.13
21.96
24.09
23.14
20.13
16.28
12.90
10.96
10.91
12.45
14.63
16.28
16.45
14.82
11.90
8.74
6.42
5.46
5.45
5.13
2.91
-2.64
-12.14
-25.36
-41.28
-58.50
-75.56
-91.28
-105.01
-116.72
-127.07
-136.96
-146.96
-156.68
-164.49
-167.94
-164.64
-153.44
-135.05
-111.98
-87.68
-65.43
-47.42
-34.46
-26.27
-22.03
-20.96
-22.42
-25.80
-30.31
-34.91
-38.32
-39.23
-36.26
-28.11
-13.71
7.37
34.44
65.41
97.09
125.84
148.46
162.74
167.66
163.02
149.27
127.51
99.74
69.04
39.22
13.88
-4.81
-16.80
-24.02
-29.30
-34.94
-41.61
-48.01
-51.55
-49.66
-41.01
-26.19
-7.45
12.27
30.57
46.37
60.07
72.88
85.89
99.39
112.55
123.75
131.24
133.77
131.14
124.20
114.58
104.33
95.37
89.21
86.76
88.24
93.05
99.91
107.00
112.58
115.65
116.51
116.61
117.96
121.97
128.66
136.51
143.22
146.65
145.64
140.13
130.83
118.70
104.60
89.24
73.24
57.06
40.79
24.10
6.47
-12.42
-32.43
-52.85
-72.68
-90.96
-106.90
-119.77
-128.91
-133.69
-133.86
-129.92
-123.09
-115.10
-107.61
-101.66
-97.40
-94.25
-91.18
-87.31
-82.16
-75.88
-69.20
-63.16
-58.68
-56.25
-55.73
-56.59
-58.19
-60.09
-62.06
-63.94
-65.28
-65.28
-63.11
-58.31
-51.09
-42.35
-33.26
-24.92
-18.06
-13.12
-10.25
-9.51
-10.67
-13.19
-16.24
-18.97
-20.84
-21.73
-21.83
-21.37
-20.41
-19.01
-17.36
-16.16
-16.38
-18.94
-24.01
-30.85
-38.00
-43.91
-47.60
-48.93
-48.43
-46.68
-43.96
-39.99
-34.33
-26.83
-18.05
-9.14
-1.44
4.25
7.98
10.53
12.93
15.68
18.58
20.82
21.63
20.77
18.75
16.66
15.49
15.72
17.19
19.21
21.05
22.25
22.81
23.10
23.58
24.59
26.15
27.94
29.41
29.98
29.26
27.15
23.86
19.80
15.39
10.97
6.67
2.54
-1.44
-5.22
-8.71
-11.82
-14.46
-16.72
-18.77
-20.86
-23.30
-26.24
-29.71
-33.50
-37.32
-40.74
-43.33
-44.64
-44.24
-41.80
-37.22
-30.84
-23.45
-16.19
-10.23
-6.40
-4.89
-5.18
-6.23
-6.89
-6.28
-4.07
-0.53
3.67
7.64
10.57
11.94
11.67
10.16
8.11
6.38
5.67
6.28
8.00
10.21
12.12
13.11
12.93
11.79
10.23
8.82
7.94
7.60
7.54
7.40
6.97
6.26
5.49
4.86
4.37
3.81
2.85
1.21
-1.28
-4.65
-8.79
-13.45
-18.11
-21.97
-24.02
-23.49
-20.13
-14.44
-7.52
-0.56
5.65
10.90
15.44
19.53
23.12
25.84
27.26
27.22
25.99
24.20
22.57
21.59
21.45
21.97
22.75
23.25
23.03
21.81
19.58
16.63
13.41
10.41
7.91
6.04
4.73
3.82
3.17
2.62
2.03
1.21
-0.03
-1.76
-3.90
-6.29
-8.71
-11.03
-13.20
-15.25
-17.20
-19.08
-21.00
-23.15
-25.69
-28.62
-31.57
-33.76
-34.24
-32.26
-27.65
-20.93
-13.16
-5.51
1.07
6.06
9.42
11.39
12.45
13.02
13.41
13.69
13.69
13.17
11.93
9.99
7.51
4.75
1.86
-1.11
-4.12
-7.09
-9.86
-12.29
-14.39
-16.44
-18.73
-21.38
-24.18
-26.69
-28.54
-29.68
-30.49
-31.56
-33.37
-35.93
-38.75
-41.09
-42.28
-42.00
-40.54
-38.59
-37.06
-36.76
-38.09
-40.82
-44.10
-46.56
-46.71
-43.49
-36.67
-27.07
-16.28
-6.09
2.09
7.60
10.63
11.97
12.51
12.94
13.61
14.54
15.58
16.55
17.34
17.96
18.53
19.28
20.50
22.47
25.19
28.29
31.10
32.77
32.67
30.74
27.38
23.40
19.55
16.25
13.45
10.86
8.16
5.23
2.15
-0.87
-3.64
-5.97
-7.77
-8.96
-9.60
-9.95
-10.48
-11.66
-13.79
-16.69
-19.70
-21.87
-22.38
-20.82
-17.31
-12.41
-6.74
-0.94
4.63
9.72
14.21
18.02
21.12
23.51
25.19
26.16
26.41
25.97
25.03
23.82
22.68
21.84
21.33
21.03
20.82
20.63
20.48
20.37
20.22
19.84
19.01
17.63
15.79
13.69
11.57
9.52
7.53
5.53
3.53
1.66
0.01
-1.44
-3.00
-5.21
-8.60
-13.38
-19.32
-25.61
-31.11
-34.74
-35.78
-34.09
-30.11
-24.57
-18.27
-11.83
-5.60
0.25
5.57
10.18
13.73
15.88
16.48
15.70
14.10
12.43
11.38
11.21
11.77
12.54
12.95
12.66
11.66
10.14
8.30
6.15
3.55
0.36
-3.28
-6.97
-10.20
-12.62
-14.28
-15.62
-17.13
-19.15
-21.63
-24.33
-27.04
-29.82
-32.93
-36.59
-40.67
-44.46
-46.98
-47.28
-44.93
-40.20
-34.05
-27.66
-22.08
-17.87
-14.94
-12.82
-10.82
-8.50
-5.74
-2.80
-0.12
1.93
3.16
3.61
3.52
3.22
3.12
3.60
5.02
7.52
10.91
14.61
17.70
19.22
18.52
15.46
10.55
4.70
-1.09
-6.11
-10.17
-13.50
-16.57
-19.72
-23.05
-26.40
-29.53
-32.34
-34.86
-37.07
-38.74
-39.28
-37.92
-34.09
-27.70
-19.40
-10.38
-1.92
5.02
10.22
14.07
17.33
20.57
23.87
26.74
28.44
28.45
26.72
23.82
20.67
18.12
16.75
16.74
18.07
20.56
23.85
27.29
29.90
30.61
28.66
24.00
17.40
10.15
3.53
-1.71
-5.48
-8.21
-10.44
-12.56
-14.79
-17.26
-20.12
-23.47
-27.28
-31.24
-34.82
-37.57
-39.19
-39.64
-39.03
-37.44
-34.82
-31.03
-25.89
-19.34
-11.51
-2.84
5.93
13.88
20.02
23.54
24.16
22.31
18.96
15.41
12.81
11.71
12.02
13.05
13.92
13.95
12.94
11.20
9.39
8.29
8.40
9.84
12.29
15.18
17.83
19.67
20.28
19.50
17.40
14.25
10.49
6.64
3.16
0.35
-1.69
-3.06
-4.03
-4.96
-6.26
-8.25
-11.09
-14.70
-18.67
-22.23
-24.47
-24.56
-22.02
-16.94
-9.89
-1.71
6.74
14.84
22.21
28.67
34.05
38.23
41.07
42.51
42.63
41.66
39.96
37.88
35.76
33.83
32.21
30.89
29.73
28.50
27.03
25.42
24.08
23.69
24.91
27.91
32.20
36.70
40.09
41.36
40.12
36.63
31.44
25.13
18.11
10.72
3.40
-3.32
-8.96
-13.49
-17.35
-21.33
-26.05
-31.52
-37.02
-41.31
-43.03
-41.25
-35.69
-26.80
-15.64
-3.65
7.59
16.69
22.69
25.19
24.42
21.02
15.87
9.88
4.00
-0.84
-3.78
-4.20
-1.97
2.41
7.93
13.41
17.96
21.25
23.62
25.74
28.23
31.27
34.45
36.91
37.72
36.26
32.48
26.90
20.45
14.12
8.69
4.60
1.80
-0.08
-1.64
-3.40
-5.70
-8.51
-11.49
-14.15
-16.01
-16.85
-16.70
-15.75
-14.14
-11.77
-8.30
-3.47
2.64
9.45
15.91
20.97
23.91
24.69
23.77
21.90
19.76
17.77
16.12
14.84
14.02
13.75
14.06
14.83
15.83
16.76
17.40
17.67
17.58
17.12
16.24
14.79
12.67
9.98
7.05
4.40
2.46
1.35
0.80
0.22
-1.00
-3.23
-6.52
-10.68
-15.52
-21.04
-27.30
-34.18
-41.10
-46.94
-50.23
-49.76
-45.00
-36.42
-25.42
-13.76
-3.03
5.76
12.38
17.21
20.89
23.97
26.75
29.23
31.24
32.67
33.55
34.11
34.60
35.17
35.76
36.18
36.29
36.23
36.43
37.41
39.44
42.25
45.08
46.98
47.25
45.66
42.56
38.44
33.78
28.84
23.66
18.20
12.53
6.80
1.27
-3.76
-8.11
-11.68
-14.59
-17.13
-19.70
-22.63
-26.05
-29.77
-33.40
-36.44
-38.46
-39.23
-38.67
-36.75
-33.44
-28.79
-22.92
-16.18
-9.22
-2.88
1.94
4.52
4.65
2.69
-0.48
-3.73
-6.01
-6.75
-5.92
-3.92
-1.30
1.53
4.38
7.18
9.77
11.93
13.41
14.21
14.64
15.34
16.87
19.42
22.57
25.35
26.72
25.95
23.03
18.61
13.64
8.97
5.02
1.81
-0.95
-3.51
-6.00
-8.42
-10.84
-13.47
-16.67
-20.67
-25.24
-29.56
-32.28
-32.07
-28.24
-21.11
-12.04
-2.97
4.30
8.74
10.35
9.90
8.41
6.68
5.07
3.60
2.25
1.14
0.47
0.43
1.01
1.91
2.75
3.32
3.65
4.07
4.92
6.43
8.54
11.01
13.50
15.68
17.30
18.13
18.02
16.98
15.23
13.23
11.57
10.67
10.60
10.88
10.56
8.56
4.17
-2.69
-11.28
-20.25
-28.16
-33.90
-36.96
-37.46
-35.76
-32.20
-26.87
-19.75
-10.96
-1.04
9.02
18.01
24.90
29.12
30.66
29.95
27.63
24.37
20.80
17.52
15.08
13.81
13.76
14.56
15.49
15.73
14.60
11.90
7.93
3.32
-1.30
-5.66
-9.99
-14.95
-21.21
-29.07
-38.17
-47.63
-56.32
-63.41
-68.61
-72.21
-74.70
-76.48
-77.58
-77.80
-76.99
-75.27
-73.16
-71.26
-70.04
-69.53
-69.35
-69.01
-68.20
-67.02
-65.77
-64.75
-63.95
-63.04
-61.53
-59.18
-56.14
-52.97
-50.41
-49.03
-49.04
-50.13
-51.66
-52.76
-52.69
-50.97
-47.52
-42.80
-37.55
-32.59
-28.42
-25.01
-21.88
-18.42
-14.24
-9.35
-4.19
0.59
4.37
6.61
6.99
5.39
2.01
-2.56
-7.39
-11.40
-13.71
-14.01
-12.58
-10.10
-7.37
-4.85
-2.54
-0.01
3.34
7.98
14.10
21.46
29.55
37.62
44.86
50.52
54.10
55.39
54.60
52.29
49.28
46.32
43.93
42.19
40.83
39.47
37.79
35.69
33.27
30.69
28.01
25.19
22.12
18.67
14.85
10.81
6.83
3.22
0.17
-2.33
-4.52
-6.85
-9.85
-13.84
-18.76
-24.07
-28.91
-32.29
-33.40
-31.81
-27.56
-21.09
-13.12
-4.44
4.18
12.12
18.93
24.33
28.15
30.38
31.09
30.43
28.67
26.10
23.09
19.98
17.07
14.55
12.50
10.91
9.70
8.78
8.06
7.45
6.81
5.90
4.45
2.19
-1.07
-5.27
-10.18
-15.51
-20.98
-26.47
-32.01
-37.69
-43.47
-49.08
-53.98
-57.39
-58.59
-57.14
-53.00
-46.63
-38.86
-30.68
-23.08
-16.75
-12.03
-8.92
-7.17
-6.36
-6.09
-6.02
-5.94
-5.76
-5.56
-5.44
-5.41
-5.36
-5.04
-4.26
-2.97
-1.41
-0.04
0.68
0.48
-0.53
-2.09
-3.80
-5.48
-7.11
-8.80
-10.64
-12.66
-14.98
-17.78
-21.40
-26.00
-31.44
-37.03
-41.78
-44.66
-44.99
-42.55
-37.54
-30.50
-21.97
-12.58
-2.97
6.14
13.97
19.86
23.44
24.73
24.22
22.68
20.95
19.80
19.74
20.93
23.23
26.26
29.52
32.45
34.53
35.38
34.81
32.92
30.04
26.63
23.02
19.32
15.41
11.03
5.92
-0.13
-7.10
-14.87
-22.96
-30.63
-36.86
-40.59
-41.11
-38.28
-32.71
-25.46
-17.80
-10.68
-4.64
0.19
3.95
6.79
8.87
10.23
10.94
11.02
10.61
9.94
9.39
9.46
10.56
12.87
16.24
20.13
23.81
26.59
28.03
28.04
26.90
25.08
23.15
21.53
20.49
20.04
19.99
19.99
19.58
18.29
15.80
12.15
7.95
4.28
2.58
4.10
9.51
18.58
30.35
43.58
57.25
70.87
84.37
97.70
110.39
121.31
129.06
132.42
131.08
125.85
118.46
110.89
104.61
100.06
96.62
93.03
88.07
81.12
72.37
62.55
52.50
42.67
32.96
22.88
12.03
0.49
-11.09
-21.72
-30.68
-37.93
-44.22
-50.75
-58.63
-68.34
-79.52
-91.21
-102.20
-111.46
-118.22
-122.00
-122.51
-119.60
-113.30
-104.04
-92.54
-79.79
-66.82
-54.41
-43.07
-32.95
-23.95
-15.91
-8.66
-2.12
3.72
8.79
13.09
16.68
19.71
22.37
24.86
27.33
29.86
32.44
34.97
37.30
39.19
40.42
40.83
40.36
39.13
37.36
35.25
32.90
30.31
27.43
24.26
20.86
17.36
13.86
10.36
6.73
2.83
-1.42
-6.04
-11.05
-16.47
-22.36
-28.71
-35.24
-41.32
-46.06
-48.50
-48.01
-44.47
-38.33
-30.46
-21.79
-13.13
-4.90
2.70
9.70
16.08
21.76
26.58
30.35
33.02
34.72
35.76
36.53
37.36
38.41
39.70
41.11
42.57
44.03
45.55
47.07
48.45
49.36
49.46
48.51
46.54
43.83
40.82
37.93
35.39
33.21
31.16
28.99
26.45
23.43
19.91
16.01
11.93
7.90
4.13
0.68
-2.51
-5.69
-9.21
-13.29
-18.06
-23.36
-28.78
-33.68
-37.37
-39.26
-38.94
-36.36
-31.73
-25.52
-18.22
-10.28
-2.00
6.36
14.47
21.90
28.11
32.67
35.47
36.84
37.49
38.24
39.61
41.69
44.04
45.99
47.02
47.00
46.29
45.46
45.03
45.18
45.68
46.12
46.02
45.16
43.52
41.25
38.54
35.52
32.23
28.63
24.59
19.98
14.72
8.77
2.12
-5.21
-13.29
-22.28
-32.30
-43.35
-55.10
-67.01
-78.49
-89.15
-98.89
-107.74
-115.56
-121.71
-125.03
-124.21
-118.30
-107.23
-91.88
-73.78
-54.55
-35.43
-17.07
0.22
16.10
30.00
41.05
48.53
52.21
52.59
50.89
48.59
46.94
46.66
47.88
50.40
53.94
58.34
63.43
68.96
74.40
78.99
82.09
83.33
82.80
80.99
78.52
75.83
73.12
70.25
67.03
63.28
58.98
54.29
49.40
44.52
39.85
35.58
31.81
28.60
25.82
23.11
20.04
16.31
11.97
7.46
3.53
0.86
-0.14
0.48
2.36
5.03
8.11
11.31
14.34
16.89
18.54
18.95
18.04
16.03
13.39
10.61
8.07
5.96
4.33
3.17
2.46
2.18
2.20
2.36
2.44
2.32
1.95
1.39
0.72
-0.08
-1.13
-2.58
-4.51
-6.84
-9.32
-11.63
-13.47
-14.73
-15.53
-16.15
-16.94
-18.25
-20.29
-23.16
-26.78
-30.88
-35.01
-38.53
-40.76
-41.15
-39.47
-35.83
-30.68
-24.69
-18.56
-12.94
-8.33
-5.05
-3.16
-2.45
-2.51
-2.83
-3.04
-2.94
-2.57
-2.05
-1.50
-0.95
-0.42
0.01
0.20
-0.03
-0.76
-1.91
-3.21
-4.35
-5.08
-5.32
-5.22
-5.11
-5.37
-6.29
-7.98
-10.26
-12.82
-15.28
-17.42
-19.21
-20.74
-22.11
-23.43
-24.83
-26.46
-28.53
-31.11
-33.93
-36.30
-37.32
-36.23
-32.79
-27.48
-21.30
-15.34
-10.33
-6.43
-3.36
-0.70
1.75
3.86
5.32
5.85
5.44
4.38
3.21
2.41
2.24
2.57
3.01
3.09
2.49
1.18
-0.62
-2.53
-4.26
-5.67
-6.84
-7.96
-9.29
-10.98
-13.03
-15.32
-17.63
-19.77
-21.59
-23.06
-24.24
-25.33
-26.56
-28.18
-30.31
-32.87
-35.56
-37.82
-39.04
-38.67
-36.45
-32.43
-26.97
-20.63
-14.01
-7.65
-1.94
2.82
6.50
9.14
10.88
11.97
12.64
13.07
13.35
13.52
13.56
13.48
13.30
13.03
12.72
12.40
12.10
11.85
11.65
11.42
11.00
10.14
8.65
6.48
3.70
0.54
-2.74
-5.94
-9.00
-12.06
-15.35
-19.10
-23.46
-28.36
-33.50
-38.37
-42.30
-44.59
-44.74
-42.50
-38.01
-31.72
-24.30
-16.42
-8.73
-1.74
4.17
8.72
11.82
13.50
13.99
13.62
12.80
11.87
11.06
10.46
10.06
9.84
9.72
9.68
9.69
9.76
9.90
10.09
10.22
10.13
9.59
8.35
6.28
3.43
0.07
-3.40
-6.58
-9.21
-11.28
-12.98
-14.62
-16.54
-18.97
-21.93
-25.16
-28.10
-30.05
-30.26
-28.27
-24.05
-18.02
-10.86
-3.30
4.11
11.09
17.49
23.15
27.76
30.96
32.47
32.31
30.88
28.87
27.05
25.92
25.60
25.85
26.21
26.29
25.94
25.28
24.54
23.88
23.24
22.39
21.09
19.20
16.77
13.96
10.93
7.73
4.26
0.45
-3.76
-8.25
-12.84
-17.32
-21.58
-25.64
-29.59
-33.42
-36.96
-39.81
-41.40
-41.18
-38.75
-34.06
-27.46
-19.58
-11.28
-3.42
3.30
8.45
11.85
13.61
13.99
13.36
12.09
10.65
9.38
8.56
8.30
8.49
8.96
9.51
10.01
10.46
10.83
11.09
11.04
10.50
9.30
7.39
4.85
1.81
-1.56
-5.14
-8.76
-12.23
-15.34
-17.96
-20.12
-22.08
-24.24
-26.94
-30.26
-33.94
-37.35
-39.64
-40.06
-38.16
-33.96
-27.86
-20.59
-12.96
-5.65
0.83
6.22
10.38
13.31
15.01
15.59
15.19
14.06
12.51
10.77
9.05
7.46
6.06
4.92
4.12
3.74
3.77
4.07
4.35
4.25
3.51
1.99
-0.23
-2.96
-6.00
-9.22
-12.57
-16.02
-19.55
-23.14
-26.80
-30.55
-34.32
-37.83
-40.57
-41.85
-41.09
-38.04
-32.96
-26.43
-19.18
-11.82
-4.67
2.02
8.02
12.95
16.40
18.06
17.95
16.47
14.27
12.03
10.24
9.15
8.73
8.79
9.14
9.60
10.06
10.37
10.37
9.88
8.73
6.96
4.73
2.36
0.08
-2.04
-4.16
-6.55
-9.46
-12.94
-16.86
-20.89
-24.64
-27.65
-29.44
-29.59
-27.78
-23.93
-18.23
-11.15
-3.26
4.84
12.62
19.59
25.28
29.29
31.40
31.63
30.35
28.14
25.65
23.40
21.69
20.60
20.13
20.19
20.69
21.44
22.20
22.66
22.53
21.62
19.83
17.25
14.03
10.39
6.49
2.55
-1.30
-4.97
-8.42
-11.76
-15.19
-18.94
-23.08
-27.37
-31.20
-33.65
-33.87
-31.36
-26.26
-19.28
-11.48
-3.82
3.05
8.89
13.63
17.16
19.26
19.73
18.57
16.13
13.07
10.10
7.75
6.22
5.41
5.10
5.02
4.98
4.88
4.63
4.18
3.55
2.84
2.15
1.58
1.06
0.44
-0.47
-1.84
-3.74
-6.20
-9.24
-12.93
-17.26
-22.06
-26.84
-30.74
-32.82
-32.34
-29.08
-23.41
-16.17
-8.35
-0.78
6.00
11.69
16.09
19.04
20.49
20.61
19.81
18.61
17.48
16.58
15.83
15.02
14.03
12.97
12.04
11.47
11.25
11.19
10.92
10.14
8.75
6.81
4.52
2.08
-0.46
-3.10
-5.95
-9.10
-12.58
-16.42
-20.62
-25.15
-29.76
-33.99
-37.07
-38.15
-36.56
-32.08
-25.06
-16.31
-6.79
2.63
11.36
19.11
25.69
30.93
34.63
36.72
37.33
36.92
36.17
35.75
36.09
37.25
38.85
40.39
41.43
41.83
41.85
41.98
42.70
44.28
46.56
49.07
51.26
52.74
53.47
53.78
54.20
55.26
57.40
60.96
66.13
72.68
79.42
83.96
82.96
73.09
52.44
21.62
-16.06
-55.62
-92.02
-121.72
-143.19
-156.34
-161.45
-158.51
-147.39
-128.66
-104.39
-78.04
-53.56
-33.93
-20.28
-11.88
-7.06
-4.30
-2.99
-3.25
-5.38
-9.13
-13.60
-17.56
-20.09
-20.93
-20.56
-19.80
-19.28
-19.21
-19.37
-19.39
-19.08
-18.60
-18.39
-18.89
-20.31
-22.35
-24.36
-25.49
-24.98
-22.39
-17.65
-11.05
-3.11
5.51
14.20
22.38
29.57
35.43
39.69
42.23
43.09
42.48
40.79
38.51
36.08
33.82
31.93
30.42
29.32
28.58
28.14
27.80
27.30
26.35
24.76
22.56
19.87
16.92
13.88
10.86
7.80
4.63
1.20
-2.63
-6.98
-11.92
-17.36
-22.91
-27.90
-31.49
-32.84
-31.40
-27.15
-20.60
-12.71
-4.61
2.70
8.51
12.57
14.97
15.98
15.91
15.04
13.52
11.49
9.08
6.40
3.57
0.68
-2.18
-4.87
-7.21
-9.03
-10.21
-10.84
-11.18
-11.61
-12.49
-14.02
-16.21
-18.89
-21.91
-25.13
-28.52
-32.13
-36.06
-40.40
-45.22
-50.41
-55.67
-60.42
-63.88
-65.26
-63.98
-59.88
-53.31
-45.02
-35.89
-26.74
-18.16
-10.58
-4.28
0.46
3.44
4.61
4.09
2.36
-0.03
-2.46
-4.54
-6.21
-7.64
-9.11
-10.78
-12.62
-14.31
-15.44
-15.72
-15.09
-13.82
-12.38
-11.26
-10.80
-11.08
-11.96
-13.14
-14.33
-15.36
-16.30
-17.43
-19.07
-21.35
-24.01
-26.31
-27.26
-25.91
-21.69
-14.63
-5.36
5.13
15.77
25.57
33.81
40.06
44.18
46.22
46.38
44.95
42.31
38.99
35.56
32.65
30.70
29.76
29.49
29.30
28.56
26.88
24.27
21.00
17.50
14.09
10.93
8.01
5.23
2.48
-0.30
-3.12
-6.04
-9.14
-12.52
-16.19
-19.87
-22.98
-24.69
-24.25
-21.19
-15.64
-8.15
0.45
9.31
17.90
25.83
32.82
38.52
42.52
44.43
44.17
42.02
38.52
34.37
30.15
26.23
22.76
19.75
17.21
15.16
13.61
12.49
11.62
10.72
9.52
7.86
5.75
3.36
0.92
-1.38
-3.47
-5.46
-7.54
-9.98
-13.01
-16.84
-21.59
-27.25
-33.56
-39.93
-45.46
-49.12
-50.00
-47.61
-42.10
-34.16
-24.86
-15.28
-6.24
1.73
8.41
13.69
17.51
19.90
20.99
21.08
20.54
19.73
18.91
18.15
17.41
16.63
15.79
14.87
13.93
12.98
12.03
11.05
9.99
8.73
7.13
5.02
2.32
-0.97
-4.67
-8.51
-12.29
-15.94
-19.61
-23.52
-27.85
-32.52
-37.10
-40.79
-42.72
-42.17
-38.79
-32.74
-24.62
-15.34
-5.89
2.85
10.24
15.91
19.77
21.93
22.61
22.12
20.84
19.14
17.38
15.82
14.64
13.85
13.39
13.13
12.99
12.94
12.91
12.79
12.32
11.26
9.46
6.93
3.91
0.72
-2.37
-5.21
-7.86
-10.45
-13.16
-16.16
-19.58
-23.43
-27.50
-31.26
-33.94
-34.59
-32.56
-27.66
-20.34
-11.46
-2.05
7.09
15.39
22.46
27.93
31.41
32.65
31.78
29.39
26.35
23.53
21.43
20.05
19.06
18.02
16.76
15.36
14.12
13.28
12.87
12.65
12.22
11.15
9.13
6.10
2.31
-1.76
-5.51
-8.49
-10.58
-12.12
-13.72
-16.09
-19.62
-24.22
-29.29
-33.85
-36.90
-37.67
-35.76
-31.12
-24.10
-15.33
-5.67
3.92
12.54
19.47
24.41
27.39
28.78
29.06
28.69
28.00
27.15
26.19
25.05
23.74
22.29
20.83
19.54
18.54
17.87
17.40
16.89
16.07
14.75
12.87
10.47
7.65
4.48
1.05
-2.60
-6.33
-10.03
-13.62
-17.16
-20.76
-24.61
-28.72
-32.79
-36.20
-38.13
-37.84
-34.90
-29.37
-21.76
-12.87
-3.60
5.25
13.03
19.33
23.88
26.63
27.73
27.49
26.37
24.75
22.92
21.04
19.18
17.40
15.74
14.28
13.06
12.12
11.43
10.96
10.63
10.30
9.70
8.54
6.54
3.63
-0.05
-4.16
-8.33
-12.40
-16.46
-20.82
-25.80
-31.46
-37.43
-42.87
-46.70
-47.95
-46.01
-40.91
-33.20
-23.82
-13.78
-3.92
5.15
13.08
19.60
24.51
27.70
29.27
29.58
29.18
28.71
28.63
29.02
29.66
30.12
30.02
29.16
27.62
25.60
23.37
21.09
18.80
16.46
14.02
11.47
8.74
5.63
1.71
-3.61
-10.98
-20.84
-33.24
-47.78
-63.62
-79.64
-94.47
-106.74
-115.17
-118.78
-117.12
-110.38
-99.30
-84.97
-68.57
-51.24
-34.06
-18.08
-4.25
6.75
14.71
19.90
22.92
24.43
24.89
24.53
23.51
22.09
20.70
19.75
19.29
19.02
18.34
16.77
14.22
11.01
7.65
4.51
1.62
-1.27
-4.45
-8.05
-11.94
-15.96
-19.99
-23.97
-27.77
-30.97
-32.82
-32.44
-29.25
-23.20
-14.92
-5.39
4.37
13.59
21.84
28.86
34.43
38.29
40.25
40.34
38.86
36.37
33.51
30.82
28.65
27.16
26.35
26.15
26.39
26.87
27.31
27.41
26.92
25.69
23.65
20.88
17.50
13.71
9.63
5.38
0.96
-3.70
-8.72
-14.17
-19.89
-25.54
-30.54
-34.17
-35.79
-34.96
-31.55
-25.75
-18.10
-9.39
-0.49
7.73
14.64
19.82
23.19
24.90
25.28
24.64
23.27
21.37
19.17
16.92
14.89
13.34
12.39
12.04
12.10
12.31
12.35
11.95
10.95
9.32
7.10
4.37
1.17
-2.47
-6.52
-10.91
-15.51
-20.18
-24.82
-29.33
-33.61
-37.36
-40.07
-41.09
-39.76
-35.74
-29.13
-20.56
-10.98
-1.43
7.24
14.46
19.95
23.68
25.70
26.17
25.34
23.53
21.14
18.54
16.09
14.01
12.48
11.52
11.07
10.92
10.74
10.13
8.74
6.44
3.34
-0.26
-3.97
-7.52
-10.81
-13.88
-16.94
-20.30
-24.29
-29.19
-35.10
-41.63
-47.88
-52.51
-54.11
-51.77
-45.40
-35.80
-24.43
-12.90
-2.52
5.90
12.09
16.16
18.42
19.21
18.91
17.92
16.63
15.38
14.45
13.98
13.95
14.20
14.53
14.70
14.56
14.06
13.20
12.07
10.66
8.96
6.89
4.34
1.26
-2.36
-6.48
-11.05
-16.04
-21.42
-27.05
-32.58
-37.44
-40.85
-42.05
-40.48
-36.01
-28.94
-20.02
-10.12
-0.17
9.10
17.17
23.69
28.51
31.62
33.20
33.49
32.85
31.63
30.11
28.57
27.27
26.42
26.14
26.41
27.01
27.55
27.58
26.78
25.08
22.66
19.83
16.92
14.12
11.39
8.59
5.51
2.01
-2.00
-6.59
-11.79
-17.55
-23.64
-29.58
-34.61
-37.83
-38.50
-36.25
-31.25
-24.11
-15.69
-6.82
1.80
9.68
16.33
21.36
24.48
25.70
25.43
24.32
23.03
21.99
21.28
20.75
20.21
19.61
19.05
18.66
18.45
18.27
17.85
16.95
15.38
13.08
10.13
6.67
2.94
-0.74
-4.17
-7.25
-10.12
-13.10
-16.57
-20.75
-25.61
-30.69
-35.25
-38.39
-39.34
-37.59
-33.12
-26.32
-17.87
-8.56
0.83
9.62
17.21
23.12
27.02
28.83
28.75
27.27
25.02
22.63
20.52
18.85
17.54
16.41
15.29
14.16
13.11
12.25
11.58
10.89
9.86
8.18
5.64
2.31
-1.57
-5.69
-9.91
-14.24
-18.80
-23.75
-29.16
-34.91
-40.82
-46.49
-51.42
-54.94
-56.37
-55.13
-51.00
-44.28
-35.72
-26.36
-17.20
-8.95
-1.86
4.12
9.15
13.35
16.67
18.99
20.20
20.36
19.70
18.62
17.50
16.61
16.14
16.14
16.53
17.19
17.88
18.26
17.95
16.69
14.45
11.46
8.17
5.03
2.29
-0.10
-2.50
-5.30
-8.81
-13.08
-17.92
-22.98
-27.75
-31.62
-33.93
-34.05
-31.55
-26.39
-18.91
-9.84
-0.12
9.34
17.83
24.85
30.11
33.54
35.26
35.64
35.19
34.42
33.74
33.28
32.95
32.49
31.72
30.59
29.28
28.12
27.35
27.04
26.92
26.57
25.47
23.29
19.96
15.65
10.67
5.40
0.19
-4.70
-9.13
-13.16
-17.03
-21.15
-25.86
-31.17
-36.64
-41.33
-44.15
-44.18
-41.07
-35.11
-27.12
-18.09
-8.92
-0.27
7.36
13.56
17.94
20.22
20.44
19.08
16.93
14.86
13.40
12.64
12.27
11.91
11.40
10.88
10.72
11.18
12.23
13.47
14.36
14.42
13.44
11.53
9.03
6.28
3.59
1.04
-1.49
-4.28
-7.65
-11.85
-16.86
-22.30
-27.46
-31.39
-33.15
-32.03
-27.80
-20.73
-11.65
-1.68
8.05
16.59
23.37
28.23
31.23
32.58
32.53
31.32
29.25
26.67
23.94
21.43
19.42
18.04
17.27
16.89
16.55
15.85
14.45
12.19
9.15
5.61
1.90
-1.67
-4.91
-7.84
-10.60
-13.47
-16.85
-21.13
-26.59
-33.08
-39.94
-45.97
-49.75
-50.15
-46.71
-39.82
-30.60
-20.36
-10.22
-0.85
7.50
14.71
20.63
25.00
27.60
28.45
27.83
26.30
24.41
22.62
21.18
20.17
19.63
19.52
19.81
20.32
20.82
21.04
20.80
20.15
19.28
18.51
18.09
18.07
18.31
18.51
18.31
17.34
15.35
12.22
8.12
3.69
0.07
-1.30
1.04
7.89
19.02
33.12
48.19
62.32
74.38
84.34
92.96
101.16
109.21
116.39
121.30
122.69
120.45
116.02
112.05
110.96
113.56
118.05
120.40
115.84
100.69
73.48
34.95
-12.77
-66.51
-121.77
-172.15
-209.70
-227.06
-220.78
-193.96
-156.23
-120.39
-97.16
-90.70
-97.60
-109.54
-118.07
-118.63
-111.74
-101.18
-90.96
-82.92
-76.48
-69.94
-62.18
-53.46
-45.31
-39.22
-35.70
-33.91
-32.18
-29.07
-24.03
-17.77
-11.82
-7.75
-6.54
-8.09
-11.39
-14.82
-16.83
-16.41
-13.49
-8.94
-4.13
-0.45
1.30
1.16
-0.07
-1.34
-1.87
-1.55
-0.88
-0.71
-1.72
-4.13
-7.66
-11.73
-15.74
-19.30
-22.25
-24.65
-26.73
-28.81
-31.25
-34.44
-38.60
-43.67
-49.19
-54.37
-58.15
-59.49
-57.55
-51.89
-42.63
-30.35
-16.05
-0.86
14.13
27.97
39.99
49.73
56.91
61.47
63.63
63.83
62.70
60.95
59.14
57.64
56.57
55.85
55.32
54.76
53.90
52.43
50.13
46.95
43.05
38.78
34.51
30.47
26.61
22.70
18.42
13.61
8.41
3.12
-1.85
-6.17
-9.68
-12.43
-14.66
-16.74
-19.13
-22.21
-26.04
-30.24
-34.02
-36.36
-36.36
-33.48
-27.78
-19.81
-10.40
-0.52
8.89
16.97
23.04
26.63
27.61
26.34
23.52
20.14
17.11
15.09
14.26
14.34
14.69
14.65
13.76
11.96
9.55
6.96
4.53
2.38
0.42
-1.49
-3.43
-5.33
-7.11
-8.76
-10.39
-12.17
-14.24
-16.62
-19.24
-22.09
-25.18
-28.50
-31.87
-34.76
-36.40
-35.95
-32.89
-27.24
-19.53
-10.62
-1.30
7.86
16.51
24.38
31.10
36.18
39.30
40.45
40.06
38.90
37.62
36.60
35.77
34.85
33.58
31.98
30.29
28.79
27.53
26.33
24.84
22.77
19.97
16.55
12.69
8.58
4.33
0.03
-4.24
-8.41
-12.47
-16.57
-20.92
-25.75
-31.12
-36.74
-41.97
-45.95
-47.80
-46.88
-43.03
-36.56
-28.19
-18.80
-9.28
-0.25
7.86
14.87
20.64
24.99
27.83
29.12
29.07
28.04
26.53
24.95
23.60
22.56
21.71
20.86
19.81
18.43
16.71
14.68
12.38
9.82
6.94
3.67
-0.05
-4.19
-8.57
-12.99
-17.30
-21.49
-25.78
-30.44
-35.63
-41.25
-46.87
-51.86
-55.46
-57.02
-56.03
-52.28
-45.90
-37.41
-27.67
-17.75
-8.72
-1.34
4.06
7.57
9.58
10.52
10.74
10.47
9.91
9.30
8.97
9.19
10.09
11.59
13.47
15.44
17.18
18.45
19.09
18.93
17.92
16.10
13.63
10.78
7.86
5.08
2.44
-0.25
-3.32
-7.02
-11.49
-16.62
-22.11
-27.49
-32.13
-35.24
-36.07
-34.06
-29.07
-21.47
-12.07
-1.97
7.80
16.44
23.50
28.79
32.31
34.17
34.57
33.81
32.31
30.45
28.58
26.88
25.40
24.16
23.09
22.11
21.09
19.96
18.60
16.98
15.08
12.86
10.29
7.33
3.95
0.22
-3.76
-7.84
-11.92
-15.94
-19.79
-23.29
-26.16
-28.00
-28.54
-27.62
-25.23
-21.41
-16.24
-9.74
-2.04
6.50
15.20
23.25
29.86
34.54
37.15
37.93
37.23
35.44
32.94
30.08
27.30
25.01
23.47
22.65
22.27
21.86
21.02
19.55
17.50
15.03
12.30
9.35
6.14
2.64
-1.09
-4.93
-8.71
-12.34
-15.83
-19.35
-23.08
-27.06
-31.14
-34.90
-37.79
-39.19
-38.68
-36.15
-31.72
-25.78
-18.75
-11.05
-3.11
4.60
11.58
17.34
21.54
24.12
25.20
25.12
24.21
22.85
21.34
19.97
18.96
18.44
18.39
18.62
18.82
18.63
17.78
16.12
13.62
10.41
6.71
2.79
-1.07
-4.65
-7.93
-11.04
-14.25
-17.80
-21.80
-25.99
-29.83
-32.58
-33.61
-32.64
-29.85
-25.74
-20.97
-16.05
-11.21
-6.42
-1.59
3.27
7.90
11.88
14.83
16.56
17.12
16.82
15.98
14.89
13.73
12.61
11.63
10.95
10.70
10.90
11.43
12.12
12.74
13.19
13.47
13.58
13.47
13.02
12.06
10.53
8.53
6.41
4.61
3.55
3.35
3.77
4.23
4.02
2.65
0.16
-2.76
-4.93
-5.10
-2.43
3.22
11.25
20.54
29.89
38.37
45.48
51.28
56.35
61.66
68.25
76.77
86.65
95.75
100.40
96.34
80.08
50.44
9.29
-38.70
-87.34
-130.57
-163.85
-184.79
-193.01
-189.56
-176.40
-156.00
-131.25
-105.19
-80.69
-59.88
-43.83
-32.56
-25.35
-21.31
-19.71
-20.12
-22.16
-25.27
-28.65
-31.42
-32.94
-32.85
-31.18
-28.01
-23.47
-17.63
-10.65
-2.93
4.97
12.41
18.95
24.35
28.58
31.71
33.74
34.67
34.56
33.60
32.17
30.73
29.65
29.17
29.26
29.72
30.23
30.46
30.14
29.11
27.40
25.07
22.29
19.26
16.15
13.16
10.36
7.76
5.20
2.50
-0.56
-4.07
-7.94
-11.93
-15.75
-19.07
-21.61
-23.11
-23.30
-22.02
-19.22
-15.07
-9.91
-4.18
1.70
7.35
12.48
16.79
19.99
21.91
22.54
22.10
20.98
19.57
18.22
17.11
16.28
15.68
15.15
14.56
13.79
12.84
11.80
10.80
9.88
8.91
7.68
5.96
3.70
1.07
-1.64
-4.23
-6.64
-9.03
-11.60
-14.50
-17.65
-20.86
-23.84
-26.33
-28.12
-29.01
-28.86
-27.52
-24.88
-20.95
-15.90
-10.07
-4.04
1.57
6.16
9.34
11.07
11.54
11.16
10.25
9.10
7.85
6.68
5.78
5.36
5.47
6.00
6.64
7.02
6.97
6.52
5.92
5.39
5.02
4.63
3.89
2.54
0.44
-2.28
-5.47
-8.98
-12.75
-16.77
-20.91
-24.89
-28.21
-30.37
-30.99
-29.97
-27.43
-23.68
-19.09
-13.95
-8.52
-2.97
2.55
7.86
12.71
16.77
19.72
21.31
21.52
20.53
18.72
16.50
14.21
12.04
10.10
8.45
7.15
6.25
5.71
5.30
4.76
3.89
2.66
1.24
-0.11
-1.24
-2.17
-3.11
-4.34
-6.16
-8.66
-11.79
-15.41
-19.33
-23.26
-26.78
-29.40
-30.60
-30.08
-27.80
-24.13
-19.60
-14.74
-9.74
-4.52
1.17
7.42
13.98
20.24
25.42
28.92
30.58
30.73
29.95
28.85
27.84
27.04
26.36
25.60
24.67
23.57
22.39
21.19
19.93
18.49
16.65
14.29
11.39
8.06
4.47
0.82
-2.70
-5.91
-8.73
-11.15
-13.24
-15.28
-17.51
-20.16
-23.19
-26.32
-28.99
-30.56
-30.54
-28.73
-25.32
-20.74
-15.51
-10.08
-4.73
0.33
4.92
8.73
11.45
12.81
12.81
11.80
10.40
9.19
8.56
8.51
8.81
9.13
9.33
9.48
9.81
10.49
11.50
12.59
13.35
13.42
12.61
10.94
8.50
5.51
2.18
-1.23
-4.44
-7.21
-9.39
-11.06
-12.48
-13.97
-15.83
-18.09
-20.52
-22.61
-23.81
-23.67
-22.00
-18.89
-14.65
-9.66
-4.24
1.35
6.87
12.01
16.37
19.48
20.96
20.75
19.15
16.81
14.57
13.14
12.93
13.81
15.29
16.64
17.20
16.65
15.14
13.21
11.58
10.87
11.31
12.68
14.43
15.98
16.93
17.24
17.26
17.48
18.31
19.78
21.65
23.44
24.68
25.08
24.70
24.03
24.03
25.95
31.13
40.33
53.13
67.50
79.88
86.01
82.18
66.49
39.51
4.06
-35.70
-75.39
-111.24
-140.26
-160.07
-168.91
-165.88
-151.54
-128.24
-99.98
-71.29
-46.04
-26.42
-12.82
-4.23
0.76
3.30
4.09
3.50
1.85
-0.43
-2.90
-5.29
-7.59
-9.90
-12.32
-14.79
-17.12
-19.17
-20.96
-22.66
-24.47
-26.43
-28.29
-29.59
-29.82
-28.53
-25.49
-20.62
-14.06
-6.15
2.59
11.44
19.61
26.37
31.33
34.42
35.89
36.14
35.54
34.35
32.75
30.89
28.94
27.12
25.56
24.24
23.02
21.68
20.11
18.31
16.41
14.47
12.50
10.38
7.96
5.25
2.37
-0.43
-2.95
-5.16
-7.28
-9.66
-12.61
-16.23
-20.29
-24.23
-27.32
-28.82
-28.27
-25.56
-21.01
-15.25
-8.94
-2.64
3.29
8.74
13.55
17.60
20.68
22.58
23.27
22.90
21.78
20.25
18.65
17.21
16.05
15.15
14.43
13.72
12.86
11.73
10.38
8.92
7.49
6.13
4.71
3.03
0.94
-1.62
-4.51
-7.53
-10.54
-13.50
-16.45
-19.49
-22.62
-25.79
-28.88
-31.71
-34.02
-35.54
-35.97
-35.04
-32.59
-28.61
-23.31
-17.04
-10.36
-3.86
1.94
6.65
10.15
12.51
13.95
14.73
15.00
14.85
14.36
13.65
12.89
12.32
12.07
12.21
12.72
13.48
14.37
15.20
15.73
15.76
15.19
14.11
12.72
11.26
9.73
7.88
5.30
1.62
-3.20
-8.79
-14.55
-19.84
-24.36
-28.14
-31.40
-34.27
-36.52
-37.62
-36.99
-34.29
-29.68
-23.61
-16.59
-8.93
-0.68
8.17
17.45
26.65
35.00
41.81
46.72
49.86
51.75
53.09
54.56
56.67
59.67
63.42
67.41
70.96
73.45
74.61
74.75
74.53
74.78
76.25
79.42
84.44
90.87
97.46
101.83
100.69
90.62
69.21
36.20
-6.20
-53.89
-102.05
-146.34
-183.35
-210.56
-225.91
-227.86
-215.86
-191.10
-156.82
-117.86
-79.49
-46.05
-20.01
-1.93
9.11
14.68
16.41
15.66
13.45
10.60
7.68
5.22
3.63
3.35
4.59
7.27
10.88
14.53
17.22
18.36
17.95
16.58
15.20
14.54
14.90
15.99
17.22
18.03
18.15
17.69
16.90
16.08
15.25
14.26
12.88
10.98
8.61
5.94
3.20
0.40
-2.56
-5.88
-9.73
-14.01
-18.39
-22.26
-24.94
-25.93
-25.00
-22.22
-17.92
-12.52
-6.43
0.02
6.52
12.74
18.29
22.79
25.97
27.77
28.32
27.93
26.89
25.50
23.99
22.62
21.61
21.16
21.25
21.65
21.92
21.56
20.29
18.10
15.30
12.27
9.26
6.39
3.57
0.66
-2.48
-5.87
-9.47
-13.22
-16.99
-20.61
-23.93
-26.84
-29.40
-31.85
-34.50
-37.58
-41.01
-44.36
-46.89
-47.91
-46.91
-43.79
-38.80
-32.41
-25.15
-17.44
-9.61
-1.94
5.24
11.55
16.59
20.11
22.03
22.55
22.06
21.03
19.93
19.15
18.95
19.51
20.86
22.93
25.45
27.99
29.99
30.90
30.38
28.34
25.07
21.03
16.80
12.87
9.57
7.00
5.05
3.47
1.86
-0.22
-3.13
-7.09
-12.04
-17.61
-23.14
-27.80
-30.82
-31.66
-30.16
-26.55
-21.38
-15.36
-9.18
-3.35
1.80
6.16
9.77
12.73
15.05
16.71
17.62
17.75
17.19
16.24
15.29
14.76
14.90
15.68
16.88
18.16
19.21
19.92
20.29
20.32
19.93
18.92
17.08
14.36
10.93
7.28
3.96
1.46
-0.05
-0.83
-1.46
-2.66
-4.95
-8.53
-13.04
-17.79
-21.86
-24.44
-25.02
-23.44
-19.89
-14.76
-8.58
-1.94
4.55
10.35
15.04
18.40
20.42
21.27
21.24
20.66
19.83
18.98
18.24
17.68
17.26
16.97
16.82
16.86
17.17
17.74
18.43
18.99
19.14
18.64
17.47
15.66
13.37
10.73
7.89
4.99
2.17
-0.41
-2.64
-4.59
-6.49
-8.73
-11.70
-15.49
-19.84
-24.04
-27.15
-28.31
-27.06
-23.52
-18.32
-12.38
-6.55
-1.45
2.71
5.94
8.29
9.78
10.35
9.98
8.80
7.16
5.43
3.96
2.84
1.88
0.85
-0.46
-2.00
-3.55
-4.83
-5.67
-6.05
-6.20
-6.35
-6.67
-7.27
-8.12
-9.26
-10.73
-12.63
-14.95
-17.58
-20.27
-22.73
-24.77
-26.34
-27.62
-28.86
-30.39
-32.40
-34.92
-37.79
-40.71
-43.26
-45.03
-45.57
-44.58
-41.88
-37.48
-31.55
-24.40
-16.44
-8.21
-0.35
6.47
11.66
14.93
16.42
16.66
16.48
16.62
17.51
19.11
20.95
22.50
23.37
23.55
23.38
23.26
23.48
23.94
24.31
24.19
23.36
21.90
20.16
18.50
17.08
15.85
14.52
12.77
10.46
7.66
4.64
1.72
-0.93
-3.25
-5.35
-7.39
-9.54
-11.91
-14.59
-17.58
-20.79
-23.88
-26.31
-27.38
-26.47
-23.21
-17.68
-10.36
-2.08
6.34
14.19
20.96
26.40
30.45
33.16
34.76
35.48
35.58
35.26
34.58
33.60
32.38
31.06
29.89
29.07
28.73
28.77
28.97
28.98
28.64
27.88
26.84
25.67
24.42
22.96
21.05
18.46
15.09
11.12
6.87
2.69
-1.19
-4.78
-8.25
-11.79
-15.52
-19.43
-23.38
-27.17
-30.58
-33.29
-34.97
-35.20
-33.64
-30.17
-25.02
-18.76
-12.09
-5.72
-0.05
4.75
8.67
11.77
14.01
15.30
15.65
15.15
14.12
13.00
12.14
11.76
11.89
12.38
13.03
13.62
13.99
14.05
13.77
13.18
12.35
11.34
10.17
8.79
7.14
5.13
2.71
-0.13
-3.38
-7.00
-10.92
-15.04
-19.20
-23.12
-26.63
-29.61
-32.18
-34.56
-36.92
-39.18
-40.95
-41.57
-40.41
-37.13
-31.84
-25.04
-17.54
-10.09
-3.29
2.50
7.06
10.33
12.29
13.07
12.84
11.85
10.39
8.71
7.02
5.44
4.08
2.94
1.98
1.16
0.45
-0.10
-0.41
-0.37
0.07
0.79
1.57
2.08
1.99
1.11
-0.52
-2.68
-4.99
-7.06
-8.58
-9.46
-9.89
-10.24
-11.01
-12.56
-15.02
-18.15
-21.35
-23.83
-24.81
-23.76
-20.47
-15.19
-8.47
-1.06
6.27
12.88
18.33
22.38
24.99
26.28
26.44
25.77
24.52
22.89
21.07
19.18
17.37
15.79
14.62
13.98
13.88
14.23
14.81
15.36
15.62
15.33
14.29
12.38
9.67
6.42
3.06
-0.00
-2.50
-4.43
-6.08
-7.91
-10.37
-13.69
-17.74
-21.91
-25.31
-26.96
-26.08
-22.40
-16.27
-8.60
-0.61
6.59
12.26
16.17
18.50
19.63
20.01
19.95
19.76
19.62
19.67
19.91
20.18
20.16
19.55
18.20
16.20
13.96
11.99
10.67
10.13
10.11
10.09
9.49
7.98
5.48
2.27
-1.24
-4.67
-7.78
-10.54
-13.05
-15.56
-18.33
-21.51
-25.04
-28.56
-31.44
-32.85
-32.10
-28.83
-23.26
-16.09
-8.27
-0.72
5.92
11.35
15.49
18.45
20.36
21.37
21.70
21.58
21.26
20.92
20.62
20.28
19.80
19.10
18.19
17.14
16.05
14.94
13.73
12.26
10.32
7.80
4.67
1.02
-2.91
-6.86
-10.60
-13.96
-16.90
-19.38
-21.46
-23.28
-25.07
-27.18
-29.95
-33.52
-37.64
-41.59
-44.32
-44.78
-42.31
-36.86
-29.08
-20.05
-10.92
-2.56
4.58
10.44
15.19
19.01
22.03
24.29
25.79
26.57
26.68
26.18
25.13
23.65
21.88
20.11
18.61
17.67
17.37
17.63
18.21
18.76
18.91
18.40
17.13
15.22
12.98
10.81
9.01
7.69
6.72
5.80
4.66
3.24
1.65
0.13
-1.14
-2.26
-3.52
-5.28
-7.77
-10.98
-14.61
-18.36
-22.02
-25.55
-29.12
-32.95
-37.14
-41.59
-45.98
-49.92
-52.91
-54.57
-54.54
-52.62
-48.72
-42.96
-35.67
-27.33
-18.56
-9.94
-2.04
4.71
9.97
13.65
15.83
16.85
17.16
17.25
17.47
17.94
18.64
19.43
20.22
21.02
21.85
22.71
23.52
24.15
24.42
24.20
23.44
22.14
20.40
18.40
16.31
14.32
12.52
10.88
9.31
7.71
5.94
3.92
1.62
-0.96
-3.72
-6.52
-9.15
-11.55
-13.77
-16.04
-18.49
-21.02
-23.16
-24.25
-23.64
-21.12
-16.98
-11.97
-6.92
-2.42
1.36
4.50
7.16
9.32
10.79
11.34
10.91
9.66
7.96
6.22
4.78
3.83
3.49
3.80
4.70
6.04
7.48
8.60
9.05
8.65
7.53
6.01
4.42
2.94
1.58
0.21
-1.29
-2.90
-4.56
-6.19
-7.85
-9.71
-11.94
-14.67
-17.81
-21.20
-24.57
-27.72
-30.50
-32.70
-34.01
-34.01
-32.31
-28.75
-23.54
-17.20
-10.46
-3.98
1.74
6.49
10.24
13.07
15.10
16.39
17.01
17.01
16.50
15.64
14.64
13.73
13.01
12.58
12.32
12.14
11.94
11.66
11.36
11.06
10.78
10.41
9.81
8.77
7.19
5.07
2.52
-0.30
-3.30
-6.46
-9.85
-13.47
-17.22
-20.79
-23.79
-25.96
-27.28
-27.97
-28.29
-28.39
-28.12
-27.08
-24.74
-20.86
-15.51
-9.14
-2.48
3.82
9.24
13.54
16.60
18.45
19.11
18.62
17.18
15.17
13.08
11.46
10.68
10.80
11.63
12.79
13.92
14.74
15.11
14.94
14.25
13.08
11.55
9.85
8.17
6.58
5.00
3.22
1.07
-1.54
-4.55
-7.74
-10.87
-13.72
-16.16
-18.17
-19.89
-21.52
-23.22
-25.01
-26.62
-27.55
-27.18
-25.08
-21.13
-15.64
-9.16
-2.29
4.44
10.62
15.92
20.04
22.71
23.95
23.98
23.30
22.42
21.68
21.05
20.28
19.14
17.61
16.01
14.78
14.23
14.37
14.87
15.28
15.27
14.73
13.79
12.61
11.28
9.68
7.60
4.86
1.53
-2.18
-5.91
-9.32
-12.26
-14.73
-16.95
-19.18
-21.65
-24.41
-27.30
-29.90
-31.74
-32.35
-31.46
-28.97
-25.00
-19.80
-13.71
-7.16
-0.66
5.27
10.11
13.53
15.44
15.97
15.40
14.08
12.32
10.40
8.58
7.08
6.11
5.77
6.02
6.66
7.49
8.25
8.74
8.95
8.88
8.58
8.05
7.23
6.05
4.50
2.58
0.45
-1.77
-3.95
-6.02
-7.98
-9.92
-12.04
-14.55
-17.65
-21.28
-25.05
-28.29
-30.15
-29.98
-27.52
-22.99
-17.02
-10.35
-3.57
2.94
9.01
14.55
19.46
23.54
26.59
28.48
29.27
29.28
29.07
29.19
30.21
32.33
35.43
39.08
42.68
45.72
47.90
49.24
49.99
50.50
51.12
52.23
54.29
57.71
62.48
67.60
70.88
69.13
59.27
39.54
10.38
-25.53
-64.30
-102.03
-135.71
-163.21
-182.71
-192.24
-190.00
-175.31
-149.66
-116.96
-82.53
-51.48
-27.12
-10.33
-0.12
5.41
7.98
8.74
8.33
7.35
6.47
6.32
7.31
9.41
12.24
15.29
18.13
20.51
22.40
23.79
24.77
25.41
25.77
25.83
25.47
24.47
22.63
19.91
16.52
12.91
9.62
6.92
4.70
2.41
-0.63
-4.96
-10.67
-17.42
-24.51
-31.16
-36.73
-40.72
-42.76
-42.50
-39.73
-34.53
-27.39
-19.13
-10.76
-3.06
3.58
9.08
13.47
16.61
18.28
18.27
16.77
14.40
12.01
10.36
9.78
10.07
10.75
11.31
11.48
11.22
10.69
10.05
9.44
8.83
8.14
7.19
5.81
3.88
1.43
-1.34
-4.14
-6.72
-9.07
-11.37
-13.98
-17.21
-21.16
-25.62
-29.98
-33.43
-35.00
-34.09
-30.48
-24.57
-17.15
-9.18
-1.45
5.55
11.63
16.74
20.78
23.60
25.08
25.29
24.53
23.34
22.24
21.62
21.60
21.94
22.23
22.10
21.37
20.20
18.97
18.10
17.72
17.65
17.45
16.56
14.69
11.90
8.61
5.34
2.53
0.35
-1.35
-2.98
-4.95
-7.70
-11.41
-15.99
-20.97
-25.58
-28.92
-30.21
-29.01
-25.39
-19.89
-13.32
-6.53
-0.26
5.05
9.15
11.98
13.63
14.32
14.38
14.19
14.12
14.29
14.64
14.88
14.83
14.43
13.90
13.55
13.59
13.95
14.26
14.06
12.95
10.84
7.84
4.24
0.39
-3.40
-6.82
-9.57
-11.51
-12.71
-13.52
-14.53
-16.35
-19.29
-23.22
-27.49
-31.10
-32.93
-32.09
-28.25
-21.61
-13.00
-3.52
5.66
13.66
19.96
24.42
27.16
28.43
28.57
27.96
26.95
25.82
24.72
23.67
22.56
21.30
19.89
18.41
16.97
15.60
14.20
12.58
10.57
8.06
5.10
1.88
-1.34
-4.33
-7.03
-9.47
-11.82
-14.28
-17.01
-20.13
-23.70
-27.74
-32.15
-36.65
-40.81
-44.03
-45.80
-45.80
-43.97
-40.42
-35.41
-29.13
-21.86
-13.94
-5.91
1.60
7.99
12.87
16.14
17.92
18.51
18.20
17.34
16.23
15.17
14.43
14.17
14.46
15.22
16.36
17.80
19.47
21.21
22.77
23.83
24.09
23.40
21.77
19.45
16.71
13.75
10.67
7.38
3.68
-0.62
-5.62
-11.27
-17.26
-23.05
-27.92
-31.15
-32.20
-30.77
-26.91
-20.94
-13.38
-4.97
3.47
11.10
17.26
21.55
23.96
24.86
24.84
24.45
24.05
23.75
23.39
22.71
21.58
20.06
18.53
17.50
17.39
18.26
19.73
21.13
21.74
21.12
19.27
16.56
13.61
10.97
9.01
7.77
7.08
6.56
5.76
4.29
1.96
-1.13
-4.62
-7.92
-10.40
-11.50
-10.79
-7.98
-2.99
4.07
12.85
22.78
33.14
43.04
51.70
58.42
62.83
64.95
65.21
64.38
63.52
63.70
65.92
70.72
77.78
85.53
91.01
90.45
80.36
58.81
26.41
-13.78
-57.21
-99.19
-135.94
-164.78
-183.75
-191.27
-186.41
-169.64
-143.59
-112.98
-83.50
-60.07
-45.28
-39.00
-39.04
-42.45
-46.75
-50.39
-52.59
-52.85
-50.68
-45.67
-37.71
-27.32
-15.55
-3.72
6.99
15.88
22.82
28.15
32.34
35.80
38.66
40.80
41.97
41.97
40.90
39.15
37.34
36.02
35.57
35.93
36.72
37.39
37.43
36.58
34.81
32.30
29.26
25.81
22.01
17.89
13.60
9.33
5.30
1.58
-1.99
-5.66
-9.63
-13.95
-18.49
-22.97
-27.24
-31.19
-34.78
-37.88
-40.09
-40.85
-39.53
-35.83
-29.76
-21.87
-12.95
-3.91
4.37
11.23
16.29
19.50
21.10
21.50
21.10
20.23
19.09
17.84
16.59
15.54
14.84
14.60
14.77
15.23
15.79
16.33
16.74
16.99
16.96
16.56
15.70
14.33
12.50
10.27
7.80
5.19
2.58
0.05
-2.39
-4.86
-7.63
-10.95
-15.00
-19.61
-24.21
-27.97
-29.95
-29.43
-26.12
-20.22
-12.41
-3.68
4.94
12.52
18.49
22.62
25.01
25.98
25.92
25.17
23.98
22.49
20.87
19.33
18.07
17.19
16.69
16.42
16.17
15.78
15.15
14.25
13.16
11.94
10.58
9.00
7.08
4.68
1.86
-1.25
-4.39
-7.40
-10.20
-12.92
-15.80
-19.11
-23.05
-27.64
-32.69
-37.74
-42.14
-45.15
-46.10
-44.56
-40.60
-34.67
-27.52
-19.99
-12.70
-6.00
-0.01
5.22
9.58
12.87
14.97
15.89
15.93
15.59
15.43
15.90
17.15
19.05
21.24
23.30
24.85
25.64
25.61
24.85
23.58
22.04
20.52
19.21
18.17
17.32
16.36
14.94
12.75
9.68
5.92
1.91
-1.84
-4.97
-7.47
-9.71
-12.21
-15.48
-19.62
-24.29
-28.74
-32.04
-33.47
-32.61
-29.54
-24.65
-18.56
-11.84
-4.98
1.58
7.52
12.52
16.34
18.87
20.19
20.57
20.34
19.85
19.38
19.08
19.00
19.11
19.25
19.25
18.93
18.18
17.08
15.81
14.58
13.50
12.52
11.35
9.69
7.26
4.03
0.18
-3.87
-7.73
-11.16
-14.19
-17.06
-20.05
-23.34
-26.88
-30.45
-33.62
-35.90
-36.83
-36.06
-33.47
-29.12
-23.35
-16.64
-9.58
-2.75
3.37
8.41
12.10
14.32
15.15
14.84
13.83
12.63
11.67
11.16
11.09
11.20
11.15
10.70
9.82
8.75
7.86
7.44
7.58
8.02
8.40
8.33
7.54
6.00
3.85
1.28
-1.54
-4.48
-7.50
-10.61
-13.91
-17.52
-21.45
-25.51
-29.26
-32.02
-33.10
-32.03
-28.72
-23.55
-17.13
-10.18
-3.28
3.18
8.98
13.96
17.96
20.77
22.29
22.54
21.80
20.53
19.22
18.26
17.79
17.75
17.94
18.21
18.55
19.03
19.71
20.50
21.12
21.19
20.39
18.59
15.90
12.55
8.78
4.75
0.55
-3.69
-7.80
-11.62
-15.16
-18.61
-22.30
-26.51
-31.13
-35.63
-39.14
-40.74
-39.90
-36.53
-31.06
-24.22
-16.76
-9.34
-2.35
3.92
9.32
13.68
16.84
18.68
19.24
18.79
17.85
16.99
16.68
17.10
18.06
19.18
20.06
20.49
20.50
20.32
20.25
20.48
21.00
21.59
21.85
21.31
19.60
16.65
12.74
8.41
4.29
0.79
-2.08
-4.67
-7.55
-11.23
-15.96
-21.63
-27.77
-33.63
-38.30
-40.88
-40.73
-37.61
-31.82
-24.12
-15.52
-6.98
0.79
7.37
12.60
16.45
18.98
20.34
20.80
20.70
20.34
19.86
19.24
18.42
17.39
16.35
15.61
15.42
15.89
16.83
17.88
18.63
18.72
17.95
16.18
13.43
9.78
5.49
0.92
-3.54
-7.60
-11.20
-14.55
-18.01
-21.90
-26.39
-31.30
-36.20
-40.43
-43.29
-44.13
-42.56
-38.56
-32.45
-24.89
-16.64
-8.46
-0.89
5.72
11.15
15.24
17.80
18.73
18.11
16.32
14.02
11.93
10.62
10.28
10.67
11.33
11.79
11.74
11.16
10.23
9.23
8.36
7.72
7.24
6.69
5.82
4.35
2.16
-0.71
-4.08
-7.65
-11.15
-14.42
-17.48
-20.52
-23.81
-27.59
-31.95
-36.66
-41.10
-44.40
-45.60
-43.99
-39.35
-32.11
-23.19
-13.79
-5.03
2.30
7.88
11.77
14.23
15.61
16.21
16.32
16.25
16.27
16.55
17.06
17.57
17.74
17.31
16.25
14.84
13.50
12.61
12.30
12.41
12.60
12.47
11.76
10.36
8.33
5.86
3.20
0.63
-1.65
-3.52
-5.11
-6.70
-8.65
-11.33
-15.00
-19.73
-25.35
-31.42
-37.16
-41.60
-43.76
-42.92
-38.89
-32.10
-23.53
-14.33
-5.55
2.18
8.65
14.00
18.45
22.15
25.13
27.33
28.80
29.68
30.28
30.81
31.42
32.10
32.76
33.44
34.23
35.29
36.58
37.80
38.44
37.95
36.13
33.16
29.45
25.48
21.51
17.52
13.42
9.17
4.86
0.66
-3.34
-7.20
-11.12
-15.31
-19.88
-24.78
-29.85
-34.80
-39.28
-42.86
-45.04
-45.30
-43.24
-38.71
-31.96
-23.61
-14.49
-5.52
2.53
9.14
14.17
17.74
20.09
21.43
21.91
21.60
20.63
19.29
18.02
17.22
17.14
17.63
18.26
18.53
18.12
17.07
15.68
14.36
13.38
12.67
11.88
10.61
8.61
5.85
2.55
-0.97
-4.38
-7.46
-10.10
-12.32
-14.22
-16.07
-18.20
-20.95
-24.52
-28.85
-33.52
-37.76
-40.64
-41.26
-39.13
-34.27
-27.26
-19.06
-10.69
-2.92
3.75
9.22
13.55
16.83
19.13
20.53
21.13
21.14
20.86
20.60
20.64
21.10
21.96
23.08
24.26
25.31
26.09
26.52
26.55
26.10
25.12
23.57
21.59
19.46
17.47
15.89
14.76
13.93
13.05
11.78
9.91
7.41
4.45
1.23
-2.02
-5.13
-8.01
-10.66
-13.12
-15.51
-17.95
-20.58
-23.49
-26.75
-30.36
-34.26
-38.31
-42.25
-45.65
-48.00
-48.70
-47.21
-43.34
-37.22
-29.39
-20.68
-11.96
-3.98
2.75
8.05
11.95
14.56
16.05
16.59
16.43
15.92
15.41
15.25
15.61
16.39
17.34
18.15
18.62
18.75
18.69
18.62
18.63
18.74
18.83
18.78
18.42
17.61
16.23
14.35
12.14
9.92
7.97
6.46
5.29
4.27
3.15
1.77
0.12
-1.77
-3.94
-6.47
-9.48
-13.05
-17.10
-21.47
-25.88
-29.95
-33.27
-35.35
-35.70
-33.91
-29.84
-23.71
-16.11
-7.87
0.16
7.27
13.03
17.27
20.06
21.58
22.14
22.09
21.75
21.33
20.87
20.33
19.69
19.05
18.65
18.73
19.37
20.38
21.31
21.66
21.16
19.86
18.04
16.05
14.08
12.14
10.08
7.81
5.31
2.66
-0.07
-2.89
-5.86
-9.08
-12.47
-15.86
-18.98
-21.66
-23.89
-25.87
-27.88
-30.16
-32.73
-35.33
-37.50
-38.62
-38.17
-35.79
-31.48
-25.53
-18.53
-11.20
-4.23
1.82
6.65
10.13
12.33
13.37
13.46
12.92
12.13
11.48
11.26
11.57
12.25
13.03
13.59
13.80
13.69
13.42
13.16
12.99
12.82
12.43
11.62
10.29
8.52
6.59
4.78
3.30
2.16
1.17
0.03
-1.52
-3.56
-5.95
-8.46
-10.86
-13.06
-15.16
-17.42
-20.06
-23.18
-26.71
-30.29
-33.38
-35.36
-35.69
-34.04
-30.44
-25.21
-18.88
-12.09
-5.33
1.01
6.69
11.49
15.14
17.41
18.16
17.50
15.82
13.70
11.72
10.36
9.83
10.06
10.80
11.71
12.55
13.18
13.69
14.25
14.99
15.95
16.93
17.61
17.57
16.63
14.82
12.45
9.96
7.69
5.81
4.18
2.55
0.59
-1.84
-4.73
-7.90
-11.13
-14.33
-17.48
-20.68
-23.99
-27.28
-30.17
-32.03
-32.25
-30.37
-26.38
-20.73
-14.21
-7.65
-1.72
3.33
7.47
10.86
13.52
15.39
16.34
16.34
15.61
14.52
13.50
12.88
12.75
13.06
13.64
14.38
15.17
15.97
16.61
16.88
16.54
15.47
13.71
11.56
9.35
7.40
5.80
4.40
2.88
0.96
-1.47
-4.29
-7.25
-10.09
-12.67
-15.04
-17.33
-19.70
-22.25
-24.99
-27.78
-30.38
-32.39
-33.39
-32.98
-31.00
-27.47
-22.65
-16.94
-10.81
-4.77
0.73
5.27
8.68
10.99
12.49
13.53
14.38
15.01
15.24
14.82
13.76
12.31
10.93
10.04
9.87
10.38
11.31
12.32
13.18
13.72
13.91
13.78
13.40
12.78
11.89
10.65
8.97
6.86
4.44
1.91
-0.54
-2.84
-5.07
-7.40
-10.00
-12.87
-15.91
-18.90
-21.60
-23.81
-25.27
-25.74
-24.89
-22.52
-18.51
-13.01
-6.45
0.58
7.37
13.32
18.03
21.38
23.44
24.45
24.68
24.36
23.62
22.54
21.20
19.77
18.52
17.78
17.84
18.76
20.32
22.03
23.33
23.83
23.48
22.63
21.83
21.62
22.26
23.63
25.27
26.61
27.19
26.84
25.65
23.89
21.96
20.39
19.79
20.81
23.75
27.96
31.51
31.40
24.47
8.71
-15.79
-46.64
-79.91
-111.47
-137.96
-157.08
-167.41
-168.06
-158.76
-140.41
-115.34
-87.24
-60.23
-37.58
-20.86
-9.85
-3.24
0.51
2.50
3.31
3.25
2.60
1.74
1.05
0.83
1.12
1.83
2.73
3.47
3.75
3.31
2.19
0.67
-0.81
-1.94
-2.69
-3.41
-4.60
-6.63
-9.55
-13.08
-16.89
-20.78
-24.73
-28.75
-32.62
-35.78
-37.42
-36.88
-33.95
-28.96
-22.57
-15.44
-7.92
-0.07
8.12
16.42
24.27
30.99
35.98
39.07
40.51
40.80
40.42
39.66
38.63
37.41
36.21
35.29
34.90
35.04
35.38
35.42
34.62
32.71
29.77
26.19
22.48
19.06
16.05
13.33
10.57
7.41
3.76
-0.27
-4.28
-7.84
-10.60
-12.57
-14.08
-15.66
-17.82
-20.75
-24.20
-27.53
-29.87
-30.45
-28.70
-24.44
-17.88
-9.55
-0.30
8.91
17.14
23.69
28.27
30.96
32.18
32.39
31.96
31.13
30.04
28.86
27.82
27.15
26.99
27.32
27.93
28.50
28.74
28.46
27.61
26.28
24.58
22.67
20.64
18.54
16.30
13.82
10.95
7.58
3.68
-0.70
-5.37
-10.14
-14.90
-19.65
-24.47
-29.36
-34.08
-38.03
-40.48
-40.73
-38.52
-34.10
-28.15
-21.56
-15.02
-8.91
-3.36
1.62
5.84
9.03
10.94
11.58
11.22
10.42
9.71
9.45
9.66
10.13
10.64
11.08
11.53
12.12
12.87
13.58
13.87
13.41
12.05
9.91
7.31
4.57
1.86
-0.85
-3.67
-6.71
-9.92
-13.18
-16.43
-19.76
-23.37
-27.42
-31.91
-36.39
-40.14
-42.32
-42.25
-39.61
-34.50
-27.38
-18.94
-10.03
-1.43
6.19
12.44
17.27
20.88
23.61
25.72
27.25
28.06
27.98
27.03
25.51
23.90
22.74
22.31
22.52
22.97
23.20
22.88
21.97
20.69
19.36
18.20
17.25
16.32
15.14
13.52
11.40
8.91
6.19
3.40
0.58
-2.31
-5.33
-8.57
-12.07
-15.94
-20.22
-24.93
-29.93
-34.77
-38.77
-41.18
-41.28
-38.72
-33.63
-26.56
-18.30
-9.70
-1.44
5.99
12.27
17.19
20.61
22.51
23.07
22.65
21.69
20.57
19.57
18.73
17.97
17.18
16.34
15.50
14.77
14.17
13.62
12.97
12.08
10.87
9.30
7.38
5.09
2.50
-0.25
-2.98
-5.49
-7.70
-9.73
-11.88
-14.52
-17.89
-21.99
-26.60
-31.30
-35.65
-39.16
-41.39
-41.92
-40.40
-36.67
-30.85
-23.35
-14.86
-6.19
1.92
8.90
14.43
18.42
20.94
22.18
22.31
21.59
20.25
18.61
17.02
15.85
15.38
15.66
16.53
17.64
18.60
19.10
19.03
18.43
17.46
16.28
15.00
13.63
12.09
10.23
7.95
5.19
2.05
-1.21
-4.36
-7.26
-9.99
-12.82
-16.07
-19.94
-24.49
-29.60
-35.02
-40.40
-45.23
-48.84
-50.43
-49.32
-45.16
-38.15
-29.06
-18.93
-8.88
0.20
7.76
13.59
17.76
20.51
22.17
23.03
23.41
23.49
23.45
23.42
23.50
23.84
24.47
25.32
26.24
27.01
27.52
27.81
28.05
28.38
28.81
29.14
29.10
28.46
27.13
25.23
22.94
20.36
17.57
14.50
11.07
7.29
3.21
-1.05
-5.35
-9.55
-13.49
-16.99
-19.92
-22.25
-24.09
-25.77
-27.78
-30.58
-34.43
-39.15
-43.96
-47.66
-48.94
-46.83
-41.08
-32.35
-21.92
-11.24
-1.53
6.54
12.84
17.55
20.91
23.04
23.99
23.86
22.88
21.46
20.08
19.08
18.64
18.67
18.96
19.28
19.55
19.77
20.04
20.36
20.59
20.45
19.63
17.94
15.41
12.28
8.89
5.51
2.28
-0.83
-3.96
-7.21
-10.65
-14.27
-18.00
-21.76
-25.47
-29.12
-32.79
-36.64
-40.78
-45.16
-49.31
-52.41
-53.41
-51.42
-46.13
-37.98
-28.07
-17.75
-8.18
-0.06
6.39
11.27
14.70
16.80
17.62
17.40
16.49
15.41
14.63
14.44
14.87
15.75
16.84
17.96
19.00
19.85
20.41
20.46
19.73
18.10
15.62
12.52
9.12
5.69
2.29
-1.18
-4.92
-9.06
-13.50
-18.03
-22.37
-26.42
-30.33
-34.44
-39.13
-44.68
-51.03
-57.76
-64.10
-69.08
-71.74
-71.37
-67.71
-61.10
-52.48
-43.10
-34.18
-26.66
-20.95
-16.98
-14.42
-12.82
-11.73
-10.71
-9.39
-7.49
-4.96
-2.07
0.67
2.67
3.48
2.99
1.43
-0.81
-3.35
-6.03
-8.85
-12.02
-15.75
-20.32
-25.94
-32.72
-40.65
-49.42
-58.50
-67.13
-74.57
-80.26
-83.93
-85.70
-85.86
-84.77
-82.61
-79.32
-74.64
-68.37
-60.65
-52.18
-44.19
-37.96
-34.29
-32.98
-32.74
-31.61
-27.73
-20.09
-8.92
4.46
18.22
30.65
40.70
48.11
53.15
56.42
58.52
60.02
61.45
63.34
66.11
69.89
74.46
79.12
83.00
85.35
85.85
84.75
82.81
80.95
80.05
80.61
82.73
86.09
90.09
93.89
96.60
97.40
95.74
91.49
85.04
77.27
69.30
62.26
56.90
53.41
51.30
49.59
47.15
43.09
37.14
29.79
22.17
15.65
11.42
10.08
11.48
14.85
19.07
23.14
26.43
28.80
30.43
31.59
32.34
32.51
31.78
30.00
27.31
24.10
20.85
17.84
15.04
12.19
9.12
5.90
2.98
0.89
-0.06
-0.13
-0.18
-1.25
-4.17
-9.06
-15.27
-21.64
-27.01
-30.63
-32.49
-33.23
-33.78
-35.05
-37.60
-41.53
-46.45
-51.53
-55.66
-57.66
-56.67
-52.36
-45.14
-36.00
-26.07
-16.27
-6.99
1.78
10.30
18.57
26.26
32.72
37.28
39.59
39.76
38.34
36.11
33.83
32.00
30.66
29.37
27.40
23.93
18.46
11.02
2.33
-6.44
-14.08
-19.70
-23.09
-24.64
-25.11
-25.35
-25.97
-27.32
-29.52
-32.51
-36.12
-40.00
-43.64
-46.45
-48.02
-48.23
-47.30
-45.47
-42.80
-38.96
-33.42
-25.86
-16.55
-6.39
3.36
11.69
18.22
23.28
27.59
31.66
35.58
38.96
41.34
42.58
43.02
43.33
44.16
45.77
48.00
50.33
52.29
53.65
54.44
54.67
54.18
52.47
49.07
43.88
37.35
30.50
24.50
20.19
17.83
17.08
17.21
17.45
17.08
15.56
12.50
7.75
1.38
-6.33
-15.09
-24.78
-35.45
-47.06
-59.19
-70.77
-80.25
-86.15
-87.47
-84.16
-77.10
-67.79
-58.06
-49.69
-44.18
-42.57
-45.23
-51.77
-61.09
-71.58
-81.54
-89.60
-95.14
-98.40
-100.34
-102.19
-104.93
-108.94
-113.88
-118.97
-123.29
-126.11
-126.94
-125.56
-121.95
-116.48
-110.13
-104.51
-101.46
-102.31
-107.02
-113.84
-119.82
-121.96
-118.51
-109.75
-97.73
-85.29
-74.67
-66.65
-60.44
-54.38
-46.81
-36.79
-24.27
-9.89
5.31
20.27
33.88
45.22
53.74
59.51
63.29
66.27
69.64
73.91
78.70
82.96
85.34
84.89
81.49
75.81
69.08
62.55
57.13
53.12
50.33
48.26
46.35
44.12
41.22
37.43
32.60
26.70
19.85
12.24
4.05
-4.63
-13.84
-23.56
-33.39
-42.39
-49.07
-51.77
-49.22
-41.10
-28.21
-12.30
4.44
20.15
33.57
44.28
52.45
58.48
62.74
65.41
66.58
66.41
65.28
63.84
62.82
62.85
64.22
66.85
70.25
73.68
76.31
77.37
76.32
72.97
67.58
60.77
53.46
46.56
40.83
36.54
33.37
30.42
26.53
20.71
12.70
3.27
-5.82
-12.26
-14.05
-10.02
-0.36
13.57
29.77
46.14
61.00
73.23
82.28
88.06
90.84
91.19
89.87
87.61
84.98
82.17
79.07
75.48
71.39
67.14
63.42
60.88
59.89
60.21
61.13
61.61
60.76
58.01
53.32
47.12
40.19
33.50
28.02
24.58
23.61
24.93
27.77
30.89
32.99
33.18
31.26
27.81
24.01
20.96
19.25
18.59
17.91
15.78
11.11
3.65
-5.87
-15.94
-24.95
-31.72
-35.91
-38.08
-39.49
-41.62
-45.63
-52.00
-60.27
-69.17
-76.96
-81.91
-82.86
-79.47
-72.12
-61.65
-48.95
-34.82
-19.96
-5.12
8.77
20.75
30.09
36.59
40.69
43.26
45.26
47.44
50.19
53.64
57.93
63.25
69.77
77.34
85.27
92.26
96.73
97.37
93.70
86.45
77.41
68.90
62.95
60.43
60.70
61.85
61.53
58.00
50.86
41.05
30.26
19.97
10.73
2.12
-6.80
-16.66
-27.18
-37.18
-45.13
-49.96
-51.63
-51.22
-50.38
-50.63
-52.68
-56.43
-61.13
-65.97
-70.36
-73.99
-76.45
-76.97
-74.42
-67.72
-56.53
-41.64
-24.92
-8.65
5.27
15.91
23.40
28.51
32.03
34.42
35.68
35.70
34.53
32.62
30.68
29.33
28.88
29.22
30.00
30.83
31.49
31.83
31.80
31.29
30.26
28.77
27.06
25.42
24.06
23.02
22.17
21.35
20.57
19.95
19.67
19.81
20.25
20.63
20.49
19.34
16.82
12.75
7.26
0.81
-5.86
-11.91
-16.83
-20.66
-24.16
-28.54
-35.05
-44.51
-56.83
-70.96
-85.09
-97.06
-105.00
-107.91
-105.89
-100.00
-91.82
-82.73
-73.46
-64.09
-54.36
-44.20
-34.07
-24.96
-17.98
-13.83
-12.38
-12.68
-13.29
-12.84
-10.50
-6.20
-0.46
5.91
12.24
18.18
23.73
29.00
34.12
39.08
43.81
48.27
52.44
56.27
59.52
61.79
62.62
61.70
59.02
54.83
49.55
43.65
37.63
31.96
27.19
23.67
21.51
20.31
19.31
17.62
14.61
10.16
4.60
-1.58
-8.04
-14.72
-21.61
-28.53
-34.79
-39.34
-41.03
-39.19
-33.84
-25.73
-16.03
-5.83
4.09
13.33
21.67
28.86
34.54
38.40
40.32
40.57
39.70
38.28
36.65
34.85
32.74
30.16
27.23
24.29
21.70
19.69
18.14
16.68
14.75
11.91
7.92
2.91
-2.69
-8.18
-12.74
-15.65
-16.56
-15.69
-13.80
-12.00
-11.28
-12.25
-14.92
-18.81
-23.23
-27.54
-31.37
-34.55
-37.13
-39.24
-41.19
-43.48
-46.68
-51.20
-56.93
-62.99
-67.87
-69.89
-67.88
-61.71
-52.34
-41.42
-30.56
-20.70
-11.98
-3.99
3.56
10.47
15.90
18.83
18.56
15.19
9.62
3.33
-2.16
-5.61
-6.31
-4.11
0.62
7.15
14.46
21.39
26.84
29.95
30.27
27.82
23.07
16.84
10.05
3.45
-2.63
-8.38
-14.35
-21.08
-28.69
-36.76
-44.59
-51.64
-57.87
-63.85
-70.23
-77.25
-84.26
-89.85
-92.40
-90.91
-85.47
-77.20
-67.63
-57.94
-48.46
-38.77
-28.29
-17.03
-5.94
3.32
9.19
11.08
9.84
7.50
6.34
7.81
11.88
17.17
21.68
23.88
23.41
21.16
18.64
17.24
17.54
19.22
21.37
23.02
23.53
22.75
20.89
18.47
16.01
13.98
12.62
11.90
11.43
10.64
8.94
5.98
1.87
-2.96
-7.92
-12.70
-17.38
-22.43
-28.29
-34.93
-41.59
-46.89
-49.32
-47.85
-42.37
-33.70
-23.37
-13.06
-4.24
2.00
5.01
4.63
1.22
-4.27
-10.46
-15.83
-19.20
-20.04
-18.66
-15.95
-13.12
-11.24
-10.93
-12.31
-15.01
-18.42
-21.78
-24.54
-26.32
-27.01
-26.71
-25.56
-23.81
-21.68
-19.42
-17.24
-15.24
-13.32
-11.22
-8.64
-5.50
-2.12
0.76
2.13
1.06
-2.88
-9.33
-17.05
-24.14
-28.64
-29.11
-25.18
-17.69
-8.39
0.81
8.55
14.53
19.35
23.99
29.00
34.14
38.36
40.44
39.58
35.95
30.59
24.97
20.41
17.61
16.54
16.71
17.50
18.46
19.41
20.33
21.14
21.64
21.50
20.36
18.08
14.78
10.85
6.88
3.37
0.61
-1.44
-3.08
-4.72
-6.66
-8.94
-11.42
-13.86
-16.06
-18.02
-19.85
-21.61
-23.19
-24.24
-24.23
-22.67
-19.16
-13.59
-6.03
3.16
13.42
23.91
33.60
41.47
46.75
49.21
49.19
47.50
45.19
43.14
41.93
41.70
42.33
43.51
44.99
46.64
48.49
50.66
53.16
55.70
57.77
58.74
58.10
55.78
52.19
48.00
43.89
40.17
36.84
33.74
30.79
28.15
26.09
24.69
23.77
22.96
22.04
21.15
20.73
21.06
21.82
22.00
20.27
15.75
8.75
0.86
-5.72
-9.11
-8.73
-5.49
-1.23
2.13
3.45
2.63
0.24
-3.00
-6.55
-10.14
-13.50
-16.16
-17.48
-16.98
-14.68
-11.25
-7.77
-5.30
-4.43
-5.20
-7.19
-9.86
-12.74
-15.51
-18.01
-20.19
-22.19
-24.31
-26.93
-30.30
-34.40
-38.87
-43.21
-47.14
-50.75
-54.47
-58.70
-63.37
-67.72
-70.54
-70.59
-67.13
-60.18
-50.45
-38.95
-26.74
-14.79
-3.97
4.79
10.56
12.79
11.64
8.15
4.06
1.25
0.90
3.13
6.94
10.79
13.42
14.39
14.33
14.44
15.85
18.90
23.02
27.02
29.66
30.25
28.84
26.04
22.60
19.05
15.56
12.06
8.50
5.05
2.10
0.01
-1.12
-1.66
-2.35
-4.04
-7.29
-12.19
-18.30
-24.93
-31.38
-37.12
-41.84
-45.22
-46.91
-46.57
-44.03
-39.53
-33.62
-26.99
-20.16
-13.37
-6.61
0.02
6.20
11.39
15.07
17.09
17.77
17.78
17.72
17.92
18.30
18.61
18.72
18.78
19.25
20.62
23.16
26.66
30.52
33.86
35.89
36.12
34.46
31.24
27.07
22.62
18.48
15.03
12.36
10.26
8.35
6.14
3.31
-0.29
-4.52
-9.08
-13.67
-18.14
-22.50
-26.89
-31.41
-36.01
-40.53
-44.71
-48.32
-51.08
-52.67
-52.61
-50.39
-45.61
-38.21
-28.68
-17.95
-7.18
2.55
10.49
16.32
20.08
22.03
22.58
22.14
21.19
20.16
19.38
19.10
19.43
20.38
21.89
23.89
26.26
28.79
31.21
33.19
34.47
34.87
34.37
33.01
30.95
28.41
25.63
22.88
20.29
17.80
15.04
11.46
6.53
0.10
-7.43
-15.12
-21.85
-26.78
-29.69
-31.05
-31.77
-32.80
-34.70
-37.47
-40.58
-43.17
-44.39
-43.55
-40.34
-34.85
-27.44
-18.68
-9.33
-0.29
7.44
12.87
15.37
14.97
12.41
9.04
6.23
4.88
5.02
5.98
6.73
6.55
5.30
3.41
1.62
0.50
0.19
0.39
0.48
-0.12
-1.72
-4.26
-7.41
-10.71
-13.86
-16.83
-19.86
-23.29
-27.38
-32.13
-37.32
-42.62
-47.72
-52.31
-56.13
-58.90
-60.41
-60.63
-60.00
-59.45
-60.24
-63.36
-69.02
-76.27
-83.15
-87.43
-87.42
-82.62
-73.79
-62.39
-49.96
-37.54
-25.66
-14.60
-4.72
3.43
9.41
13.16
15.21
16.51
17.95
19.98
22.39
24.55
25.80
25.84
24.91
23.63
22.57
22.02
21.74
21.20
19.95
17.97
15.83
14.45
14.56
16.23
18.67
20.49
20.29
17.29
11.76
4.92
-1.45
-5.82
-7.52
-7.04
-5.81
-5.59
-7.66
-12.20
-18.19
-23.80
-27.20
-27.19
-23.67
-17.41
-9.66
-1.66
5.72
11.98
16.93
20.54
23.00
24.62
25.83
27.04
28.39
29.79
30.95
31.66
31.98
32.19
32.62
33.42
34.48
35.43
35.93
35.76
34.99
33.77
32.22
30.37
28.16
25.61
22.79
19.82
16.65
13.13
9.01
4.20
-1.02
-6.01
-9.89
-12.00
-12.16
-10.84
-9.07
-8.03
-8.62
-11.10
-14.85
-18.62
-20.83
-20.14
-15.97
-8.67
0.53
9.88
17.68
22.65
24.29
22.97
19.84
16.36
13.92
13.30
14.47
16.71
18.98
20.47
20.89
20.57
20.16
20.28
21.20
22.82
24.69
26.25
27.00
26.59
24.91
22.13
18.57
14.62
10.60
6.69
2.99
-0.45
-3.58
-6.43
-9.24
-12.47
-16.62
-21.95
-28.21
-34.57
-39.94
-43.45
-44.74
-44.04
-41.97
-39.05
-35.47
-31.07
-25.50
-18.66
-10.82
-2.62
5.16
11.83
16.99
20.52
22.50
23.15
22.79
21.87
20.94
20.56
21.13
22.80
25.37
28.38
31.29
33.72
35.52
36.83
37.90
38.87
39.66
39.86
38.99
36.66
32.90
28.18
23.28
18.94
15.60
13.26
11.60
10.25
9.02
7.97
7.22
6.88
6.85
6.81
6.37
5.18
3.08
0.04
-3.76
-8.00
-12.25
-15.98
-18.68
-19.93
-19.49
-17.33
-13.66
-8.77
-3.02
3.15
9.35
15.20
20.37
24.58
27.64
29.51
30.32
30.31
29.86
29.32
28.96
28.88
29.05
29.35
29.77
30.36
31.21
32.26
33.27
33.77
33.30
31.53
28.49
24.51
20.14
15.94
12.38
9.72
7.96
6.89
6.13
5.19
3.68
1.50
-1.10
-3.46
-4.78
-4.40
-2.06
1.92
6.68
11.03
13.87
14.54
13.21
10.94
9.33
10.05
14.11
21.46
30.97
40.87
49.38
55.40
58.69
59.83
59.69
59.10
58.46
57.86
57.14
56.08
54.47
52.15
49.01
44.99
40.08
34.30
27.71
20.39
12.44
4.09
-4.27
-12.15
-19.20
-25.33
-30.77
-35.99
-41.27
-46.52
-51.20
-54.67
-56.62
-57.53
-58.52
-61.00
-65.91
-73.37
-82.56
-92.22
-101.18
-108.84
-115.21
-120.71
-125.82
-130.88
-136.06
-141.34
-146.44
-150.68
-152.98
-152.02
-146.80
-137.13
-123.91
-108.86
-93.97
-80.77
-69.98
-61.54
-55.00
-50.01
-46.52
-44.73
-44.62
-45.65
-46.64
-46.18
-43.23
-37.76
-30.96
-24.83
-21.34
-21.40
-24.29
-27.81
-29.17
-26.27
-18.58
-7.42
4.69
15.08
21.97
24.93
24.71
22.69
20.11
17.67
15.41
13.03
10.29
7.31
4.61
2.90
2.60
3.56
4.99
5.72
4.74
1.57
-3.50
-9.55
-15.35
-19.71
-21.73
-20.86
-16.96
-10.39
-1.96
7.17
15.79
23.06
28.75
33.22
37.07
40.67
43.92
46.23
47.05
46.18
44.10
41.88
40.64
41.15
43.43
46.82
50.25
52.79
53.97
53.81
52.76
51.26
49.54
47.48
44.69
40.68
35.08
27.84
19.36
10.59
2.89
-2.37
-4.38
-3.36
-0.75
1.26
0.46
-4.43
-13.35
-25.04
-37.72
-49.80
-60.31
-68.76
-74.92
-78.41
-78.77
-75.73
-69.49
-60.79
-50.71
-40.27
-30.19
-20.80
-12.27
-4.77
1.40
5.79
8.03
8.07
6.29
3.55
1.09
0.18
1.86
6.56
13.96
23.06
32.33
40.06
44.66
45.14
41.30
34.02
25.10
16.85
11.41
9.98
12.51
17.72
23.63
28.31
30.48
29.80
26.76
22.41
17.96
14.63
13.38
14.71
18.41
23.41
27.91
30.00
28.48
23.46
16.45
9.73
5.40
4.46
6.59
10.58
15.05
19.08
22.35
24.79
26.29
26.55
25.46
23.42
21.42
20.59
21.56
23.97
26.59
27.92
27.00
23.87
19.38
14.66
10.43
6.73
3.13
-0.77
-4.88
-8.70
-11.64
-13.55
-14.91
-16.57
-19.22
-22.95
-27.18
-30.94
-33.54
-34.85
-35.35
-35.79
-36.70
-38.15
-39.82
-41.37
-42.71
-44.07
-45.76
-47.82
-49.75
-50.54
-49.04
-44.43
-36.66
-26.45
-15.17
-4.34
4.85
11.82
16.69
19.97
22.27
24.04
25.44
26.49
27.20
27.64
27.96
28.28
28.62
28.89
28.93
28.68
28.14
27.44
26.72
26.07
25.47
24.77
23.77
22.24
20.06
17.18
13.73
9.96
6.19
2.74
-0.15
-2.42
-4.29
-6.23
-8.84
-12.62
-17.70
-23.63
-29.48
-34.08
-36.47
-36.13
-33.13
-28.00
-21.48
-14.27
-6.99
-0.13
5.92
10.84
14.50
16.99
18.59
19.72
20.77
21.97
23.30
24.54
25.40
25.69
25.45
24.95
24.58
24.72
25.55
27.02
28.89
30.83
32.44
33.38
33.35
32.23
30.07
27.17
23.98
20.96
18.35
16.10
13.92
11.49
8.67
5.52
2.26
-0.90
-3.88
-6.70
-9.40
-11.83
-13.56
-14.04
-12.70
-9.24
-3.78
3.13
10.68
17.96
24.23
29.07
32.36
34.35
35.43
36.07
36.69
37.59
38.91
40.64
42.69
44.89
47.09
49.17
51.12
52.91
54.62
56.31
58.09
60.05
62.20
64.38
66.25
67.39
67.44
66.36
64.38
61.95
59.48
57.18
54.95
52.55
49.90
47.19
44.86
43.35
42.73
42.57
42.01
40.04
36.05
30.00
22.49
14.50
7.07
0.97
-3.43
-6.23
-7.83
-8.83
-9.75
-10.97
-12.59
-14.49
-16.49
-18.43
-20.33
-22.31
-24.44
-26.71
-29.03
-31.27
-33.42
-35.53
-37.59
-39.46
-40.81
-41.32
-41.00
-40.34
-40.16
-41.40
-44.57
-49.49
-55.32
-60.97
-65.54
-68.78
-71.08
-73.22
-75.83
-79.18
-82.93
-86.48
-89.20
-90.70
-90.99
-90.37
-89.39
-88.70
-88.87
-90.14
-92.17
-93.88
-93.59
-89.56
-80.64
-66.80
-49.29
-30.23
-12.05
3.30
14.73
22.17
26.26
28.04
28.54
28.50
28.32
28.05
27.59
26.73
25.32
23.23
20.50
17.36
14.31
12.08
11.49
13.14
17.10
22.85
29.25
34.93
38.70
39.73
37.89
33.61
27.82
21.65
16.08
11.75
8.74
6.67
4.95
3.02
0.53
-2.58
-6.15
-9.85
-13.24
-15.78
-16.86
-15.94
-12.70
-7.20
0.10
8.41
16.88
24.75
31.47
36.70
40.22
41.96
41.95
40.41
37.74
34.42
30.81
27.02
22.92
18.18
12.63
6.42
0.06
-5.75
-10.31
-13.24
-14.61
-14.81
-14.44
-14.10
-14.29
-15.40
-17.62
-20.78
-24.38
-27.62
-29.79
-30.64
-30.63
-31.00
-33.15
-38.05
-45.61
-54.56
-62.92
-68.74
-70.88
-69.28
-64.83
-58.72
-52.00
-45.14
-38.10
-30.68
-22.80
-14.66
-6.75
0.39
6.28
10.62
13.31
14.41
14.11
12.75
10.85
9.09
8.19
8.72
10.83
14.21
18.13
21.76
24.49
26.10
26.80
26.97
26.89
26.54
25.67
23.89
20.99
17.04
12.33
7.22
1.94
-3.47
-9.12
-15.10
-21.41
-27.82
-33.97
-39.48
-43.93
-46.91
-48.01
-46.79
-42.96
-36.58
-28.20
-18.82
-9.57
-1.34
5.49
11.02
15.56
19.24
21.81
22.83
21.96
19.40
15.97
12.77
10.83
10.58
11.83
13.89
16.02
17.71
18.83
19.54
20.12
20.79
21.63
22.59
23.56
24.40
24.90
24.87
24.15
22.68
20.49
17.75
14.59
11.04
6.98
2.14
-3.74
-10.69
-18.37
-26.01
-32.57
-37.01
-38.59
-37.07
-32.79
-26.53
-19.26
-11.88
-5.05
0.92
6.02
10.35
14.02
17.03
19.28
20.68
21.30
21.43
21.52
