1704982353.00
64.000000
-0.00
-0.00
-0.00
-0.00
-0.00
-0.00
-0.00
-0.00
-0.00
-0.00
0.00
0.01
0.01
-0.00
-0.03
-0.05
-0.05
0.00
0.13
0.36
0.66
1.01
1.37
1.72
2.06
2.40
2.79
3.24
3.80
4.42
5.06
5.66
6.20
6.68
7.15
7.68
8.31
9.14
10.09
11.04
11.88
12.56
13.14
13.76
14.65
15.96
17.91
20.32
22.90
25.38
27.58
29.57
31.68
34.32
37.81
42.54
48.15
54.10
59.83
64.97
69.58
74.14
79.34
85.71
93.76
103.00
112.62
121.73
129.77
136.75
143.30
150.75
157.77
166.64
177.95
191.79
206.97
220.57
228.25
225.36
208.53
176.87
132.76
80.05
23.07
-34.95
-92.44
-149.16
-205.23
-260.36
-313.73
-363.85
-409.79
-450.85
-486.41
-515.62
-537.07
-549.01
-549.70
-538.05
-513.83
-478.23
-433.37
-381.88
-326.38
-269.12
-211.84
-155.79
-102.00
-51.33
-4.77
36.82
72.78
102.82
127.11
146.14
160.62
171.26
178.70
183.31
185.40
185.19
182.95
179.04
173.85
167.81
161.27
154.46
147.52
140.54
133.55
126.60
119.75
113.07
106.63
100.48
94.66
89.19
84.07
79.31
74.91
70.90
67.28
64.07
61.27
58.87
56.85
55.18
53.80
52.61
51.50
50.32
48.89
47.03
44.59
41.42
37.46
32.70
27.17
20.99
14.36
7.53
0.76
-5.67
-11.50
-16.53
-20.60
-23.63
-25.61
-26.57
-26.63
-25.91
-24.55
-22.72
-20.55
-18.16
-15.63
-13.01
-10.37
-7.74
-5.13
-2.57
-0.03
2.49
5.02
7.58
10.22
12.91
15.65
18.47
21.36
24.36
27.51
30.83
34.38
38.21
42.22
46.38
50.65
55.00
59.44
63.98
68.66
73.53
78.68
83.97
89.34
94.75
100.17
105.59
111.04
116.51
122.05
127.69
133.17
138.25
142.73
146.36
148.85
149.83
148.83
145.14
140.05
134.03
127.40
120.36
113.09
105.70
98.31
91.01
83.92
77.16
70.57
64.05
57.53
51.00
44.44
37.91
31.45
25.16
19.16
13.37
7.72
2.20
-3.23
-8.60
-13.92
-19.19
-24.41
-29.53
-34.65
-39.84
-45.16
-50.66
-56.36
-62.31
-68.51
-74.93
-81.54
-88.33
-95.26
-102.21
-109.01
-115.34
-120.72
-124.55
-126.11
-124.66
-119.52
-110.13
-96.21
-77.77
-55.20
-29.34
-1.38
27.20
54.77
79.78
100.91
117.28
128.48
134.65
136.35
134.42
129.79
123.24
115.38
106.54
96.90
86.63
75.94
65.17
54.75
44.99
35.92
27.25
18.44
8.93
-1.60
-13.07
-24.93
-36.47
-47.11
-56.75
-65.90
-75.47
-86.48
-99.48
-114.37
-130.41
-146.53
-161.88
-176.14
-189.71
-203.48
-218.64
-236.48
-258.11
-284.03
-313.42
-343.63
-370.15
-387.60
-391.52
-380.10
-355.10
-321.23
-284.37
-249.45
-219.11
-193.67
-172.12
-153.41
-137.11
-123.33
-112.03
-102.57
-93.69
-84.06
-72.96
-60.60
-48.07
-36.75
-27.71
-21.23
-16.76
-13.25
-9.56
-4.98
0.58
6.62
12.41
17.27
20.87
23.30
24.88
25.95
26.76
27.36
27.69
27.67
27.31
26.61
25.61
24.34
22.81
21.08
19.28
17.52
15.90
14.41
12.99
11.51
9.83
7.86
5.48
2.60
-0.73
-4.15
-6.86
-7.75
-5.65
0.10
9.30
20.79
32.72
43.22
50.92
55.35
56.93
56.58
55.27
53.59
51.77
49.65
47.11
44.14
40.97
37.96
35.40
33.36
31.73
30.26
28.75
27.20
25.75
24.56
23.64
22.82
21.83
20.46
18.69
16.76
14.96
13.60
12.76
12.31
11.98
11.50
10.72
9.67
8.53
7.54
6.87
6.48
6.20
5.74
4.82
3.34
1.35
-0.88
-3.11
-5.10
-6.79
-8.16
-9.34
-10.51
-11.89
-13.74
-16.14
-18.93
-21.53
-23.04
-22.39
-18.78
-11.97
-2.55
8.25
18.84
27.76
34.11
37.59
38.52
37.53
35.32
32.57
29.78
27.31
25.36
23.98
23.09
22.48
21.92
21.22
20.31
19.21
18.11
17.20
16.60
16.30
16.12
15.81
15.11
13.94
12.34
10.50
8.61
6.79
5.13
3.61
2.28
1.15
0.29
-0.32
-0.69
-0.90
-0.98
-1.04
-1.11
-1.30
-1.67
-2.27
-3.09
-4.05
-5.03
-5.89
-6.53
-6.96
-7.28
-7.66
-8.33
-9.46
-11.10
-13.03
-14.81
-15.77
-15.15
-12.38
-7.29
-0.28
7.75
15.58
22.06
26.32
28.07
27.57
25.41
22.30
18.89
15.59
12.64
10.10
7.97
6.23
4.89
3.92
3.26
2.84
2.62
2.54
2.62
2.85
3.25
3.76
4.21
4.34
3.93
2.81
1.00
-1.24
-3.56
-5.58
-7.06
-8.02
-8.70
-9.46
-10.65
-12.41
-14.67
-17.17
-19.61
-21.77
-23.50
-24.80
-25.68
-26.20
-26.41
-26.38
-26.18
-25.69
-24.52
-22.09
-17.74
-11.06
-2.21
7.96
18.14
26.85
32.95
35.95
36.00
33.73
30.02
25.62
21.14
16.94
13.19
9.98
7.37
5.39
4.08
3.46
3.49
4.00
4.81
5.66
6.28
6.47
6.15
5.30
4.05
2.55
0.99
-0.44
-1.59
-2.40
-2.94
-3.39
-3.96
-4.81
-5.96
-7.28
-8.55
-9.59
-10.33
-10.93
-11.71
-13.06
-15.23
-18.12
-21.25
-23.75
-24.68
-23.27
-19.23
-12.90
-5.19
2.67
9.51
14.48
17.17
17.63
16.19
13.28
9.33
4.68
-0.35
-5.43
-10.26
-14.52
-18.00
-20.67
-22.72
-24.46
-26.22
-28.21
-30.46
-32.84
-35.13
-37.26
-39.35
-41.80
-45.08
-49.64
-55.54
-62.42
-69.59
-76.18
-81.49
-85.32
-88.02
-90.61
-94.41
-100.63
-109.89
-121.81
-134.82
-146.34
-153.20
-152.36
-141.68
-120.60
-90.34
-53.72
-14.48
23.49
56.97
84.00
104.07
117.99
127.47
134.54
140.93
147.71
155.07
162.37
168.51
172.29
172.79
169.54
162.58
152.34
139.66
125.60
111.27
97.60
85.07
73.63
62.79
51.97
40.78
29.23
17.74
6.80
-3.28
-12.51
-21.22
-29.89
-38.86
-48.15
-57.36
-65.77
-72.40
-76.30
-76.70
-73.35
-66.53
-57.12
-46.35
-35.50
-25.68
-17.59
-11.57
-7.65
-5.66
-5.32
-6.23
-7.92
-9.84
-11.55
-12.81
-13.66
-14.28
-14.87
-15.44
-15.79
-15.65
-14.89
-13.69
-12.50
-11.88
-12.31
-14.07
-17.24
-21.75
-27.51
-34.38
-42.14
-50.46
-58.91
-67.04
-74.55
-81.37
-87.67
-93.78
-100.06
-106.74
-113.84
-121.07
-127.91
-133.75
-137.93
-139.85
-138.94
-134.84
-127.60
-117.87
-106.79
-95.71
-85.61
-76.66
-68.11
-58.63
-46.85
-31.84
-13.34
8.33
32.54
58.65
86.10
114.42
143.47
173.57
205.57
240.53
278.87
319.55
359.59
394.54
419.66
431.39
428.35
411.60
383.91
348.70
309.15
267.77
226.25
185.64
146.42
108.78
72.84
38.97
8.03
-18.79
-40.40
-56.34
-67.03
-73.67
-77.76
-80.61
-83.06
-85.62
-88.62
-92.44
-97.47
-103.83
-111.08
-118.16
-123.55
-125.84
-124.22
-118.88
-111.05
-102.45
-94.64
-88.42
-83.64
-79.62
-75.72
-71.83
-68.49
-66.54
-66.45
-67.95
-70.10
-71.66
-71.77
-70.27
-67.77
-65.17
-63.25
-62.33
-62.37
-63.24
-65.06
-68.09
-72.50
-77.80
-82.68
-85.30
-83.92
-77.75
-67.24
-53.92
-39.75
-26.35
-14.62
-4.79
3.24
9.57
14.23
17.28
19.12
20.37
21.75
23.77
26.53
29.74
32.90
35.61
37.66
39.13
40.29
41.40
42.58
43.71
44.40
44.21
42.80
40.18
36.78
33.25
30.24
27.97
26.20
24.31
21.64
17.80
12.84
7.18
1.33
-4.33
-9.70
-15.01
-20.72
-27.45
-35.82
-46.18
-58.23
-70.78
-81.74
-88.58
-89.24
-82.83
-70.19
-53.57
-35.92
-19.86
-6.97
2.41
8.84
13.13
15.85
17.19
17.09
15.55
12.91
9.80
6.92
4.74
3.35
2.43
1.44
-0.12
-2.56
-5.90
-9.92
-14.31
-18.69
-22.86
-26.84
-30.93
-35.49
-40.69
-46.30
-51.66
-55.81
-57.88
-57.37
-54.26
-48.95
-42.11
-34.51
-26.94
-20.22
-15.09
-12.05
-11.25
-12.45
-15.20
-19.08
-23.94
-29.91
-37.22
-45.97
-55.80
-65.71
-74.06
-78.86
-78.20
-70.93
-57.13
-38.24
-16.76
4.49
23.19
38.06
48.94
56.46
61.53
64.87
66.88
67.77
67.83
67.64
68.07
69.98
74.04
80.40
88.66
97.94
107.14
115.20
121.35
125.17
126.55
125.76
123.38
120.28
117.57
116.29
117.16
120.36
125.53
132.17
139.99
149.11
159.95
172.76
187.27
202.52
217.03
229.24
237.63
240.80
237.23
225.43
204.28
173.72
135.24
91.80
47.28
5.42
-30.87
-59.90
-80.86
-93.43
-97.53
-93.37
-81.69
-64.07
-42.86
-20.81
-0.49
16.24
28.56
36.60
41.24
43.60
44.69
45.30
45.96
47.16
49.27
52.37
56.02
59.11
60.15
57.77
51.36
41.41
29.35
16.95
5.71
-3.55
-10.69
-15.90
-19.46
-21.47
-22.00
-21.10
-18.88
-15.45
-10.78
-4.74
2.86
12.10
22.86
34.80
47.37
59.85
71.36
80.85
87.07
88.67
84.49
73.87
57.10
35.50
11.31
-12.92
-34.89
-53.14
-67.12
-77.14
-84.04
-88.80
-92.35
-95.37
-98.29
-101.16
-103.68
-105.16
-104.77
-101.86
-96.32
-88.86
-80.82
-73.78
-68.90
-66.61
-66.51
-67.75
-69.62
-71.79
-74.26
-76.73
-78.26
-77.09
-71.22
-59.36
-41.82
-20.85
-0.12
16.47
26.22
28.43
24.54
17.38
10.05
4.84
2.74
3.55
6.49
10.85
16.26
22.54
29.35
35.97
41.33
44.46
44.98
43.26
40.28
37.25
35.01
33.89
33.74
34.26
35.18
36.25
36.87
35.86
31.61
22.74
8.99
-8.25
-26.12
-41.23
-51.05
-54.83
-53.79
-50.29
-46.61
-44.11
-42.94
-42.54
-42.34
-42.26
-42.59
-43.63
-45.28
-46.91
-47.74
-47.20
-45.34
-42.95
-41.26
-41.44
-44.07
-48.67
-53.66
-56.83
-56.09
-50.32
-39.89
-26.55
-12.73
-0.62
8.68
15.27
20.16
24.54
29.23
34.29
39.24
43.38
46.25
47.79
48.29
48.23
48.00
47.76
47.44
46.90
46.10
45.19
44.41
43.87
43.40
42.57
40.85
37.88
33.59
28.15
21.87
14.84
6.94
-2.18
-12.81
-24.85
-37.57
-49.72
-59.82
-66.80
-70.46
-71.69
-72.13
-73.49
-76.78
-81.99
-88.22
-94.44
-100.11
-105.57
-111.82
-119.89
-130.23
-142.51
-155.76
-168.80
-180.55
-190.22
-197.09
-200.39
-199.36
-193.38
-182.22
-166.16
-145.80
-121.86
-94.87
-65.25
-33.52
-0.55
32.14
62.51
88.34
107.90
120.48
126.68
128.20
127.33
126.14
125.88
126.78
128.29
129.52
129.75
128.56
125.90
121.83
116.48
110.04
102.81
95.25
87.80
80.77
74.17
67.85
61.68
55.71
50.22
45.54
41.81
38.86
36.23
33.38
29.92
25.79
21.21
16.51
11.98
7.76
3.83
0.16
-3.36
-6.89
-10.74
-15.25
-20.57
-26.37
-31.65
-35.03
-35.17
-31.39
-24.11
-14.70
-4.98
3.45
9.71
13.73
15.94
16.84
16.75
15.77
13.87
11.19
8.02
4.82
2.04
0.01
-1.19
-1.69
-1.81
-1.92
-2.32
-3.17
-4.41
-5.84
-7.25
-8.53
-9.71
-10.95
-12.47
-14.44
-16.97
-20.05
-23.69
-27.87
-32.39
-36.78
-40.13
-41.27
-39.09
-33.02
-23.36
-11.34
1.21
12.50
21.30
27.22
30.58
32.05
32.30
31.69
30.41
28.55
26.28
23.84
21.46
19.32
17.47
15.90
14.61
13.65
13.06
12.83
12.83
12.85
12.62
11.94
10.69
8.90
6.68
4.19
1.60
-0.92
-3.24
-5.36
-7.50
-10.12
-13.69
-18.35
-23.59
-28.20
-30.61
-29.48
-24.32
-15.72
-5.07
5.92
15.84
23.85
29.65
33.21
34.56
33.81
31.26
27.59
23.82
21.09
20.22
21.49
24.40
27.85
30.50
31.28
29.77
26.34
22.02
17.95
14.97
13.24
12.26
11.19
9.24
6.06
1.80
-3.02
-7.76
-11.93
-15.28
-17.81
-19.65
-21.08
-22.54
-24.54
-27.56
-31.73
-36.62
-41.15
-43.87
-43.54
-39.60
-32.52
-23.56
-14.41
-6.48
-0.55
3.29
5.40
6.20
5.98
4.83
2.80
0.10
-2.86
-5.56
-7.53
-8.53
-8.63
-8.19
-7.62
-7.24
-7.15
-7.18
-7.08
-6.68
-6.07
-5.65
-5.99
-7.60
-10.70
-15.03
-19.99
-24.70
-28.45
-30.84
-31.96
-32.27
-32.33
-32.64
-33.44
-34.83
-36.88
-39.64
-42.95
-46.21
-48.26
-47.63
-43.02
-33.98
-21.21
-6.39
8.46
21.69
32.47
40.78
47.00
51.50
54.50
56.13
56.81
57.31
58.63
61.66
66.66
73.10
79.63
84.54
86.30
84.05
77.84
68.50
57.29
45.45
33.91
23.08
13.05
3.79
-4.63
-11.95
-17.78
-21.75
-23.67
-23.64
-22.07
-19.62
-17.02
-15.03
-14.19
-14.73
-16.39
-18.42
-19.66
-18.92
-15.36
-8.81
0.09
10.22
20.27
29.20
36.39
41.62
44.93
46.45
46.41
45.19
43.38
41.62
40.37
39.62
38.89
37.30
34.00
28.49
20.86
11.74
2.07
-7.21
-15.42
-22.35
-28.21
-33.55
-38.99
-45.01
-51.66
-58.56
-64.97
-70.02
-73.07
-73.79
-72.21
-68.73
-63.97
-58.80
-54.19
-50.89
-49.01
-47.61
-44.76
-38.23
-26.39
-9.22
11.48
32.58
50.74
63.53
70.07
70.94
67.52
61.32
53.49
44.75
35.70
27.00
19.42
13.67
10.12
8.63
8.61
9.18
9.50
9.07
7.75
5.77
3.57
1.66
0.59
0.96
3.34
8.18
15.60
25.17
35.92
46.58
56.01
63.72
70.04
76.02
82.81
90.95
99.89
107.88
112.57
111.83
104.77
92.15
76.27
60.16
46.56
36.98
31.49
29.06
28.29
28.23
28.66
29.80
31.81
34.28
36.01
35.38
30.61
19.86
0.97
-28.40
-69.93
-123.10
-183.93
-244.97
-297.14
-332.86
-348.90
-347.50
-335.06
-319.05
-305.01
-294.95
-287.70
-280.61
-271.24
-258.05
-240.14
-216.62
-186.63
-150.12
-108.90
-67.14
-30.45
-4.13
9.27
11.36
7.57
5.10
9.98
24.71
47.58
73.81
97.92
115.89
126.30
130.02
128.99
125.06
119.31
112.17
103.88
94.95
86.20
78.52
72.47
68.04
64.73
61.78
58.65
55.14
51.52
48.24
45.65
43.76
42.16
40.23
37.38
33.41
28.48
23.08
17.70
12.65
7.87
2.92
-2.79
-9.68
-17.63
-25.78
-32.58
-36.29
-35.67
-30.42
-21.49
-10.61
0.24
9.62
16.80
21.80
24.95
26.53
26.64
25.24
22.39
18.33
13.42
8.05
2.55
-2.84
-7.85
-12.16
-15.25
-16.59
-15.81
-12.99
-8.81
-4.44
-1.18
0.01
-1.13
-4.09
-7.92
-11.65
-14.69
-17.07
-19.26
-22.00
-25.87
-31.17
-37.66
-44.46
-50.18
-53.25
-52.37
-47.06
-37.82
-25.98
-13.18
-0.85
10.12
19.40
26.95
32.78
36.79
38.90
39.15
37.73
35.04
31.58
27.85
24.37
21.57
19.74
18.94
18.94
19.29
19.48
19.08
17.83
15.66
12.64
8.87
4.54
-0.19
-5.13
-10.15
-15.22
-20.45
-26.14
-32.65
-40.17
-48.44
-56.47
-62.72
-65.50
-63.51
-56.49
-45.30
-31.67
-17.60
-4.72
6.05
14.49
20.84
25.48
28.70
30.70
31.59
31.47
30.49
28.85
26.72
24.37
22.02
19.92
18.26
17.15
16.63
16.53
16.54
16.20
15.06
12.88
9.72
5.95
2.15
-1.19
-3.80
-5.76
-7.47
-9.51
-12.51
-16.96
-23.01
-30.28
-37.68
-43.60
-46.21
-44.13
-36.86
-25.07
-10.34
5.37
20.29
33.21
43.52
51.09
56.02
58.51
58.91
57.69
55.41
52.56
49.46
46.19
42.70
39.00
35.23
31.67
28.64
26.34
24.79
23.76
22.84
21.56
19.49
16.42
12.36
7.54
2.30
-2.98
-8.00
-12.57
-16.71
-20.67
-24.99
-30.28
-36.95
-44.80
-52.70
-58.80
-61.02
-57.85
-49.07
-35.86
-20.46
-5.33
7.64
17.50
24.25
28.44
30.67
31.37
30.73
28.80
25.69
21.70
17.24
12.84
9.01
6.20
4.79
5.07
7.24
11.28
16.82
23.14
29.30
34.32
37.53
38.76
38.27
36.62
34.36
31.75
28.75
25.07
20.40
14.78
8.81
3.67
0.91
2.08
8.20
19.49
35.42
54.89
76.54
98.88
120.09
137.95
149.94
153.90
148.87
135.88
117.88
99.04
83.31
73.11
68.72
68.59
70.38
72.17
73.22
73.87
74.87
76.61
78.48
78.93
75.90
67.16
50.49
23.75
-14.51
-64.12
-122.06
-182.12
-235.93
-275.49
-295.90
-297.16
-283.86
-262.98
-241.00
-221.84
-206.40
-193.57
-181.75
-169.82
-157.01
-142.24
-123.68
-99.16
-67.46
-29.62
10.59
47.40
74.89
89.34
90.54
81.78
68.35
55.38
46.00
40.79
38.31
36.57
34.22
31.08
27.90
25.60
24.67
24.85
25.31
25.06
23.32
19.82
14.58
7.77
-0.63
-10.69
-22.28
-34.66
-46.28
-55.06
-59.01
-56.99
-49.22
-37.15
-22.96
-8.81
3.70
13.76
21.18
26.13
28.88
29.73
29.08
27.37
25.16
22.97
21.21
20.17
19.87
20.16
20.72
21.24
21.56
21.71
21.82
22.00
22.08
21.70
20.40
17.84
14.08
9.55
4.84
0.49
-3.31
-6.72
-10.18
-14.21
-19.23
-25.53
-33.10
-41.53
-49.89
-56.76
-60.48
-59.60
-53.48
-42.52
-28.12
-12.24
3.16
16.67
27.55
35.72
41.42
45.06
47.08
47.87
47.80
47.20
46.36
45.44
44.56
43.81
43.23
42.91
42.91
43.28
43.99
44.86
45.63
45.94
45.48
44.08
41.76
38.76
35.34
31.76
28.16
24.53
20.82
16.95
12.88
8.64
4.27
-0.15
-4.50
-8.72
-12.73
-16.61
-20.54
-24.92
-30.17
-36.55
-43.75
-50.79
-56.10
-57.97
-55.18
-47.46
-35.73
-21.73
-7.49
5.33
15.80
23.68
29.18
32.65
34.33
34.44
33.30
31.38
29.28
27.53
26.44
26.01
25.96
26.00
25.98
25.95
26.15
26.72
27.61
28.50
28.93
28.47
27.01
24.73
22.04
19.39
17.06
15.06
13.14
10.98
8.27
4.92
1.07
-2.95
-6.79
-10.16
-13.00
-15.48
-17.96
-20.91
-24.73
-29.55
-35.03
-40.33
-44.16
-45.20
-42.55
-36.05
-26.45
-15.14
-3.68
6.67
15.24
21.94
26.94
30.46
32.63
33.48
33.11
31.77
29.88
27.91
26.26
25.14
24.51
24.16
23.79
23.17
22.21
20.93
19.36
17.49
15.24
12.51
9.28
5.65
1.83
-1.92
-5.36
-8.25
-10.41
-11.73
-12.24
-12.07
-11.59
-11.29
-11.69
-13.23
-16.15
-20.34
-25.23
-29.87
-33.04
-33.59
-30.83
-24.77
-16.12
-6.11
3.98
13.00
20.09
24.65
26.39
25.37
22.21
18.04
14.22
11.93
11.72
13.43
16.28
19.34
21.85
23.49
24.34
24.80
25.45
26.90
29.58
33.59
38.66
44.22
49.70
54.71
59.23
63.53
67.94
72.72
78.00
83.83
90.15
96.79
103.33
109.11
113.35
115.26
114.33
110.37
103.51
94.25
83.44
72.35
62.58
55.65
52.42
52.60
54.67
56.29
55.24
50.40
42.13
32.03
22.12
13.69
6.63
-0.61
-10.55
-26.01
-49.65
-83.25
-126.95
-178.28
-231.83
-280.05
-315.31
-332.58
-331.38
-315.79
-292.60
-268.33
-246.70
-227.88
-209.52
-188.90
-165.06
-139.49
-115.55
-96.65
-84.48
-78.01
-73.89
-67.92
-56.97
-40.64
-21.13
-2.06
13.43
24.23
31.39
37.08
43.00
49.33
54.85
58.00
58.01
55.51
52.20
49.92
49.66
51.09
52.83
53.17
51.06
46.54
40.71
35.10
30.94
28.59
27.52
26.62
24.82
21.52
16.86
11.48
6.14
1.35
-2.86
-6.89
-11.37
-16.80
-23.24
-30.14
-36.37
-40.56
-41.57
-38.87
-32.81
-24.46
-15.25
-6.49
0.99
6.92
11.51
15.13
18.03
20.26
21.69
22.20
21.85
20.89
19.76
18.85
18.39
18.30
18.30
18.10
17.57
16.84
16.13
15.65
15.32
14.85
13.89
12.20
9.81
7.07
4.41
2.23
0.59
-0.74
-2.37
-4.95
-8.94
-14.29
-20.31
-25.77
-29.21
-29.47
-26.11
-19.61
-11.19
-2.40
5.46
11.62
15.93
18.62
20.09
20.65
20.51
19.79
18.64
17.22
15.69
14.16
12.70
11.36
10.14
9.08
8.12
7.17
6.12
4.90
3.51
2.08
0.74
-0.49
-1.71
-3.11
-4.87
-7.08
-9.74
-12.81
-16.36
-20.52
-25.30
-30.42
-35.10
-38.22
-38.67
-35.82
-29.73
-21.30
-11.81
-2.57
5.50
11.95
16.71
19.90
21.67
22.10
21.31
19.52
17.03
14.23
11.53
9.28
7.70
6.84
6.61
6.76
6.95
6.90
6.37
5.24
3.50
1.21
-1.52
-4.56
-7.79
-11.09
-14.41
-17.84
-21.64
-26.18
-31.76
-38.25
-44.96
-50.57
-53.56
-52.68
-47.43
-38.29
-26.55
-13.88
-1.89
8.28
16.03
21.25
24.22
25.42
25.39
24.62
23.41
21.91
20.19
18.36
16.62
15.19
14.24
13.77
13.64
13.64
13.56
13.27
12.64
11.49
9.61
6.83
3.16
-1.16
-5.70
-10.05
-14.02
-17.71
-21.52
-26.01
-31.54
-38.11
-45.11
-51.40
-55.57
-56.34
-53.03
-45.74
-35.43
-23.52
-11.57
-0.75
8.27
15.41
20.94
25.22
28.48
30.73
31.78
31.44
29.75
27.12
24.33
22.28
21.63
22.47
24.25
25.95
26.52
25.35
22.51
18.77
15.18
12.57
11.06
9.93
7.88
3.60
-3.55
-13.16
-23.88
-33.95
-41.90
-47.22
-50.53
-53.50
-58.29
-67.15
-81.71
-102.44
-128.01
-154.73
-176.86
-187.96
-183.22
-161.94
-128.97
-93.92
-68.03
-60.00
-72.29
-100.12
-133.45
-160.92
-173.90
-168.75
-146.81
-112.83
-73.20
-34.59
-3.07
16.53
21.43
12.00
-7.56
-29.74
-45.79
-48.86
-36.72
-12.74
15.53
39.57
53.32
55.39
49.08
40.38
35.30
37.71
48.75
67.62
92.86
123.01
156.56
191.35
224.47
253.04
275.21
290.74
300.54
305.87
307.54
306.05
302.44
299.17
300.25
309.94
330.93
362.69
401.14
439.76
471.64
491.38
496.34
486.55
464.20
432.59
395.42
356.21
317.79
282.10
250.13
222.16
197.88
176.52
157.08
138.54
120.03
101.21
82.22
63.67
46.27
30.58
16.66
4.17
-7.58
-19.33
-31.64
-44.76
-58.57
-72.68
-86.56
-99.87
-112.41
-124.33
-135.94
-147.65
-159.82
-172.80
-187.00
-202.87
-220.74
-240.29
-260.30
-278.50
-292.16
-298.99
-297.91
-289.49
-275.63
-258.75
-240.92
-223.44
-206.83
-191.19
-176.62
-163.31
-151.45
-140.95
-131.34
-121.87
-111.81
-100.76
-88.76
-76.32
-64.14
-52.83
-42.65
-33.52
-25.09
-17.08
-9.44
-2.35
3.81
8.70
12.15
14.21
15.00
14.81
13.84
12.31
10.39
8.18
5.79
3.28
0.76
-1.58
-3.45
-4.58
-4.78
-4.08
-2.78
-1.34
-0.26
0.13
-0.24
-1.18
-2.35
-3.50
-4.53
-5.52
-6.60
-7.83
-9.16
-10.46
-11.68
-12.92
-14.42
-16.35
-18.75
-21.40
-23.96
-26.12
-27.79
-29.06
-30.16
-31.27
-32.43
-33.58
-34.71
-35.96
-37.56
-39.71
-42.35
-45.10
-47.33
-48.46
-48.28
-47.00
-45.22
-43.63
-42.78
-42.90
-43.97
-45.81
-48.23
-51.10
-54.24
-57.40
-60.22
-62.32
-63.41
-63.33
-62.13
-59.88
-56.66
-52.45
-47.30
-41.41
-35.24
-29.48
-24.86
-21.83
-20.47
-20.39
-20.94
-21.53
-21.82
-21.77
-21.46
-20.98
-20.18
-18.78
-16.51
-13.27
-9.29
-5.01
-0.96
2.44
5.02
6.80
7.94
8.66
9.14
9.46
9.71
9.91
10.11
10.35
10.71
11.21
11.89
12.69
13.58
14.46
15.26
15.91
16.34
16.53
16.46
16.15
15.59
14.72
13.42
11.64
9.42
6.99
4.76
3.14
2.44
2.64
3.48
4.52
5.36
5.80
5.89
5.81
5.70
5.59
5.34
4.81
3.92
2.76
1.64
0.84
0.51
0.45
0.20
-0.88
-3.23
-6.85
-11.31
-15.81
-19.58
-22.10
-23.27
-23.32
-22.66
-21.62
-20.41
-19.09
-17.68
-16.08
-14.18
-11.77
-8.68
-4.91
-0.74
3.23
6.29
7.83
7.58
5.77
3.05
0.21
-2.10
-3.61
-4.38
-4.69
-4.79
-4.71
-4.31
-3.43
-2.04
-0.34
1.26
2.36
2.71
2.32
1.33
-0.05
-1.68
-3.48
-5.45
-7.53
-9.64
-11.63
-13.31
-14.58
-15.33
-15.57
-15.40
-14.94
-14.27
-13.41
-12.24
-10.53
-8.14
-5.08
-1.66
1.56
3.85
4.68
3.94
2.09
0.12
-0.81
0.16
3.22
7.70
12.35
15.78
16.97
15.66
12.33
7.94
3.72
0.86
0.22
2.06
5.63
9.04
9.42
3.72
-10.30
-32.93
-62.01
-93.23
-121.26
-141.11
-149.36
-144.70
-127.73
-100.36
-65.12
-24.73
17.93
59.85
98.00
129.87
154.01
170.38
180.17
185.05
186.26
184.01
177.54
165.77
148.15
125.26
98.83
71.23
44.82
21.23
1.13
-15.75
-30.30
-43.57
-56.37
-69.02
-81.34
-92.87
-103.19
-112.15
-119.93
-126.87
-133.17
-138.72
-143.05
-145.60
-145.98
-144.37
-141.46
-138.28
-135.76
-134.42
-134.09
-133.95
-132.80
-129.47
-123.11
-113.50
-101.06
-86.82
-72.18
-58.54
-46.93
-37.73
-30.55
-24.61
-19.24
-14.47
-11.14
-10.58
-13.84
-20.85
-30.26
-39.80
-47.19
-51.12
-51.86
-51.26
-52.26
-58.24
-72.24
-96.08
-129.42
-169.14
-209.37
-242.82
-262.90
-265.79
-251.66
-224.17
-188.67
-149.96
-110.88
-71.98
-32.34
9.15
52.67
96.77
138.52
174.16
200.36
215.30
219.31
214.76
204.95
192.74
179.66
166.01
151.78
137.60
125.18
116.56
112.98
114.02
117.68
121.32
123.00
122.26
119.98
117.66
116.39
116.13
115.76
113.67
108.74
100.88
91.31
81.94
74.64
70.39
68.93
68.96
68.87
67.47
64.46
60.47
56.43
53.05
50.23
47.15
42.52
35.19
24.66
11.23
-3.91
-19.04
-32.21
-41.74
-46.53
-46.34
-41.84
-34.31
-25.32
-16.25
-8.08
-1.26
4.10
8.10
10.90
12.67
13.63
13.99
13.98
13.74
13.30
12.74
12.10
11.59
11.48
12.01
13.20
14.82
16.37
17.29
17.14
15.74
13.24
10.00
6.54
3.30
0.60
-1.43
-2.87
-3.91
-4.82
-5.77
-6.88
-8.17
-9.66
-11.38
-13.52
-16.31
-19.98
-24.51
-29.47
-34.02
-37.02
-37.39
-34.38
-27.87
-18.44
-7.16
4.68
15.93
25.80
33.92
40.17
44.60
47.19
47.90
46.72
43.83
39.73
35.16
31.02
27.99
26.35
25.94
26.24
26.69
26.93
26.88
26.67
26.52
26.53
26.64
26.66
26.45
25.94
25.27
24.65
24.32
24.37
24.73
25.24
25.73
26.14
26.51
26.92
27.31
27.44
26.98
25.74
23.98
22.40
22.04
23.85
28.21
34.81
42.71
50.78
58.13
64.27
69.10
72.59
74.62
74.84
72.92
68.70
62.42
54.60
45.94
37.10
28.62
20.90
14.33
9.24
5.91
4.44
4.70
6.32
8.73
11.34
13.68
15.46
16.60
17.11
17.06
16.40
15.06
12.91
9.98
6.41
2.46
-1.64
-5.82
-10.22
-15.06
-20.46
-26.31
-32.19
-37.61
-42.15
-45.72
-48.57
-51.15
-53.86
-56.80
-59.69
-61.95
-63.01
-62.55
-60.69
-57.97
-55.13
-52.80
-51.24
-50.29
-49.51
-48.41
-46.68
-44.36
-41.71
-39.12
-36.92
-35.25
-34.07
-33.26
-32.76
-32.52
-32.54
-32.78
-33.10
-33.27
-33.02
-32.15
-30.62
-28.63
-26.55
-24.85
-23.92
-23.90
-24.63
-25.52
-25.79
-24.68
-21.80
-17.23
-11.62
-5.93
-1.16
1.97
3.19
2.69
0.93
-1.49
-4.08
-6.48
-8.49
-10.01
-11.04
-11.54
-11.57
-11.18
-10.49
-9.67
-8.90
-8.35
-8.12
-8.26
-8.68
-9.27
-9.92
-10.46
-10.86
-11.02
-10.95
-10.72
-10.46
-10.36
-10.64
-11.49
-12.93
-14.77
-16.54
-17.58
-17.19
-14.88
-10.53
-4.53
2.29
8.91
14.32
17.85
19.26
18.79
16.91
14.24
11.29
8.47
5.98
3.93
2.37
1.35
0.80
0.66
0.79
1.00
1.10
0.99
0.62
0.05
-0.64
-1.36
-2.00
-2.54
-2.91
-3.16
-3.36
-3.69
-4.26
-5.10
-6.12
-6.98
-7.23
-6.37
-4.10
-0.37
4.45
9.72
14.67
18.62
21.17
22.27
22.13
21.11
19.56
17.70
15.69
13.61
11.58
9.78
8.32
7.25
6.46
5.78
4.99
4.02
2.89
1.74
0.73
-0.07
-0.66
-1.18
-1.80
-2.61
-3.59
-4.58
-5.45
-6.20
-6.97
-8.01
-9.40
-11.01
-12.45
-13.15
-12.73
-11.18
-8.86
-6.39
-4.38
-3.22
-3.01
-3.62
-4.87
-6.59
-8.63
-10.77
-12.72
-14.15
-14.80
-14.65
-13.92
-12.94
-12.04
-11.34
-10.75
-10.10
-9.30
-8.46
-7.80
-7.56
-7.75
-8.22
-8.66
-8.83
-8.72
-8.52
-8.53
-8.99
-9.98
-11.31
-12.59
-13.29
-12.92
-11.12
-7.84
-3.35
1.75
6.66
10.66
13.22
14.22
13.84
12.50
10.66
8.70
6.82
5.11
3.57
2.17
0.87
-0.27
-1.24
-1.96
-2.44
-2.68
-2.79
-2.89
-3.07
-3.43
-3.93
-4.48
-4.93
-5.12
-4.99
-4.58
-4.00
-3.44
-3.10
-3.19
-3.84
-5.02
-6.51
-7.83
-8.42
-7.71
-5.49
-1.97
2.24
6.29
9.41
11.11
11.29
10.14
8.07
5.57
3.12
1.05
-0.45
-1.38
-1.87
-2.09
-2.17
-2.12
-1.94
-1.61
-1.16
-0.65
-0.09
0.49
1.08
1.62
1.97
1.99
1.63
1.00
0.32
-0.16
-0.33
-0.29
-0.28
-0.55
-1.23
-2.21
-3.08
-3.29
-2.40
-0.20
3.06
6.80
10.26
12.77
14.04
14.15
13.43
12.29
10.92
9.33
7.41
5.16
2.76
0.57
-1.03
-1.87
-2.07
-1.94
-1.90
-2.23
-2.97
-3.95
-4.92
-5.61
-5.90
-5.74
-5.22
-4.48
-3.73
-3.20
-3.19
-3.93
-5.43
-7.40
-9.24
-10.16
-9.47
-6.82
-2.43
2.96
8.27
12.48
14.90
15.46
14.52
12.68
10.47
8.19
5.94
3.73
1.71
0.14
-0.69
-0.60
0.36
1.83
3.35
4.48
4.93
4.63
3.69
2.33
0.83
-0.62
-1.88
-2.97
-3.97
-5.00
-6.14
-7.40
-8.76
-10.13
-11.40
-12.29
-12.41
-11.31
-8.66
-4.51
0.62
5.81
10.07
12.73
13.68
13.35
12.35
11.23
10.16
9.09
7.88
6.52
5.24
4.33
3.99
4.17
4.63
5.00
5.07
4.77
4.22
3.56
2.85
2.05
1.03
-0.29
-1.88
-3.60
-5.25
-6.74
-8.04
-9.22
-10.35
-11.55
-12.91
-14.51
-16.32
-18.09
-19.32
-19.32
-17.46
-13.48
-7.68
-0.98
5.44
10.47
13.49
14.41
13.57
11.56
9.00
6.42
4.27
2.87
2.39
2.74
3.61
4.61
5.36
5.74
5.78
5.71
5.68
5.69
5.67
5.45
4.95
4.20
3.27
2.24
1.16
0.09
-0.95
-1.87
-2.63
-3.18
-3.50
-3.57
-3.42
-3.09
-2.71
-2.43
-2.37
-2.67
-3.31
-4.25
-5.33
-6.43
-7.37
-8.00
-8.27
-8.24
-8.15
-8.37
-9.23
-10.87
-12.98
-14.87
-15.55
-14.17
-10.35
-4.47
2.45
9.06
14.15
17.00
17.60
16.48
14.40
12.11
10.05
8.35
6.94
5.76
4.76
4.03
3.67
3.70
3.98
4.20
4.05
3.36
2.16
0.76
-0.49
-1.31
-1.66
-1.73
-1.83
-2.22
-3.05
-4.22
-5.49
-6.58
-7.27
-7.54
-7.47
-7.29
-7.10
-7.01
-6.97
-6.97
-7.00
-7.14
-7.49
-8.02
-8.61
-9.02
-9.06
-8.64
-7.90
-7.19
-6.90
-7.36
-8.61
-10.34
-11.83
-12.20
-10.67
-6.94
-1.41
5.01
11.07
15.75
18.50
19.39
18.86
17.48
15.67
13.61
11.44
9.26
7.32
5.87
5.14
5.08
5.51
6.05
6.41
6.42
6.10
5.65
5.25
4.97
4.69
4.21
3.33
1.97
0.31
-1.33
-2.59
-3.27
-3.40
-3.21
-3.01
-3.06
-3.47
-4.16
-4.93
-5.62
-6.10
-6.30
-6.26
-6.06
-5.86
-5.84
-6.20
-7.08
-8.36
-9.70
-10.47
-9.98
-7.68
-3.41
2.48
9.15
15.47
20.38
23.19
23.69
22.20
19.39
16.02
12.66
9.69
7.20
5.18
3.60
2.49
1.91
1.85
2.24
2.84
3.47
4.00
4.45
4.94
5.60
6.44
7.27
7.84
7.88
7.28
6.18
4.82
3.56
2.62
2.10
1.85
1.64
1.16
0.19
-1.37
-3.44
-5.73
-7.89
-9.52
-10.42
-10.64
-10.47
-10.33
-10.62
-11.55
-13.03
-14.68
-15.85
-15.72
-13.67
-9.45
-3.44
3.37
9.69
14.36
16.74
16.92
15.61
13.65
11.68
9.94
8.33
6.69
4.99
3.46
2.40
2.03
2.29
2.86
3.34
3.45
3.22
2.93
2.94
3.55
4.78
6.37
7.93
9.06
9.52
9.34
8.79
8.24
8.04
8.42
9.27
10.30
10.99
10.83
9.44
6.75
3.00
-1.29
-5.60
-9.48
-12.71
-15.33
-17.46
-19.36
-21.21
-23.09
-24.89
-26.32
-26.90
-26.07
-23.44
-18.95
-13.04
-6.56
-0.53
4.24
7.35
8.86
9.15
8.61
7.48
5.87
3.83
1.59
-0.44
-1.77
-2.04
-1.29
0.13
1.61
2.61
2.95
2.82
2.66
2.87
3.55
4.47
5.15
5.23
4.59
3.48
2.33
1.53
1.23
1.26
1.34
1.13
0.54
-0.39
-1.43
-2.35
-2.96
-3.17
-2.98
-2.49
-1.89
-1.48
-1.56
-2.38
-4.04
-6.37
-8.91
-11.00
-11.95
-11.23
-8.69
-4.66
0.18
4.94
8.83
11.41
12.60
12.67
11.97
10.83
9.44
7.88
6.24
4.68
3.40
2.57
2.25
2.39
2.80
3.29
3.66
3.74
3.56
3.11
2.53
1.94
1.41
0.93
0.41
-0.27
-1.18
-2.33
-3.60
-4.74
-5.50
-5.66
-5.14
-4.06
-2.72
-1.54
-0.91
-1.11
-2.17
-3.81
-5.49
-6.53
-6.32
-4.46
-1.01
3.57
8.39
12.46
14.98
15.51
14.15
11.37
7.85
4.19
0.88
-1.79
-3.68
-4.78
-5.16
-5.05
-4.72
-4.45
-4.33
-4.31
-4.20
-3.83
-3.20
-2.49
-2.02
-2.06
-2.69
-3.81
-5.11
-6.30
-7.16
-7.65
-7.84
-7.93
-8.11
-8.55
-9.30
-10.24
-11.07
-11.26
-10.28
-7.66
-3.30
2.46
8.83
14.71
19.06
21.18
20.95
18.80
15.55
12.00
8.71
5.90
3.53
1.43
-0.45
-2.02
-3.11
-3.58
-3.45
-2.93
-2.42
-2.31
-2.93
-4.45
-6.78
-9.71
-12.94
-16.21
-19.42
-22.58
-25.81
-29.20
-32.78
-36.51
-40.37
-44.45
-48.93
-53.91
-59.30
-64.66
-69.36
-72.82
-74.82
-75.82
-76.88
-79.42
-84.71
-93.45
-105.51
-120.07
-135.91
-151.86
-167.21
-181.77
-195.82
-209.95
-224.99
-241.96
-262.00
-285.72
-312.45
-339.66
-363.11
-377.99
-380.66
-370.18
-348.64
-320.37
-290.07
-261.24
-235.31
-212.16
-191.02
-171.46
-153.58
-137.71
-123.83
-111.37
-99.38
-87.09
-74.27
-61.29
-48.99
-38.11
-28.98
-21.41
-14.74
-8.28
-1.53
5.55
12.63
19.25
25.09
30.14
34.72
39.29
44.15
49.40
54.80
60.09
65.03
69.72
74.48
79.75
85.80
92.59
99.77
106.88
113.62
120.08
126.76
134.43
143.69
154.76
167.31
180.65
194.00
206.90
219.31
231.72
244.94
260.04
278.13
300.02
325.57
353.12
379.25
399.45
409.36
406.47
391.11
366.35
336.80
306.82
279.17
254.67
232.81
212.80
194.32
177.62
163.03
150.46
139.18
128.14
116.52
104.13
91.46
79.29
68.33
58.89
50.91
44.24
38.88
35.03
32.93
32.55
33.41
34.69
35.41
34.87
32.83
29.49
25.34
20.90
16.62
12.73
9.37
6.59
4.47
2.93
1.86
1.05
0.27
-0.59
-1.51
-2.33
-2.93
-3.19
-3.16
-2.97
-2.81
-2.82
-3.08
-3.61
-4.31
-5.03
-5.57
-5.72
-5.41
-4.74
-4.01
-3.56
-3.69
-4.47
-5.73
-7.14
-8.37
-9.30
-9.92
-10.36
-10.71
-11.02
-11.29
-11.63
-12.25
-13.41
-15.20
-17.34
-19.13
-19.67
-18.25
-14.63
-9.27
-3.14
2.61
7.04
9.69
10.64
10.29
9.16
7.66
5.94
4.08
2.14
0.34
-1.01
-1.58
-1.29
-0.30
0.98
2.12
2.87
3.25
3.47
3.74
4.18
4.72
5.16
5.29
4.92
3.92
2.28
0.10
-2.40
-4.92
-7.08
-8.61
-9.41
-9.60
-9.46
-9.32
-9.48
-10.03
-10.92
-11.99
-13.03
-13.92
-14.55
-14.93
-15.15
-15.37
-15.84
-16.77
-18.24
-20.04
-21.65
-22.29
-21.18
-17.80
-12.20
-5.10
2.30
8.65
12.88
14.55
13.98
11.95
9.49
7.35
5.89
5.07
4.62
4.28
3.91
3.56
3.26
3.02
2.74
2.37
1.85
1.33
1.01
1.09
1.65
2.50
3.34
3.77
3.48
2.41
0.75
-1.11
-2.80
-4.02
-4.78
-5.16
-5.39
-5.66
-6.10
-6.72
-7.51
-8.46
-9.52
-10.63
-11.73
-12.71
-13.44
-13.83
-13.86
-13.59
-13.30
-13.32
-14.06
-15.71
-18.09
-20.58
-22.23
-22.11
-19.56
-14.52
-7.57
0.19
7.54
13.47
17.41
19.34
19.67
18.95
17.68
16.15
14.49
12.79
11.13
9.68
8.61
7.95
7.63
7.46
7.23
6.86
6.33
5.73
5.16
4.70
4.40
4.23
4.09
3.79
3.12
1.90
0.13
-2.03
-4.25
-6.22
-7.76
-8.89
-9.71
-10.43
-11.11
-11.76
-12.30
-12.69
-12.91
-13.02
-13.05
-13.02
-13.00
-13.12
-13.58
-14.50
-15.78
-16.97
-17.32
-16.08
-12.86
-7.81
-1.69
4.43
9.61
13.26
15.27
15.90
15.51
14.45
12.97
11.27
9.58
8.18
7.28
7.01
7.31
8.03
8.92
9.78
10.51
11.03
11.37
11.60
11.87
12.35
13.15
14.22
15.29
15.84
15.24
13.00
8.95
3.32
-3.29
-10.13
-16.50
-21.96
-26.33
-29.73
-32.51
-34.99
-37.49
-40.09
-42.56
-44.38
-44.87
-43.40
-39.66
-33.74
-26.18
-17.84
-9.64
-2.46
3.09
6.70
8.43
8.66
7.97
7.02
6.30
6.06
6.16
6.31
6.16
5.58
4.74
3.95
3.50
3.47
3.67
3.69
3.18
1.96
0.11
-2.10
-4.30
-6.17
-7.56
-8.45
-9.02
-9.53
-10.33
-11.70
-13.71
-16.16
-18.49
-19.96
-19.79
-17.51
-13.09
-7.06
-0.32
6.09
11.28
14.74
16.38
16.44
15.31
13.38
10.99
8.48
6.14
4.24
2.94
2.27
2.13
2.28
2.57
2.81
2.91
2.81
2.45
1.80
0.90
-0.14
-1.18
-2.16
-3.15
-4.36
-6.06
-8.51
-11.77
-15.66
-19.61
-22.77
-24.13
-22.80
-18.42
-11.30
-2.48
6.51
14.13
19.28
21.52
21.14
18.95
15.92
12.87
10.30
8.30
6.63
4.99
3.14
1.10
-0.87
-2.46
-3.46
-3.93
-4.17
-4.56
-5.32
-6.41
-7.54
-8.39
-8.81
-8.87
-8.89
-9.25
-10.27
-12.07
-14.62
-17.67
-20.69
-22.90
-23.28
-21.00
-15.67
-7.63
2.04
11.82
20.28
26.37
29.73
30.50
29.25
26.67
23.43
20.07
16.92
14.13
11.74
9.72
8.07
6.78
5.79
4.95
4.07
3.00
1.80
0.74
0.19
0.37
1.20
2.25
2.89
2.63
1.27
-0.94
-3.50
-5.82
-7.47
-8.40
-8.84
-9.23
-10.05
-11.61
-13.88
-16.54
-19.09
-21.01
-22.00
-22.08
-21.61
-21.17
-21.34
-22.53
-24.80
-27.83
-30.85
-32.80
-32.50
-29.03
-22.06
-12.10
-0.49
11.03
20.82
27.83
31.79
33.14
32.67
31.14
29.10
26.87
24.59
22.40
20.39
18.60
17.02
15.57
14.11
12.61
11.11
9.71
8.53
7.66
7.05
6.53
5.89
4.94
3.65
2.11
0.59
-0.63
-1.35
-1.54
-1.35
-1.07
-0.96
-1.23
-1.95
-3.02
-4.22
-5.34
-6.21
-6.81
-7.27
-7.82
-8.66
-9.88
-11.41
-12.99
-14.38
-15.42
-16.07
-16.46
-16.86
-17.59
-18.98
-21.23
-24.19
-27.25
-29.32
-29.15
-25.80
-19.04
-9.65
0.83
10.59
18.13
22.69
24.30
23.61
21.45
18.60
15.59
12.81
10.54
8.94
8.13
8.02
8.42
9.03
9.58
9.91
9.95
9.80
9.50
9.08
8.49
7.67
6.64
5.45
4.20
2.93
1.64
0.29
-1.12
-2.50
-3.66
-4.40
-4.64
-4.47
-4.17
-4.14
-4.69
-5.96
-7.83
-10.01
-12.09
-13.78
-14.90
-15.46
-15.61
-15.65
-15.94
-16.87
-18.68
-21.30
-24.19
-26.37
-26.67
-24.20
-18.75
-10.93
-2.00
6.55
13.46
18.06
20.26
20.40
19.06
16.74
13.92
11.00
8.34
6.24
4.92
4.42
4.64
5.29
6.05
6.57
6.64
6.23
5.52
4.83
4.48
4.55
4.86
5.01
4.59
3.47
1.88
0.28
-0.85
-1.39
-1.59
-1.90
-2.78
-4.35
-6.36
-8.39
-10.03
-11.09
-11.64
-11.89
-12.11
-12.53
-13.37
-14.80
-16.89
-19.45
-21.96
-23.52
-23.16
-20.11
-14.10
-5.59
4.27
13.96
22.02
27.44
29.92
29.80
27.86
24.94
21.70
18.50
15.50
12.79
10.49
8.76
7.69
7.23
7.08
6.90
6.35
5.33
3.99
2.69
1.78
1.44
1.58
1.82
1.71
0.93
-0.53
-2.37
-4.17
-5.55
-6.40
-6.84
-7.17
-7.59
-8.16
-8.82
-9.46
-10.06
-10.71
-11.46
-12.30
-13.08
-13.59
-13.76
-13.78
-14.02
-14.91
-16.61
-18.83
-20.79
-21.42
-19.76
-15.31
-8.33
0.23
8.98
16.54
21.93
24.81
25.37
24.19
21.92
19.19
16.46
14.06
12.21
10.92
10.07
9.42
8.75
7.90
6.91
5.93
5.11
4.59
4.35
4.30
4.33
4.35
4.27
4.06
3.65
2.95
1.84
0.23
-1.79
-3.97
-5.95
-7.39
-8.11
-8.23
-8.10
-8.11
-8.58
-9.52
-10.75
-11.91
-12.72
-13.09
-13.08
-12.92
-12.86
-13.23
-14.21
-15.86
-17.95
-19.87
-20.77
-19.80
-16.47
-10.93
-4.05
2.99
9.01
13.33
15.78
16.63
16.34
15.22
13.60
11.70
9.84
8.29
7.26
6.75
6.56
6.39
6.04
5.46
4.71
4.02
3.53
3.34
3.38
3.47
3.34
2.75
1.59
-0.03
-1.85
-3.55
-4.91
-5.87
-6.55
-7.12
-7.72
-8.39
-9.12
-9.83
-10.46
-10.95
-11.22
-11.21
-10.94
-10.59
-10.46
-10.84
-11.94
-13.62
-15.43
-16.66
-16.57
-14.61
-10.72
-5.32
0.68
6.28
10.59
13.17
14.01
13.50
12.12
10.28
8.29
6.31
4.49
3.00
1.99
1.51
1.46
1.71
2.06
2.44
2.86
3.40
4.03
4.63
5.01
4.96
4.40
3.42
2.19
0.88
-0.38
-1.56
-2.70
-3.79
-4.80
-5.65
-6.29
-6.76
-7.20
-7.77
-8.61
-9.76
-11.19
-12.89
-14.74
-16.57
-17.99
-18.45
-17.35
-14.34
-9.53
-3.57
2.50
7.57
10.87
12.20
11.93
10.77
9.34
8.01
6.83
5.67
4.43
3.20
2.17
1.58
1.48
1.71
1.94
1.86
1.35
0.57
-0.18
-0.55
-0.41
0.08
0.54
0.59
0.03
-1.02
-2.23
-3.24
-3.83
-4.06
-4.22
-4.71
-5.84
-7.75
-10.31
-13.16
-15.75
-17.45
-17.62
-15.81
-11.93
-6.34
0.17
6.63
12.12
15.99
17.96
18.14
16.92
14.82
12.35
9.91
7.79
6.13
5.05
4.63
4.87
5.64
6.68
7.61
8.11
8.06
7.57
6.90
6.34
6.05
5.95
5.86
5.62
5.11
4.36
3.41
2.32
1.03
-0.50
-2.31
-4.37
-6.66
-9.11
-11.68
-14.30
-16.79
-18.77
-19.72
-19.12
-16.68
-12.49
-7.08
-1.29
3.97
8.04
10.60
11.65
11.43
10.23
8.36
6.09
3.72
1.54
-0.15
-1.13
-1.34
-0.92
-0.14
0.64
1.20
1.45
1.45
1.34
1.19
0.94
0.43
-0.47
-1.81
-3.42
-5.03
-6.40
-7.41
-8.13
-8.77
-9.58
-10.68
-12.08
-13.59
-14.95
-15.80
-15.75
-14.48
-11.84
-7.95
-3.26
1.54
5.67
8.52
9.73
9.40
7.91
5.89
3.91
2.37
1.40
0.85
0.51
0.16
-0.27
-0.70
-0.96
-0.92
-0.61
-0.14
0.27
0.47
0.39
0.05
-0.48
-1.14
-1.97
-3.02
-4.29
-5.73
-7.16
-8.47
-9.64
-10.83
-12.22
-13.87
-15.51
-16.55
-16.23
-13.99
-9.71
-3.89
2.49
8.33
12.74
15.33
16.16
15.65
14.30
12.61
10.91
9.45
8.35
7.73
7.66
8.17
9.18
10.48
11.77
12.71
13.03
12.59
11.42
9.62
7.40
4.95
2.42
-0.02
-2.28
-4.17
-5.54
-6.26
-6.40
-6.25
-6.25
-6.92
-8.49
-10.76
-13.00
-14.18
-13.39
-10.26
-5.19
0.82
6.53
11.01
13.85
15.23
15.65
15.58
15.29
14.80
14.03
12.99
11.89
11.09
10.94
11.62
13.03
14.89
16.80
18.43
19.58
20.26
20.62
20.79
20.85
20.78
20.47
19.80
18.67
16.98
14.64
11.60
7.89
3.64
-0.82
-5.08
-8.73
-11.57
-13.74
-15.66
-17.86
-20.61
-23.74
-26.64
-28.56
-28.96
-27.67
-24.96
-21.28
-17.09
-12.76
-8.66
-5.21
-2.94
-2.26
-3.23
-5.45
-8.10
-10.35
-11.59
-11.66
-10.85
-9.67
-8.63
-8.09
-8.22
-8.92
-9.98
-11.05
-11.86
-12.32
-12.55
-12.82
-13.32
-14.06
-14.79
-15.18
-14.94
-14.07
-12.82
-11.57
-10.56
-9.85
-9.23
-8.42
-7.26
-5.81
-4.38
-3.33
-2.99
-3.53
-4.89
-6.80
-8.81
-10.36
-10.87
-9.93
-7.41
-3.63
0.79
5.06
8.53
10.81
11.89
11.94
11.27
10.11
8.65
7.09
5.60
4.35
3.40
2.74
2.26
1.85
1.47
1.07
0.70
0.34
0.01
-0.27
-0.46
-0.52
-0.48
-0.43
-0.55
-1.00
-1.84
-3.03
-4.38
-5.70
-6.88
-7.94
-9.02
-10.27
-11.71
-13.23
-14.58
-15.55
-16.04
-16.13
-16.06
-16.09
-16.38
-16.93
-17.46
-17.54
-16.65
-14.30
-10.30
-4.85
1.39
7.48
12.50
15.87
17.50
17.72
17.09
16.03
14.73
13.10
11.03
8.55
5.93
3.60
1.92
1.09
0.99
1.32
1.75
2.07
2.26
2.52
3.02
3.83
4.84
5.80
6.38
6.38
5.74
4.57
3.12
1.66
0.43
-0.47
-1.08
-1.60
-2.30
-3.45
-5.16
-7.34
-9.64
-11.56
-12.51
-12.06
-9.99
-6.43
-1.80
3.17
7.71
11.18
13.22
13.86
13.43
12.33
10.89
9.26
7.47
5.61
3.85
2.46
1.61
1.29
1.31
1.39
1.31
1.04
0.63
0.20
-0.19
-0.56
-0.98
-1.50
-2.13
-2.85
-3.61
-4.32
-4.85
-5.08
-4.93
-4.55
-4.30
-4.62
-5.82
-7.84
-10.15
-11.92
-12.25
-10.56
-6.81
-1.53
4.37
9.89
14.20
16.82
17.66
16.96
15.11
12.58
9.77
6.98
4.44
2.32
0.75
-0.22
-0.58
-0.42
0.08
0.69
1.22
1.53
1.60
1.48
1.24
0.89
0.29
-0.68
-2.11
-3.88
-5.72
-7.29
-8.29
-8.59
-8.31
-7.77
-7.40
-7.62
-8.71
-10.75
-13.45
-16.17
-17.97
-17.92
-15.35
-10.21
-3.13
4.69
11.90
17.35
20.45
21.29
20.43
18.55
16.23
13.71
11.04
8.24
5.57
3.42
2.20
2.05
2.77
3.85
4.75
5.11
4.89
4.29
3.58
3.01
2.65
2.46
2.34
2.16
1.83
1.25
0.43
-0.56
-1.56
-2.43
-3.08
-3.59
-4.14
-4.92
-5.99
-7.25
-8.53
-9.73
-10.94
-12.38
-14.22
-16.28
-17.97
-18.44
-16.91
-13.08
-7.38
-0.82
5.36
10.14
12.96
13.84
13.20
11.62
9.62
7.56
5.65
3.93
2.43
1.13
0.08
-0.66
-1.01
-0.97
-0.60
0.00
0.69
1.35
1.87
2.13
2.03
1.46
0.40
-1.07
-2.78
-4.46
-5.95
-7.15
-8.09
-8.87
-9.61
-10.34
-11.10
-11.87
-12.69
-13.67
-14.91
-16.40
-17.85
-18.77
-18.51
-16.54
-12.73
-7.44
-1.42
4.42
9.32
12.84
14.94
15.78
15.62
14.63
12.93
10.66
8.06
5.48
3.35
1.97
1.44
1.52
1.81
1.91
1.56
0.78
-0.17
-0.98
-1.48
-1.72
-2.00
-2.65
-3.85
-5.47
-7.15
-8.45
-9.05
-9.02
-8.70
-8.65
-9.32
-10.93
-13.30
-15.93
-18.09
-18.96
-17.83
-14.29
-8.45
-1.00
6.95
14.11
19.48
22.52
23.25
22.14
19.80
16.79
13.56
10.47
7.82
5.82
4.56
3.93
3.72
3.69
3.70
3.73
3.78
3.81
3.69
3.24
2.31
0.93
-0.69
-2.26
-3.54
-4.48
-5.25
-6.15
-7.42
-9.20
-11.41
-13.90
-16.39
-18.49
-19.64
-19.15
-16.41
-11.15
-3.68
5.01
13.55
20.54
24.98
26.53
25.53
22.73
18.98
15.04
11.41
8.38
6.01
4.32
3.23
2.71
2.63
2.83
3.12
3.27
3.16
2.77
2.15
1.38
0.51
-0.47
-1.59
-2.83
-4.11
-5.29
-6.28
-7.14
-8.08
-9.36
-11.20
-13.64
-16.39
-18.80
-19.97
-18.94
-15.07
-8.38
0.36
9.78
18.28
24.56
28.02
28.76
27.41
24.76
21.44
17.90
14.38
11.03
8.04
5.56
3.71
2.51
1.93
1.90
2.30
2.96
3.67
4.23
4.49
4.37
3.93
3.24
2.36
1.33
0.22
-0.89
-1.92
-2.80
-3.57
-4.37
-5.36
-6.68
-8.26
-9.90
-11.27
-12.14
-12.50
-12.62
-12.95
-13.93
-15.67
-17.77
-19.33
-19.30
-16.82
-11.75
-4.71
3.03
10.02
15.14
17.85
18.26
16.91
14.53
11.79
9.12
6.76
4.77
3.18
1.99
1.27
1.12
1.60
2.61
3.90
5.08
5.74
5.65
4.86
3.66
2.50
1.70
1.38
1.33
1.18
0.55
-0.69
-2.43
-4.31
-5.97
-7.19
-7.93
-8.41
-8.86
-9.55
-10.63
-12.17
-14.11
-16.20
-17.92
-18.63
-17.61
-14.47
-9.26
-2.58
4.54
10.94
15.68
18.27
18.76
17.58
15.29
12.39
9.26
6.17
3.37
1.13
-0.30
-0.82
-0.51
0.34
1.32
2.06
2.38
2.31
2.08
1.92
1.98
2.20
2.34
2.03
1.02
-0.76
-3.11
-5.63
-7.85
-9.42
-10.24
-10.49
-10.62
-11.13
-12.43
-14.62
-17.41
-20.04
-21.52
-20.91
-17.64
-11.78
-4.04
4.35
12.10
18.14
21.92
23.36
22.81
20.75
17.67
13.99
10.07
6.30
3.09
0.77
-0.49
-0.79
-0.42
0.21
0.70
0.85
0.62
0.12
-0.49
-1.15
-1.86
-2.71
-3.79
-5.07
-6.39
-7.51
-8.17
-8.36
-8.22
-8.20
-8.77
-10.29
-12.82
-16.04
-19.33
-21.82
-22.61
-20.95
-16.45
-9.29
-0.29
9.19
17.65
23.84
27.12
27.59
25.93
23.03
19.67
16.30
13.14
10.30
7.89
6.07
4.93
4.36
4.04
3.61
2.84
1.78
0.74
0.07
-0.04
0.26
0.55
0.37
-0.58
-2.26
-4.37
-6.45
-8.14
-9.28
-9.88
-10.21
-10.61
-11.52
-13.22
-15.81
-18.98
-22.00
-23.85
-23.46
-20.10
-13.67
-4.87
5.00
14.40
22.00
26.99
29.23
29.14
27.41
24.76
21.75
18.73
15.89
13.30
10.98
8.94
7.19
5.78
4.76
4.15
3.94
4.05
4.32
4.55
4.56
4.19
3.38
2.19
0.72
-0.86
-2.42
-3.88
-5.14
-6.19
-6.98
-7.48
-7.72
-7.71
-7.49
-7.10
-6.61
-6.14
-5.91
-6.27
-7.59
-10.11
-13.73
-17.85
-21.46
-23.37
-22.57
-18.59
-11.71
-2.99
6.06
13.87
19.32
21.98
22.12
20.48
17.89
15.00
12.15
9.43
6.95
4.85
3.41
2.85
3.19
4.12
5.18
5.87
5.95
5.56
5.05
4.79
4.91
5.16
5.07
4.28
2.69
0.61
-1.41
-2.92
-3.72
-4.02
-4.26
-4.87
-6.04
-7.67
-9.42
-10.84
-11.63
-11.73
-11.34
-10.83
-10.63
-11.10
-12.44
-14.61
-17.27
-19.82
-21.37
-21.06
-18.27
-12.92
-5.63
2.40
9.70
15.06
17.82
18.11
16.58
14.12
11.47
9.03
6.94
5.16
3.68
2.57
1.97
1.99
2.57
3.54
4.63
5.63
6.36
6.74
6.75
6.41
5.75
4.81
3.66
2.37
1.04
-0.31
-1.67
-3.08
-4.59
-6.19
-7.78
-9.18
-10.24
-10.95
-11.43
-11.91
-12.63
-13.77
-15.37
-17.33
-19.31
-20.81
-21.20
-19.83
-16.21
-10.32
-2.66
5.77
13.66
19.82
23.44
24.36
22.95
19.98
16.30
12.57
9.17
6.20
3.64
1.51
-0.03
-0.81
-0.72
0.13
1.44
2.83
3.97
4.71
5.02
5.01
4.78
4.42
3.99
3.53
2.99
2.29
1.28
-0.10
-1.84
-3.80
-5.76
-7.50
-8.94
-10.07
-10.96
-11.70
-12.42
-13.33
-14.60
-16.30
-18.15
-19.52
-19.47
-17.14
-12.18
-4.98
3.37
11.41
17.85
21.97
23.70
23.49
21.98
19.69
16.95
13.92
10.74
7.64
4.95
2.99
1.94
1.74
2.08
2.57
2.86
2.81
2.43
1.95
1.56
1.39
1.42
1.48
1.34
0.83
-0.17
-1.58
-3.24
-4.88
-6.25
-7.17
-7.61
-7.70
-7.72
-8.05
-9.03
-10.82
-13.33
-16.11
-18.47
-19.61
-18.85
-15.82
-10.56
-3.58
4.30
12.03
18.62
23.31
25.68
25.75
23.92
20.77
17.02
13.29
10.03
7.47
5.59
4.29
3.39
2.77
2.37
2.21
2.29
2.51
2.71
2.67
2.26
1.43
0.31
-0.93
-2.11
-3.13
-3.97
-4.64
-5.20
-5.66
-6.14
-6.75
-7.69
-9.14
-11.13
-13.44
-15.46
-16.40
-15.49
-12.38
-7.26
-0.97
5.34
10.59
14.07
15.66
15.61
14.41
12.53
10.29
7.87
5.42
3.11
1.18
-0.18
-0.88
-0.95
-0.51
0.22
1.00
1.65
2.04
2.12
1.90
1.42
0.74
-0.12
-1.13
-2.24
-3.41
-4.49
-5.38
-6.07
-6.75
-7.73
-9.26
-11.25
-13.11
-13.92
-12.82
-9.47
-4.34
1.46
6.64
10.25
12.03
12.36
11.85
11.06
10.17
9.10
7.67
5.86
3.83
1.89
0.37
-0.57
-0.95
-1.02
-1.06
-1.31
-1.82
-2.51
-3.20
-3.75
-4.17
-4.55
-5.05
-5.82
-6.90
-8.28
-9.94
-11.77
-13.60
-15.10
-15.79
-15.20
-13.03
-9.30
-4.45
0.82
5.71
9.53
11.90
12.70
12.13
10.51
8.17
5.41
2.48
-0.38
-2.95
-4.99
-6.35
-7.03
-7.18
-7.08
-7.01
-7.08
-7.19
-7.08
-6.52
-5.53
-4.40
-3.62
-3.71
-5.00
-7.39
-10.42
-13.29
-15.07
-14.96
-12.56
-8.00
-1.91
4.70
10.71
15.24
17.81
18.38
17.26
14.92
11.86
8.43
4.97
1.72
-1.03
-2.99
-4.00
-4.05
-3.45
-2.70
-2.35
-2.74
-3.87
-5.43
-6.93
-8.01
-8.60
-9.00
-9.68
-11.10
-13.45
-16.49
-19.56
-21.70
-21.91
-19.47
-14.31
-7.01
1.24
9.08
15.33
19.35
21.15
21.11
19.83
17.74
15.12
12.12
8.92
5.85
3.31
1.63
0.91
0.94
1.27
1.42
1.07
0.20
-1.01
-2.26
-3.40
-4.41
-5.49
-6.92
-8.96
-11.81
-15.48
-19.58
-23.33
-25.61
-25.25
-21.50
-14.40
-4.82
5.71
15.58
23.58
29.20
32.57
34.15
34.41
33.61
31.77
28.84
24.95
20.52
16.20
12.71
10.44
9.40
9.13
9.03
8.63
7.81
6.76
5.83
5.18
4.73
4.18
3.24
1.82
0.05
-1.73
-3.24
-4.37
-5.18
-5.94
-6.91
-8.27
-9.99
-11.83
-13.40
-14.34
-14.44
-13.81
-12.87
-12.22
-12.42
-13.73
-15.97
-18.59
-20.86
-22.24
-22.50
-21.87
-20.89
-20.31
-20.76
-22.60
-25.61
-28.93
-31.23
-31.02
-27.20
-19.52
-8.73
3.54
15.36
25.06
31.73
35.32
36.43
35.94
34.61
32.90
31.01
29.01
26.97
25.06
23.51
22.41
21.69
21.10
20.29
19.06
17.35
15.36
13.40
11.78
10.65
9.92
9.28
8.30
6.69
4.38
1.65
-1.06
-3.25
-4.68
-5.39
-5.67
-5.92
-6.41
-7.26
-8.35
-9.49
-10.43
-11.04
-11.23
-11.07
-10.80
-10.70
-11.04
-11.90
-13.20
-14.63
-15.88
-16.71
-17.00
-16.79
-16.31
-15.81
-15.69
-16.27
-17.75
-20.00
-22.44
-24.09
-23.80
-20.69
-14.45
-5.67
4.35
13.96
21.65
26.49
28.40
27.97
26.13
23.80
21.52
19.48
17.57
15.65
13.68
11.77
10.12
8.84
7.90
7.16
6.44
5.62
4.71
3.79
2.90
2.07
1.22
0.30
-0.74
-1.89
-3.11
-4.39
-5.71
-7.00
-8.08
-8.75
-8.83
-8.37
-7.64
-7.05
-6.97
-7.52
-8.52
-9.53
-10.15
-10.13
-9.53
-8.67
-8.01
-7.93
-8.73
-10.54
-13.25
-16.47
-19.47
-21.28
-20.93
-17.84
-12.10
-4.50
3.61
10.82
16.06
18.88
19.49
18.46
16.43
13.89
11.13
8.34
5.76
3.68
2.38
2.02
2.45
3.28
3.99
4.25
3.99
3.53
3.20
3.18
3.33
3.29
2.66
1.27
-0.71
-2.87
-4.68
-5.81
-6.19
-6.06
-5.82
-5.85
-6.40
-7.53
-9.08
-10.78
-12.29
-13.34
-13.80
-13.73
-13.39
-13.21
-13.68
-15.16
-17.69
-20.86
-23.78
-25.29
-24.31
-20.23
-13.17
-4.05
5.70
14.63
21.59
26.10
28.23
28.48
27.41
25.51
23.11
20.44
17.82
15.60
14.16
13.68
14.09
15.03
15.98
16.46
16.21
15.30
13.96
12.49
11.04
9.56
7.89
5.91
3.60
1.10
-1.34
-3.43
-4.95
-5.86
-6.31
-6.66
-7.29
-8.46
-10.11
-11.93
-13.47
-14.39
-14.65
-14.57
-14.72
-15.59
-17.43
-20.10
-23.12
-25.67
-26.83
-25.71
-21.77
-14.98
-5.97
4.00
13.43
20.98
25.86
28.00
27.90
26.34
24.04
21.50
19.03
16.77
14.82
13.17
11.78
10.54
9.34
8.16
7.12
6.37
6.01
5.99
6.09
6.02
5.53
4.55
3.18
1.72
0.46
-0.43
-1.05
-1.71
-2.80
-4.49
-6.65
-8.81
-10.40
-11.11
-11.01
-10.56
-10.41
-11.08
-12.73
-15.14
-17.71
-19.72
-20.40
-19.11
-15.44
-9.47
-1.74
6.76
14.85
21.46
25.88
27.93
27.92
26.41
24.02
21.33
18.71
16.41
14.56
13.21
12.36
11.95
11.81
11.81
11.80
11.69
11.53
11.45
11.60
12.04
12.58
12.83
12.34
10.75
7.98
4.29
0.24
-3.54
-6.51
-8.43
-9.48
-10.17
-11.21
-13.17
-16.25
-20.05
-23.70
-26.11
-26.38
-24.21
-19.97
-14.67
-9.49
-5.44
-3.02
-2.15
-2.35
-2.99
-3.56
-3.90
-4.08
-4.33
-4.87
-5.73
-6.78
-7.88
-8.91
-9.85
-10.68
-11.32
-11.64
-11.49
-10.82
-9.75
-8.50
-7.36
-6.49
-5.92
-5.61
-5.55
-5.83
-6.59
-7.92
-9.65
-11.30
-12.14
-11.39
-8.51
-3.45
3.31
10.87
18.17
24.26
28.51
30.67
30.80
29.14
26.02
21.89
17.19
12.41
8.03
4.43
1.86
0.35
-0.20
-0.08
0.40
0.92
1.26
1.39
1.38
1.40
1.58
1.89
2.15
2.03
1.21
-0.57
-3.31
-6.77
-10.43
-13.59
-15.56
-15.83
-14.23
-11.03
-6.86
-2.56
1.04
3.37
4.23
3.81
2.59
1.14
-0.13
-1.05
-1.64
-2.11
-2.54
-2.89
-2.98
-2.64
-1.84
-0.78
0.18
0.73
0.75
0.34
-0.26
-0.80
-1.26
-1.73
-2.44
-3.60
-5.28
-7.55
-10.34
-13.51
-16.76
-19.52
-21.02
-20.43
-17.20
-11.27
-3.28
5.68
14.28
21.37
26.27
28.82
29.29
28.21
26.14
23.55
20.85
18.33
16.24
14.75
13.93
13.73
13.99
14.45
14.77
14.66
13.82
12.14
9.65
6.58
3.27
0.07
-2.79
-5.26
-7.49
-9.67
-11.96
-14.38
-16.91
-19.54
-22.29
-25.19
-28.11
-30.64
-32.22
-32.31
-30.67
-27.54
-23.54
-19.47
-15.99
-13.41
-11.66
-10.45
-9.46
-8.47
-7.42
-6.37
-5.39
-4.49
-3.63
-2.69
-1.65
-0.53
0.52
1.25
1.43
0.93
-0.24
-1.86
-3.70
-5.49
-7.11
-8.55
-9.86
-11.12
-12.36
-13.71
-15.30
-17.27
-19.60
-21.98
-23.76
-24.09
-22.26
-17.95
-11.47
-3.63
4.53
12.06
18.29
22.95
26.03
27.67
28.01
27.22
25.48
23.03
20.16
17.27
14.78
13.03
12.24
12.31
12.89
13.41
13.33
12.30
10.36
7.91
5.54
3.73
2.70
2.26
1.98
1.38
0.14
-1.79
-4.24
-6.79
-8.88
-9.89
-9.18
-6.40
-1.52
4.90
11.86
18.17
22.83
25.31
25.66
24.34
22.03
19.33
16.67
14.31
12.38
10.94
9.99
9.42
9.06
8.67
8.10
7.36
6.56
5.82
5.17
4.40
3.22
1.36
-1.25
-4.40
-7.70
-10.76
-13.28
-15.23
-16.78
-18.23
-19.95
-22.22
-25.05
-28.06
-30.43
-31.06
-28.99
-23.80
-15.91
-6.47
2.94
10.92
16.61
19.87
21.11
20.95
19.95
18.39
16.46
14.30
12.24
10.71
10.11
10.72
12.46
14.97
17.72
20.16
21.90
22.72
22.48
21.10
18.58
14.93
10.35
5.21
-0.02
-4.92
-9.15
-12.55
-15.12
-17.02
-18.42
-19.54
-20.49
-21.33
-22.10
-22.85
-23.74
-24.99
-26.70
-28.70
-30.46
-31.27
-30.56
-28.25
-24.80
-21.01
-17.67
-15.18
-13.48
-12.24
-11.17
-10.21
-9.51
-9.25
-9.50
-10.04
-10.48
-10.40
-9.51
-7.74
-5.24
-2.34
0.58
3.16
5.19
6.66
7.76
8.73
9.74
10.79
11.64
12.02
11.70
10.68
9.14
7.37
5.64
4.11
2.77
1.52
0.28
-1.03
-2.45
-4.04
-5.86
-7.89
-9.84
-11.14
-10.98
-8.68
-3.97
2.73
10.44
17.83
23.71
27.35
28.64
27.93
25.88
23.09
20.02
16.93
13.95
11.16
8.68
6.64
5.13
4.21
3.77
3.63
3.56
3.38
3.01
2.49
1.95
1.48
1.21
1.10
1.09
1.04
0.76
0.17
-0.78
-2.01
-3.39
-4.69
-5.71
-6.31
-6.47
-6.35
-6.26
-6.62
-7.79
-9.84
-12.42
-14.72
-15.74
-14.62
-11.08
-5.51
1.09
7.51
12.73
16.18
17.84
18.06
17.32
16.04
14.46
12.70
10.81
8.86
6.97
5.35
4.13
3.41
3.11
3.06
3.03
2.84
2.46
1.99
1.59
1.37
1.38
1.50
1.56
1.34
0.69
-0.43
-1.90
-3.47
-4.89
-5.95
-6.64
-7.05
-7.36
-7.70
-8.13
-8.74
-9.59
-10.65
-11.77
-12.56
-12.47
-10.99
-7.88
-3.41
1.67
6.41
9.94
11.74
11.78
10.45
8.31
5.93
3.72
1.89
0.45
-0.63
-1.38
-1.84
-2.02
-1.96
-1.71
-1.36
-0.96
-0.55
-0.17
0.07
0.01
-0.52
-1.61
-3.11
-4.64
-5.79
-6.21
-5.85
-4.95
-3.94
-3.27
-3.28
-4.08
-5.58
-7.44
-9.13
-9.97
-9.36
-6.92
-2.76
2.52
8.01
12.70
15.85
17.12
16.63
14.87
12.45
9.93
7.65
5.69
3.96
2.36
0.89
-0.31
-1.07
-1.31
-1.13
-0.79
-0.60
-0.69
-1.04
-1.50
-1.94
-2.34
-2.80
-3.40
-4.16
-5.02
-5.88
-6.69
-7.48
-8.33
-9.32
-10.35
-11.13
-11.23
-10.23
-7.90
-4.30
0.14
4.76
8.85
11.82
13.40
13.61
12.73
11.18
9.29
7.36
5.56
3.98
2.67
1.70
1.10
0.89
0.99
1.25
1.47
1.46
1.13
0.50
-0.31
-1.13
-1.80
-2.27
-2.56
-2.78
-3.08
-3.61
-4.45
-5.55
-6.71
-7.55
-7.61
-6.55
-4.22
-0.87
2.97
6.63
9.56
11.48
12.41
12.52
12.05
11.15
9.87
8.28
6.45
4.55
2.79
1.39
0.47
-0.00
-0.19
-0.33
-0.63
-1.15
-1.84
-2.53
-3.04
-3.26
-3.20
-2.90
-2.48
-2.06
-1.81
-1.98
-2.76
-4.18
-5.97
-7.62
-8.50
-8.18
-6.59
-4.08
-1.18
1.55
3.74
5.31
6.33
6.90
7.07
6.76
5.79
4.07
1.61
-1.36
-4.45
-7.20
-9.28
-10.59
-11.14
-11.12
-10.65
-9.81
-8.64
-7.22
-5.69
-4.29
-3.29
-2.91
-3.30
-4.46
-6.19
-8.12
-9.69
-10.35
-9.76
-7.93
-5.23
-2.24
0.54
2.81
4.52
5.70
6.34
6.32
5.52
4.01
2.11
0.33
-0.84
-1.20
-0.89
-0.29
0.18
0.29
0.08
-0.29
-0.58
-0.71
-0.69
-0.63
-0.59
-0.64
-0.80
-1.13
-1.63
-2.23
-2.73
-2.81
-2.14
-0.56
1.78
4.47
6.95
8.74
9.58
9.49
8.69
7.41
5.82
4.06
2.22
0.50
-0.91
-1.89
-2.42
-2.58
-2.57
-2.49
-2.40
-2.28
-2.17
-2.11
-2.21
-2.51
-2.95
-3.44
-3.93
-4.51
-5.30
-6.38
-7.60
-8.56
-8.73
-7.67
-5.30
-1.93
1.80
5.11
7.46
8.62
8.71
8.13
7.28
6.48
5.85
5.37
4.95
4.53
4.13
3.77
3.47
3.23
2.98
2.69
2.38
2.07
1.82
1.59
1.30
0.80
0.00
-1.13
-2.54
-3.99
-5.22
-5.85
-5.55
-4.15
-1.72
1.38
4.54
7.14
8.72
9.14
8.61
7.51
6.14
4.69
3.16
1.60
0.12
-1.07
-1.73
-1.84
-1.59
-1.35
-1.46
-2.07
-3.00
-3.92
-4.48
-4.50
-4.07
-3.48
-3.04
-2.92
-3.17
-3.66
-4.21
-4.56
-4.45
-3.73
-2.32
-0.36
1.88
3.98
5.56
6.39
6.47
6.01
5.27
4.50
3.76
3.01
2.12
1.03
-0.24
-1.52
-2.67
-3.52
-4.01
-4.18
-4.13
-4.00
-3.88
-3.86
-3.94
-4.09
-4.26
-4.41
-4.62
-4.99
-5.66
-6.62
-7.65
-8.36
-8.36
-7.43
-5.66
-3.44
-1.26
0.43
1.47
1.96
2.13
2.21
2.29
2.33
2.28
2.15
2.00
1.95
2.06
2.28
2.52
2.68
2.75
2.82
2.93
3.12
3.27
3.24
2.85
1.97
0.61
-1.19
-3.26
-5.33
-7.02
-7.96
-7.80
-6.46
-4.14
-1.29
1.57
4.01
5.81
6.93
7.43
7.33
6.65
5.36
3.59
1.61
-0.19
-1.38
-1.72
-1.24
-0.28
0.69
1.20
1.03
0.30
-0.66
-1.47
-1.90
-1.98
-1.92
-2.06
-2.67
-3.78
-5.21
-6.56
-7.28
-6.90
-5.16
-2.21
1.44
5.03
7.89
9.66
10.40
10.46
10.18
9.68
8.83
7.44
5.52
3.40
1.56
0.42
0.07
0.29
0.66
0.85
0.77
0.55
0.35
0.22
0.09
-0.21
-0.75
-1.53
-2.50
-3.62
-4.89
-6.27
-7.54
-8.29
-8.06
-6.50
-3.67
-0.04
3.71
6.89
9.08
10.25
10.60
10.40
9.82
8.94
7.80
6.50
5.28
4.32
3.75
3.46
3.26
2.92
2.34
1.61
0.88
0.32
0.01
-0.07
0.02
0.23
0.51
0.74
0.75
0.35
-0.57
-1.81
-2.88
-3.13
-1.95
0.92
5.31
10.70
16.41
21.73
26.06
28.87
29.70
28.33
24.93
20.24
15.38
11.58
9.60
9.49
10.60
11.94
12.76
12.94
13.16
14.68
18.82
26.40
37.18
49.47
60.30
66.10
63.77
51.98
31.82
6.60
-19.24
-41.60
-58.02
-68.10
-72.89
-73.99
-72.46
-68.56
-61.99
-52.64
-41.19
-29.19
-18.70
-11.55
-8.72
-10.01
-14.28
-19.96
-25.67
-30.57
-34.43
-37.34
-39.30
-40.15
-39.59
-37.43
-33.96
-29.83
-26.00
-23.20
-21.74
-21.33
-21.33
-20.94
-19.59
-17.15
-13.86
-10.32
-7.16
-4.87
-3.59
-3.09
-2.89
-2.53
-1.73
-0.52
0.77
1.83
2.49
2.83
3.10
3.52
4.16
4.86
5.44
5.75
5.79
5.72
5.71
5.84
6.05
6.27
6.49
6.76
7.11
7.42
7.37
6.60
4.96
2.69
0.57
-0.51
0.26
3.14
7.78
13.34
18.81
23.33
26.40
27.85
27.84
26.67
24.65
22.07
19.11
15.97
12.88
10.14
8.16
7.15
7.14
7.75
8.41
8.52
7.80
6.37
4.67
3.18
2.16
1.48
0.71
-0.65
-2.89
-5.99
-9.49
-12.64
-14.61
-14.73
-12.67
-8.61
-3.20
2.60
7.83
11.80
14.23
15.24
15.14
14.25
12.78
10.83
8.55
6.22
4.21
2.94
2.60
3.13
4.14
5.07
5.42
4.98
3.85
2.42
1.10
0.14
-0.42
-0.76
-1.09
-1.60
-2.29
-3.20
-4.37
-5.88
-7.66
-9.40
-10.53
-10.38
-8.51
-5.01
-0.54
3.92
7.46
9.59
10.38
10.26
9.74
9.12
8.43
7.57
6.47
5.21
3.94
2.85
2.04
1.52
1.25
1.18
1.19
1.16
0.94
0.33
-0.75
-2.24
-3.97
-5.69
-7.19
-8.36
-9.22
-9.85
-10.34
-10.72
-10.91
-10.72
-9.96
-8.53
-6.53
-4.27
-2.16
-0.55
0.41
0.81
0.91
0.98
1.12
1.26
1.24
0.93
0.41
-0.08
-0.21
0.19
1.12
2.36
3.60
4.58
5.20
5.51
5.54
5.20
4.28
2.56
0.04
-2.98
-5.98
-8.43
-10.09
-11.13
-11.90
-12.70
-13.47
-13.83
-13.24
-11.40
-8.48
-4.97
-1.54
1.39
3.77
5.84
7.82
9.70
11.14
11.66
10.95
9.09
6.53
3.92
1.77
0.28
-0.67
-1.38
-2.08
-2.81
-3.48
-3.95
-4.20
-4.31
-4.45
-4.75
-5.36
-6.38
-7.88
-9.77
-11.78
-13.32
-13.70
-12.38
-9.25
-4.82
0.03
4.31
7.34
9.00
9.66
9.86
10.00
10.11
9.93
9.17
7.75
5.93
4.18
2.91
2.24
1.97
1.72
1.22
0.45
-0.30
-0.75
-0.73
-0.38
-0.00
0.12
-0.15
-0.82
-1.88
-3.30
-5.00
-6.74
-7.99
-8.14
-6.71
-3.71
0.27
4.31
7.54
9.60
10.65
11.19
11.61
11.94
11.89
11.06
9.33
6.98
4.53
2.47
1.04
0.17
-0.42
-0.97
-1.56
-2.10
-2.43
-2.46
-2.17
-1.68
-1.13
-0.65
-0.37
-0.42
-0.91
-1.94
-3.56
-5.64
-7.82
-9.49
-10.00
-8.87
-6.10
-2.19
1.99
5.61
8.18
9.67
10.38
10.59
10.40
9.66
8.15
5.89
3.21
0.66
-1.23
-2.20
-2.35
-2.07
-1.81
-1.86
-2.31
-2.97
-3.57
-3.91
-3.96
-3.85
-3.85
-4.18
-4.95
-6.12
-7.51
-8.94
-10.26
-11.33
-11.99
-12.02
-11.20
-9.41
-6.72
-3.44
-0.00
3.16
5.74
7.57
8.58
8.75
8.09
6.68
4.78
2.77
1.12
0.15
-0.09
0.13
0.48
0.66
0.58
0.40
0.39
0.74
1.50
2.46
3.34
3.86
3.84
3.26
2.15
0.63
-1.13
-2.86
-4.20
-4.77
-4.27
-2.64
-0.12
2.82
5.66
7.99
9.59
10.48
10.68
10.22
9.10
7.40
5.38
3.44
2.00
1.32
1.32
1.70
2.04
1.99
1.42
0.45
-0.67
-1.62
-2.16
-2.24
-1.96
-1.54
-1.26
-1.35
-1.94
-3.06
-4.48
-5.84
-6.67
-6.46
-4.97
-2.23
1.28
4.92
7.95
9.88
10.61
10.35
9.45
8.25
6.90
5.44
3.89
2.34
0.97
-0.08
-0.76
-1.18
-1.53
-1.97
-2.58
-3.21
-3.71
-3.91
-3.80
-3.44
-2.96
-2.52
-2.24
-2.26
-2.67
-3.49
-4.49
-5.24
-5.24
-4.15
-1.92
1.05
4.13
6.72
8.43
9.21
9.24
8.76
7.99
7.04
6.01
4.98
4.11
3.51
3.30
3.54
4.15
5.02
5.96
6.85
7.59
8.23
8.84
9.53
10.29
11.00
11.44
11.38
10.65
9.26
7.40
5.49
4.07
3.69
4.74
7.34
11.33
16.35
22.04
28.18
34.61
41.20
47.59
53.16
57.00
58.09
55.53
48.64
37.24
21.70
3.02
-17.21
-37.11
-54.93
-69.35
-79.64
-85.56
-87.23
-84.90
-78.98
-70.07
-59.05
-47.08
-35.46
-25.49
-18.23
-14.35
-13.95
-16.58
-21.25
-26.66
-31.54
-35.06
-36.94
-37.42
-36.96
-35.95
-34.51
-32.51
-29.86
-26.56
-22.88
-19.20
-15.93
-13.23
-11.06
-9.18
-7.33
-5.42
-3.57
-2.06
-1.09
-0.70
-0.70
-0.72
-0.48
0.08
0.65
0.74
-0.15
-2.22
-5.21
-8.40
-10.81
-11.52
-9.95
-6.04
-0.26
6.57
13.47
19.57
24.27
27.27
28.54
28.25
26.71
24.29
21.40
18.45
15.79
13.71
12.36
11.83
12.13
13.18
14.77
16.61
18.28
19.40
19.64
18.90
17.25
14.95
12.37
9.85
7.77
6.49
6.36
7.64
10.27
13.88
17.72
20.87
22.51
22.16
19.80
15.85
10.95
5.82
1.02
-3.07
-6.27
-8.50
-9.79
-10.28
-10.23
-9.97
-9.84
-10.01
-10.45
-10.93
-11.16
-10.98
-10.51
-10.08
-10.17
-11.14
-12.97
-15.18
-16.94
-17.24
-15.27
-10.76
-4.05
3.93
12.02
19.14
24.57
28.02
29.56
29.48
28.09
25.81
23.08
20.40
18.22
16.77
16.01
15.64
15.21
14.36
13.00
11.24
9.41
7.80
6.57
5.65
4.80
3.65
1.93
-0.53
-3.62
-7.01
-10.10
-12.21
-12.70
-11.20
-7.77
-2.95
2.38
7.22
10.74
12.46
12.34
10.65
7.86
4.44
0.91
-2.29
-4.80
-6.40
-7.12
-7.13
-6.79
-6.39
-6.14
-5.99
-5.73
-5.13
-4.12
-2.86
-1.72
-1.20
-1.69
-3.36
-5.95
-8.90
-11.39
-12.57
-11.85
-9.12
-4.85
0.02
4.35
7.18
8.04
7.05
4.76
1.87
-1.10
-3.89
-6.41
-8.64
-10.37
-11.35
-11.37
-10.41
-8.73
-6.72
-4.75
-3.05
-1.65
-0.54
0.29
0.73
0.56
-0.43
-2.22
-4.61
-7.00
-8.64
-8.72
-6.72
-2.58
3.19
9.60
15.56
20.14
22.79
23.43
22.30
19.83
16.47
12.66
8.77
5.15
2.05
-0.37
-2.12
-3.34
-4.26
-5.11
-5.97
-6.78
-7.33
-7.46
-7.13
-6.56
-6.24
-6.60
-7.93
-10.16
-12.86
-15.31
-16.72
-16.42
-14.03
-9.66
-3.86
2.46
8.29
12.79
15.59
16.74
16.58
15.49
13.71
11.36
8.56
5.56
2.79
0.69
-0.50
-0.84
-0.71
-0.53
-0.64
-1.12
-1.88
-2.71
-3.45
-4.08
-4.69
-5.39
-6.33
-7.56
-9.10
-10.95
-13.04
-15.16
-16.98
-17.94
-17.46
-15.04
-10.53
-4.26
2.90
9.85
15.52
19.22
20.80
20.62
19.30
17.46
15.49
13.53
11.53
9.50
7.53
5.85
4.72
4.20
4.19
4.39
4.50
4.35
3.96
3.45
2.90
2.31
1.60
0.74
-0.21
-1.09
-1.81
-2.41
-3.13
-4.21
-5.80
-7.79
-9.91
-11.81
-13.23
-14.10
-14.46
-14.46
-14.35
-14.42
-15.03
-16.31
-18.08
-19.69
-20.22
-18.84
-15.24
-9.83
-3.64
2.10
6.44
8.98
9.88
9.61
8.64
7.30
5.73
4.08
2.54
1.38
0.82
0.97
1.67
2.59
3.33
3.57
3.26
2.58
1.86
1.42
1.38
1.59
1.70
1.38
0.44
-1.02
-2.69
-4.20
-5.30
-5.95
-6.29
-6.54
-6.81
-7.16
-7.54
-8.01
-8.69
-9.83
-11.55
-13.70
-15.76
-16.87
-16.18
-13.18
-7.98
-1.31
5.68
11.85
16.40
18.99
19.80
19.19
17.69
15.67
13.43
11.17
9.05
7.19
5.76
4.82
4.44
4.62
5.22
6.04
6.80
7.32
7.47
7.30
6.91
6.42
5.81
4.93
3.67
1.98
0.04
-1.86
-3.38
-4.34
-4.74
-4.78
-4.75
-4.88
-5.40
-6.45
-8.14
-10.42
-12.99
-15.20
-16.19
-15.16
-11.68
-6.01
0.97
8.01
13.95
18.01
20.07
20.47
19.75
18.44
16.84
15.06
13.18
11.35
9.78
8.76
8.44
8.79
9.61
10.55
11.31
11.74
11.89
11.92
12.09
12.55
13.31
14.22
14.99
15.32
14.99
13.94
12.36
10.73
9.64
9.67
11.10
13.76
17.02
20.02
21.96
22.54
22.10
21.60
22.35
25.47
31.43
39.73
48.96
57.13
62.39
63.62
60.79
54.94
47.70
40.74
35.25
31.64
29.42
27.23
23.23
15.48
2.76
-15.00
-36.35
-58.81
-79.58
-96.48
-108.43
-115.34
-117.63
-115.65
-109.72
-100.26
-88.31
-75.58
-64.08
-55.44
-50.36
-48.40
-48.34
-48.78
-48.70
-47.70
-46.06
-44.33
-43.12
-42.81
-43.42
-44.53
-45.39
-45.09
-42.86
-38.30
-31.61
-23.42
-14.65
-6.17
1.47
8.04
13.52
17.98
21.45
23.93
25.46
26.26
26.69
27.18
28.09
29.54
31.49
33.69
35.94
37.99
39.63
40.69
41.00
40.46
39.09
36.98
34.29
31.18
27.72
23.93
19.77
15.22
10.32
5.19
0.11
-4.56
-8.29
-10.52
-10.80
-8.93
-5.14
0.00
5.59
10.75
14.77
17.27
18.20
17.74
16.20
13.85
10.93
7.59
4.00
0.38
-2.97
-5.64
-7.32
-7.84
-7.38
-6.36
-5.37
-4.85
-4.98
-5.58
-6.28
-6.78
-6.99
-7.10
-7.49
-8.47
-10.12
-12.29
-14.57
-16.43
-17.34
-16.80
-14.48
-10.35
-4.71
1.75
8.18
13.72
17.80
20.14
20.79
19.97
17.97
15.06
11.51
7.67
3.95
0.75
-1.58
-2.88
-3.19
-2.77
-2.01
-1.33
-1.02
-1.19
-1.74
-2.41
-2.97
-3.33
-3.60
-4.07
-5.08
-6.84
-9.32
-12.13
-14.64
-16.14
-16.07
-14.13
-10.37
-5.18
0.79
6.77
11.95
15.66
17.52
17.50
15.96
13.48
10.65
7.90
5.37
3.03
0.88
-0.97
-2.24
-2.68
-2.21
-1.02
0.43
1.69
2.45
2.66
2.50
2.23
2.04
1.84
1.44
0.57
-0.92
-3.02
-5.48
-7.95
-9.99
-11.10
-10.85
-8.87
-5.10
0.17
6.30
12.34
17.37
20.74
22.19
21.84
20.12
17.47
14.30
10.94
7.59
4.50
1.90
-0.02
-1.10
-1.31
-0.81
0.02
0.72
0.83
0.12
-1.36
-3.27
-5.16
-6.71
-7.79
-8.51
-9.09
-9.85
-10.99
-12.74
-15.14
-17.97
-20.70
-22.54
-22.63
-20.41
-15.90
-9.72
-2.94
3.34
8.29
11.54
13.10
13.21
12.17
10.26
7.81
5.20
2.84
1.07
0.13
0.05
0.68
1.74
2.88
3.80
4.34
4.51
4.42
4.26
4.13
4.02
3.79
3.20
2.04
0.20
-2.26
-5.05
-7.65
-9.44
-9.82
-8.43
-5.23
-0.54
5.02
10.71
15.81
19.76
22.20
22.93
21.95
19.43
15.69
11.23
6.66
2.61
-0.43
-2.19
-2.71
-2.33
-1.59
-1.05
-1.09
-1.83
-3.04
-4.35
-5.37
-5.92
-6.02
-5.96
-6.11
-6.81
-8.26
-10.40
-12.93
-15.33
-16.92
-17.11
-15.51
-12.09
-7.20
-1.51
4.20
9.23
13.07
15.48
16.50
16.30
15.19
13.49
11.49
9.46
7.58
5.98
4.71
3.74
2.99
2.35
1.70
0.96
0.14
-0.77
-1.70
-2.63
-3.49
-4.22
-4.80
-5.26
-5.70
-6.22
-7.03
-8.31
-10.15
-12.45
-14.84
-16.68
-17.21
-15.80
-12.27
-7.01
-0.91
4.97
9.74
12.93
14.57
14.91
14.26
12.85
10.87
8.53
6.14
4.08
2.66
2.03
2.11
2.69
3.48
4.17
4.59
4.64
4.31
3.73
3.02
2.31
1.67
1.07
0.49
-0.15
-0.93
-1.95
-3.37
-5.32
-7.79
-10.58
-13.13
-14.77
-14.77
-12.69
-8.54
-2.82
3.58
9.67
14.54
17.67
18.96
18.62
17.09
14.75
11.89
8.67
5.18
1.62
-1.65
-4.20
-5.70
-6.03
-5.43
-4.29
-3.07
-2.06
-1.36
-0.90
-0.61
-0.49
-0.62
-1.08
-1.86
-2.81
-3.81
-4.81
-5.91
-7.36
-9.34
-11.74
-14.05
-15.50
-15.36
-13.20
-9.15
-3.83
1.82
6.88
10.68
12.88
13.47
12.69
10.84
8.32
5.45
2.50
-0.33
-2.87
-4.90
-6.15
-6.40
-5.66
-4.20
-2.57
-1.33
-0.82
-1.05
-1.77
-2.62
-3.36
-3.97
-4.54
-5.25
-6.21
-7.47
-9.03
-10.77
-12.45
-13.68
-13.93
-12.75
-9.96
-5.78
-0.78
4.26
8.64
11.87
13.71
14.18
13.42
11.68
9.25
6.51
3.78
1.38
-0.53
-1.92
-2.84
-3.41
-3.80
-4.15
-4.56
-5.01
-5.42
-5.67
-5.66
-5.38
-4.97
-4.72
-4.94
-5.83
-7.42
-9.42
-11.32
-12.51
-12.42
-10.75
-7.51
-3.07
1.93
6.77
10.82
13.69
15.27
15.69
15.18
13.96
12.26
10.28
8.30
6.70
5.83
5.86
6.58
7.45
7.84
7.28
5.77
3.73
1.84
0.72
0.63
1.45
2.81
4.24
5.33
5.79
5.52
4.61
3.48
2.81
3.46
6.16
11.22
18.30
26.52
34.74
41.98
47.74
52.01
55.16
57.54
59.32
60.46
60.83
60.43
59.44
58.19
57.04
56.28
56.15
56.86
58.34
60.00
60.40
57.37
48.49
31.99
7.73
-22.46
-55.07
-85.86
-111.02
-127.95
-135.61
-134.21
-124.96
-109.71
-90.79
-70.80
-52.29
-37.22
-26.56
-20.19
-17.14
-16.19
-16.45
-17.71
-20.27
-24.57
-30.62
-37.79
-44.88
-50.47
-53.51
-53.52
-50.81
-46.17
-40.55
-34.70
-28.99
-23.46
-17.97
-12.42
-6.82
-1.40
3.57
7.87
11.34
13.87
15.38
15.75
14.96
13.21
10.98
9.06
8.27
9.14
11.72
15.54
19.76
23.49
26.05
27.05
26.50
24.67
21.98
18.95
16.02
13.52
11.54
9.98
8.61
7.24
5.84
4.54
3.59
3.18
3.26
3.50
3.44
2.59
0.74
-2.01
-5.26
-8.51
-11.38
-13.69
-15.30
-16.05
-15.63
-13.75
-10.33
-5.77
-0.80
3.65
6.85
8.58
9.05
8.75
8.13
7.40
6.55
5.44
4.03
2.43
0.89
-0.36
-1.24
-1.81
-2.29
-2.84
-3.50
-4.14
-4.61
-4.83
-4.91
-5.14
-5.84
-7.21
-9.17
-11.37
-13.25
-14.17
-13.56
-11.15
-6.95
-1.34
4.97
11.16
16.39
20.08
21.93
21.99
20.57
18.12
15.12
11.97
8.98
6.31
4.02
2.14
0.71
-0.25
-0.77
-0.96
-1.01
-1.11
-1.35
-1.74
-2.23
-2.84
-3.69
-5.03
-7.08
-9.88
-13.20
-16.53
-19.07
-19.97
-18.50
-14.38
-7.85
0.19
8.45
15.59
20.65
23.24
23.58
22.24
19.84
16.84
13.53
10.11
6.88
4.19
2.33
1.42
1.25
1.41
1.41
0.87
-0.28
-1.82
-3.40
-4.70
-5.61
-6.25
-6.89
-7.83
-9.20
-10.99
-13.03
-14.99
-16.43
-16.84
-15.72
-12.73
-7.92
-1.78
4.82
10.83
15.41
18.12
19.02
18.46
16.91
14.78
12.26
9.46
6.50
3.63
1.16
-0.59
-1.43
-1.44
-0.89
-0.24
0.08
-0.19
-1.11
-2.50
-4.05
-5.45
-6.55
-7.37
-8.08
-8.96
-10.24
-12.06
-14.42
-17.12
-19.71
-21.52
-21.83
-20.02
-15.83
-9.60
-2.18
5.26
11.58
16.04
18.43
18.97
18.15
16.40
14.00
11.15
8.01
4.92
2.32
0.70
0.36
1.23
2.88
4.61
5.72
5.79
4.76
3.00
1.05
-0.55
-1.53
-1.93
-2.10
-2.50
-3.49
-5.20
-7.55
-10.18
-12.60
-14.20
-14.39
-12.72
-8.98
-3.41
3.36
10.38
16.63
21.32
24.00
24.65
23.55
21.09
17.66
13.63
9.40
5.44
2.20
-0.00
-1.13
-1.36
-1.12
-0.79
-0.59
-0.48
-0.29
0.09
0.60
0.98
0.91
0.15
-1.28
-3.17
-5.17
-6.98
-8.39
-9.38
-10.05
-10.56
-11.09
-11.81
-12.92
-14.59
-16.89
-19.63
-22.24
-23.81
-23.37
-20.25
-14.40
-6.52
2.13
10.19
16.60
20.97
23.41
24.39
24.42
23.79
22.64
21.04
19.07
16.94
14.89
13.16
11.80
10.73
9.78
8.78
7.65
6.41
5.19
4.13
3.26
2.54
1.81
0.91
-0.24
-1.52
-2.71
-3.51
-3.76
-3.50
-2.96
-2.46
-2.29
-2.56
-3.20
-4.05
-4.90
-5.65
-6.22
-6.67
-7.05
-7.50
-8.21
-9.40
-11.29
-13.90
-16.96
-19.82
-21.55
-21.17
-18.06
-12.20
-4.33
4.27
12.18
18.25
21.99
23.52
23.42
22.33
20.73
18.83
16.66
14.30
11.91
9.79
8.17
7.13
6.48
5.91
5.15
4.15
3.03
2.08
1.48
1.24
1.19
1.03
0.58
-0.16
-1.02
-1.79
-2.32
-2.70
-3.15
-3.94
-5.26
-7.06
-9.07
-10.91
-12.29
-13.07
-13.40
-13.57
-13.93
-14.81
-16.37
-18.54
-20.96
-23.05
-24.03
-23.20
-20.16
-15.06
-8.54
-1.68
4.50
9.24
12.36
14.13
15.04
15.49
15.64
15.40
14.59
13.16
11.24
9.22
7.52
6.42
6.00
6.11
6.48
6.84
7.01
6.98
6.90
6.93
7.13
7.39
7.44
7.04
6.02
4.49
2.77
1.25
0.28
-0.05
0.10
0.30
0.03
-1.17
-3.53
-6.91
-10.75
-14.19
-16.26
-16.19
-13.70
-9.15
-3.37
2.58
7.77
11.69
14.26
15.70
16.30
16.28
15.68
14.52
12.89
11.02
9.25
7.89
7.07
6.64
6.28
5.65
4.61
3.33
2.21
1.65
1.83
2.57
3.38
3.67
3.09
1.71
0.02
-1.27
-1.54
-0.50
1.68
4.27
6.25
6.55
4.46
0.02
-5.87
-11.65
-15.68
-16.84
-14.96
-10.79
-5.44
0.15
5.70
11.55
18.20
25.82
33.87
41.18
46.33
48.18
46.35
41.46
35.09
29.55
27.37
30.50
39.42
52.51
66.01
74.88
74.38
61.83
37.70
5.56
-29.21
-61.24
-86.89
-104.74
-115.32
-119.93
-119.78
-115.60
-108.01
-97.94
-86.88
-76.55
-68.33
-62.61
-58.65
-54.95
-49.99
-43.01
-34.34
-25.28
-17.46
-12.05
-9.24
-8.21
-7.59
-6.15
-3.41
0.26
3.95
6.72
8.15
8.44
8.25
8.29
8.99
10.34
11.95
13.28
13.88
13.57
12.45
10.90
9.42
8.40
8.01
8.18
8.59
8.93
8.93
8.46
7.57
6.46
5.45
4.92
5.28
6.85
9.72
13.71
18.31
22.87
26.68
29.21
30.20
29.66
27.78
24.84
21.13
16.90
12.43
8.12
4.42
1.72
0.24
-0.14
0.10
0.42
0.39
-0.13
-0.96
-1.82
-2.47
-2.87
-3.13
-3.43
-3.88
-4.50
-5.24
-5.98
-6.65
-7.23
-7.89
-8.89
-10.46
-12.57
-14.74
-16.15
-15.85
-13.33
-8.73
-2.93
2.84
7.50
10.45
11.69
11.65
10.84
9.62
8.15
6.45
4.59
2.74
1.16
0.12
-0.23
0.12
1.01
2.16
3.33
4.29
4.95
5.27
5.26
4.94
4.32
3.40
2.22
0.87
-0.54
-1.88
-3.04
-3.95
-4.73
-5.57
-6.65
-7.96
-9.17
-9.67
-8.75
-5.88
-1.03
5.27
12.04
18.19
22.89
25.79
27.07
27.30
27.14
27.10
27.39
27.86
28.16
27.92
26.96
25.47
23.94
23.01
23.20
24.71
27.40
30.85
34.48
37.80
40.48
42.47
44.13
46.26
49.95
56.11
64.79
74.61
82.83
85.94
80.78
65.69
41.08
9.27
-26.10
-61.03
-91.78
-115.50
-130.49
-136.32
-133.88
-125.13
-112.58
-98.69
-85.38
-73.72
-64.07
-56.27
-49.91
-44.53
-39.74
-35.32
-31.31
-27.91
-25.34
-23.73
-22.94
-22.64
-22.34
-21.68
-20.47
-18.70
-16.49
-13.99
-11.29
-8.42
-5.37
-2.23
0.94
3.95
6.61
8.70
10.06
10.57
10.34
9.67
9.12
9.31
10.61
13.00
15.93
18.64
20.46
21.17
21.00
20.47
20.04
19.85
19.68
19.20
18.16
16.62
14.94
13.60
12.97
13.20
14.12
15.29
16.19
16.36
15.58
13.82
11.25
8.02
4.27
0.06
-4.42
-8.85
-12.67
-15.32
-16.37
-15.78
-13.95
-11.58
-9.40
-7.94
-7.32
-7.19
-6.95
-5.90
-3.55
0.20
5.05
10.38
15.44
19.63
22.58
24.19
24.59
23.96
22.50
20.42
17.98
15.48
13.28
11.64
10.65
10.22
10.08
9.90
9.45
8.60
7.43
6.06
4.60
3.12
1.60
0.01
-1.61
-3.17
-4.48
-5.35
-5.68
-5.54
-5.10
-4.63
-4.39
-4.61
-5.46
-7.04
-9.33
-12.01
-14.49
-16.00
-15.88
-13.92
-10.46
-6.35
-2.58
0.16
1.63
2.09
2.04
1.90
1.87
1.90
1.81
1.44
0.72
-0.26
-1.28
-2.07
-2.38
-2.06
-1.13
0.18
1.54
2.65
3.28
3.37
2.94
2.12
1.04
-0.17
-1.40
-2.50
-3.42
-4.15
-4.83
-5.60
-6.59
-7.75
-8.81
-9.32
-8.85
-7.09
-4.10
-0.27
3.81
7.52
10.44
12.40
13.40
13.57
13.04
11.94
10.43
8.69
6.87
5.09
3.36
1.72
0.19
-1.09
-1.99
-2.43
-2.42
-2.13
-1.75
-1.42
-1.16
-0.98
-0.89
-0.99
-1.34
-1.98
-2.81
-3.69
-4.53
-5.38
-6.42
-7.85
-9.62
-11.45
-12.75
-12.95
-11.68
-8.97
-5.27
-1.29
2.25
4.88
6.44
7.09
7.14
6.85
6.29
5.42
4.12
2.39
0.37
-1.62
-3.27
-4.36
-4.89
-5.04
-5.01
-4.97
-4.94
-4.87
-4.71
-4.48
-4.30
-4.29
-4.52
-4.88
-5.24
-5.44
-5.45
-5.45
-5.75
-6.61
-8.05
-9.74
-11.03
-11.24
-9.87
-6.86
-2.65
2.00
6.24
9.42
11.26
11.89
11.67
11.03
10.29
9.61
8.95
8.21
7.26
6.15
5.04
4.20
3.81
3.90
4.24
4.50
4.30
3.48
2.13
0.60
-0.67
-1.40
-1.55
-1.33
-1.10
-1.17
-1.72
-2.75
-4.19
-5.90
-7.67
-9.20
-10.10
-9.94
-8.48
-5.75
-2.12
1.79
5.31
7.89
9.32
9.66
9.25
8.44
7.49
6.55
5.64
4.74
3.93
3.31
2.97
2.88
2.84
2.55
1.76
0.44
-1.15
-2.61
-3.59
-3.99
-3.95
-3.77
-3.73
-3.94
-4.44
-5.19
-6.18
-7.37
-8.57
-9.43
-9.48
-8.36
-6.04
-2.85
0.61
3.66
5.84
6.93
6.99
6.16
4.73
2.93
1.03
-0.67
-2.00
-2.84
-3.23
-3.29
-3.21
-3.12
-3.14
-3.29
-3.51
-3.73
-3.84
-3.80
-3.69
-3.65
-3.91
-4.65
-6.02
-7.97
-10.24
-12.37
-13.75
-13.72
-11.85
-8.02
-2.58
3.75
10.14
15.82
20.32
23.53
25.53
26.47
26.46
25.53
23.70
21.06
17.78
14.18
10.58
7.27
4.41
2.05
0.12
-1.46
-2.64
-3.39
-3.60
-3.27
-2.58
-1.81
-1.26
-1.22
-1.89
-3.27
-5.26
-7.55
-9.74
-11.33
-11.91
-11.22
-9.36
-6.70
-3.78
-1.15
0.83
2.06
2.61
2.64
2.36
1.93
1.39
0.82
0.17
-0.57
-1.41
-2.31
-3.19
-3.98
-4.60
-5.06
-5.37
-5.53
-5.49
-5.15
-4.43
-3.39
-2.19
-1.15
-0.65
-0.93
-2.12
-4.03
-6.25
-8.19
-9.20
-8.81
-6.83
-3.47
0.73
5.03
8.75
11.44
13.04
13.70
13.71
13.27
12.47
11.34
9.91
8.30
6.76
5.53
4.77
4.50
4.55
4.72
4.87
4.99
5.21
5.74
6.68
7.87
8.88
9.05
7.77
4.64
-0.27
-6.51
-13.29
-19.72
-25.02
-28.53
-29.89
-28.96
-25.88
-21.05
-15.15
-8.97
-3.29
1.28
4.45
6.23
6.87
6.75
6.18
5.36
4.33
3.12
1.81
0.57
-0.30
-0.59
-0.27
0.47
1.24
1.69
1.67
1.27
0.76
0.43
0.38
0.48
0.42
-0.07
-1.17
-2.83
-4.92
-7.23
-9.49
-11.37
-12.48
-12.38
-10.77
-7.69
-3.53
0.94
4.94
7.86
9.51
10.04
9.82
9.20
8.33
7.29
6.04
4.72
3.55
2.78
2.58
2.93
3.56
4.10
4.24
3.85
3.05
2.09
1.24
0.70
0.48
0.46
0.45
0.20
-0.52
-1.87
-3.84
-6.18
-8.35
-9.68
-9.56
-7.73
-4.44
-0.35
3.62
6.77
8.76
9.66
9.78
9.44
8.75
7.66
6.11
4.16
2.06
0.20
-1.08
-1.66
-1.66
-1.37
-1.12
-1.12
-1.41
-1.80
-2.10
-2.12
-1.89
-1.63
-1.59
-2.04
-3.04
-4.53
-6.35
-8.32
-10.26
-11.89
-12.82
-12.57
-10.84
-7.63
-3.43
0.99
4.81
7.51
8.97
9.39
9.17
8.58
7.79
6.82
5.68
4.44
3.24
2.27
1.68
1.53
1.72
2.12
2.53
2.82
2.92
2.84
2.63
2.34
1.97
1.55
1.09
0.60
0.05
-0.66
-1.72
-3.30
-5.38
-7.70
-9.70
-10.68
-10.03
-7.46
-3.20
2.07
7.42
11.96
15.20
17.05
17.78
17.79
17.41
16.82
16.03
14.99
13.57
11.65
9.05
5.73
1.83
-2.22
-5.77
-8.16
-8.95
-8.02
-5.60
-2.25
1.27
4.08
5.27
4.22
0.74
-4.59
-10.66
-16.17
-20.19
-22.52
-23.63
-24.23
-24.78
-25.13
-24.63
-22.66
-18.98
-14.02
-8.65
-3.76
0.12
2.92
4.93
6.47
7.65
8.33
8.31
7.43
5.80
3.73
1.63
-0.07
-1.11
-1.38
-1.02
-0.27
0.51
0.97
0.87
0.23
-0.66
-1.41
-1.72
-1.53
-1.12
-0.94
-1.44
-2.75
-4.69
-6.77
-8.38
-8.96
-8.17
-5.98
-2.65
1.31
5.30
8.77
11.36
12.89
13.45
13.23
12.45
11.34
10.05
8.74
7.49
6.38
5.42
4.64
4.09
3.80
3.77
3.90
3.98
3.77
3.10
1.91
0.34
-1.42
-3.14
-4.66
-5.90
-6.87
-7.66
-8.43
-9.38
-10.69
-12.41
-14.32
-15.92
-16.57
-15.67
-12.94
-8.53
-3.05
2.65
7.68
11.38
13.48
14.09
13.58
12.40
10.90
9.28
7.58
5.85
4.16
2.71
1.67
1.12
1.03
1.24
1.54
1.81
1.97
2.00
1.87
1.54
1.00
0.35
-0.28
-0.80
-1.20
-1.60
-2.26
-3.40
-5.11
-7.29
-9.59
-11.43
-12.20
-11.36
-8.71
-4.47
0.75
6.09
10.74
14.16
16.21
17.00
16.84
16.07
15.01
13.89
12.89
12.05
11.38
10.85
10.53
10.55
11.00
11.86
12.80
13.35
13.12
12.01
10.37
8.74
7.65
7.28
7.51
8.03
8.62
9.31
10.28
11.68
13.39
15.08
16.44
17.42
18.41
20.12
23.31
28.37
35.18
43.15
51.50
59.50
66.39
71.14
72.33
68.04
56.50
36.84
9.81
-21.98
-54.67
-84.16
-107.14
-121.69
-127.21
-123.99
-112.89
-95.00
-71.83
-45.37
-18.20
6.91
27.32
41.01
46.78
44.47
34.83
19.36
0.10
-20.63
-40.51
-57.57
-70.33
-78.07
-80.84
-79.42
-75.03
-68.95
-62.06
-54.59
-46.22
-36.43
-24.96
-12.14
1.07
13.38
23.58
30.88
35.07
36.40
35.45
32.94
29.48
25.54
21.40
17.15
12.90
8.81
5.22
2.55
1.08
0.83
1.41
2.22
2.67
2.41
1.41
-0.02
-1.40
-2.17
-1.83
-0.12
2.94
6.95
11.21
14.96
17.68
19.22
19.80
19.73
19.19
18.11
16.28
13.62
10.39
7.11
4.37
2.46
1.27
0.32
-0.95
-2.85
-5.31
-7.92
-10.15
-11.64
-12.36
-12.58
-12.69
-13.08
-13.89
-15.09
-16.48
-17.77
-18.59
-18.56
-17.31
-14.64
-10.64
-5.75
-0.69
3.78
7.12
9.18
10.18
10.49
10.40
9.89
8.81
7.05
4.78
2.53
0.93
0.48
1.23
2.77
4.41
5.54
5.91
5.69
5.32
5.15
5.29
5.51
5.47
4.85
3.48
1.36
-1.45
-4.79
-8.44
-11.95
-14.72
-16.13
-15.72
-13.40
-9.50
-4.70
0.30
4.90
8.69
11.50
13.24
13.89
13.43
11.89
9.46
6.52
3.63
1.41
0.30
0.41
1.39
2.61
3.41
3.37
2.46
1.00
-0.49
-1.63
-2.28
-2.57
-2.81
-3.34
-4.39
-6.05
-8.24
-10.60
-12.62
-13.66
-13.15
-10.74
-6.52
-1.01
4.95
10.46
14.85
17.75
19.20
19.47
18.87
17.67
16.02
13.99
11.65
9.18
6.84
4.95
3.73
3.19
3.10
3.01
2.55
1.59
0.27
-1.02
-1.89
-2.22
-2.23
-2.37
-3.12
-4.79
-7.39
-10.61
-13.90
-16.53
-17.77
-17.10
-14.35
-9.90
-4.49
0.93
5.57
8.97
11.06
11.99
12.02
11.42
10.33
8.93
7.36
5.80
4.48
3.54
3.08
3.04
3.23
3.31
3.00
2.14
0.83
-0.63
-1.88
-2.70
-3.08
-3.21
-3.42
-3.97
-5.14
-7.10
-9.83
-13.08
-16.19
-18.28
-18.43
-16.05
-11.11
-4.31
3.20
10.22
15.78
19.49
21.42
21.90
21.35
20.06
18.21
15.91
13.30
10.60
8.07
5.95
4.42
3.53
3.24
3.42
3.85
4.31
4.59
4.54
4.12
3.42
2.64
1.92
1.42
1.19
1.25
1.48
1.68
1.50
0.60
-1.13
-3.36
-5.29
-5.83
-4.06
0.40
7.14
15.06
22.91
29.66
34.89
38.74
41.59
43.79
45.42
46.47
46.95
47.06
47.17
47.63
48.70
50.57
53.49
57.65
62.97
68.61
72.83
73.29
67.80
55.09
35.23
9.46
-20.32
-51.96
-83.19
-111.42
-133.80
-147.57
-151.02
-144.25
-129.37
-109.92
-89.66
-71.47
-56.74
-45.52
-37.09
-30.50
-25.10
-20.54
-16.75
-13.79
-11.67
-10.28
-9.36
-8.60
-7.75
-6.74
-5.68
-4.77
-4.07
-3.46
-2.71
-1.56
0.01
1.83
3.54
4.86
5.66
6.03
6.16
6.22
6.29
6.34
6.33
6.16
5.78
5.18
4.29
3.04
1.34
-0.89
-3.59
-6.53
-9.22
-11.01
-11.21
-9.33
-5.34
0.31
6.71
12.81
17.68
20.75
21.93
21.54
20.14
18.31
16.49
14.86
13.37
11.97
10.56
9.25
8.21
7.54
7.24
7.07
6.70
5.86
4.47
2.70
0.87
-0.70
-1.79
-2.40
-2.76
-3.14
-3.84
-5.00
-6.69
-8.79
-11.09
-13.25
-14.77
-15.09
-13.69
-10.37
-5.37
0.55
6.37
11.19
14.49
16.30
16.99
16.97
16.43
15.32
13.49
10.95
7.97
5.07
2.78
1.46
1.16
1.61
2.35
2.98
3.17
2.83
2.02
0.98
-0.07
-1.00
-1.79
-2.58
-3.50
-4.60
-5.91
-7.41
-9.14
-11.19
-13.47
-15.62
-16.90
-16.47
-13.73
-8.74
-2.28
4.39
10.01
13.78
15.58
15.77
14.86
13.24
11.05
8.38
5.43
2.60
0.49
-0.49
-0.17
1.19
3.03
4.63
5.44
5.19
4.00
2.26
0.49
-0.87
-1.62
-1.80
-1.63
-1.50
-1.76
-2.77
-4.67
-7.36
-10.37
-12.92
-14.10
-13.22
-10.06
-5.04
0.93
6.72
11.38
14.36
15.53
15.08
13.35
10.71
7.62
4.49
1.80
-0.18
-1.30
-1.71
-1.67
-1.54
-1.62
-2.04
-2.85
-3.90
-4.98
-5.85
-6.31
-6.29
-5.82
-5.14
-4.62
-4.66
-5.54
-7.31
-9.68
-11.97
-13.37
-13.14
-10.92
-6.83
-1.53
4.12
9.27
13.33
16.13
17.71
18.20
17.64
16.02
13.35
9.82
5.94
2.33
-0.35
-1.83
-2.25
-2.10
-1.97
-2.27
-3.02
-3.95
-4.63
-4.73
-4.22
-3.32
-2.48
-2.10
-2.51
-3.79
-5.84
-8.38
-11.00
-13.19
-14.41
-14.17
-12.13
-8.28
-2.98
3.04
8.84
13.57
16.67
18.08
18.09
17.15
15.57
13.44
10.75
7.56
4.19
1.20
-0.82
-1.65
-1.51
-1.03
-0.93
-1.56
-2.84
-4.21
-5.12
-5.21
-4.57
-3.66
-3.09
-3.34
-4.62
-6.81
-9.50
-12.06
-13.77
-13.94
-12.14
-8.35
-3.08
2.79
8.27
12.56
15.28
16.43
16.33
15.31
13.57
11.23
8.39
5.31
2.37
0.00
-1.55
-2.35
-2.69
-3.05
-3.74
-4.82
-6.06
-7.07
-7.54
-7.37
-6.72
-5.92
-5.36
-5.41
-6.25
-7.90
-10.07
-12.13
-13.29
-12.77
-10.11
-5.40
0.73
7.24
13.06
17.36
19.71
20.09
18.78
16.20
12.81
9.08
5.43
2.18
-0.42
-2.24
-3.28
-3.63
-3.53
-3.28
-3.18
-3.40
-3.90
-4.46
-4.80
-4.80
-4.61
-4.63
-5.34
-7.07
-9.82
-13.13
-16.13
-17.80
-17.31
-14.28
-9.04
-2.48
4.23
10.01
14.20
16.70
17.82
17.95
17.34
15.98
13.85
10.99
7.75
4.74
2.46
1.22
0.85
0.84
0.53
-0.46
-2.14
-4.10
-5.73
-6.58
-6.54
-5.95
-5.43
-5.63
-6.94
-9.37
-12.50
-15.53
-17.56
-17.78
-15.72
-11.44
-5.52
1.01
7.05
11.75
14.78
16.27
16.67
16.42
15.73
14.60
12.94
10.81
8.46
6.33
4.80
3.99
3.73
3.65
3.37
2.66
1.55
0.26
-0.94
-1.90
-2.60
-3.16
-3.85
-4.93
-6.59
-8.94
-11.93
-15.27
-18.41
-20.57
-20.92
-18.81
-14.07
-7.21
0.68
8.28
14.45
18.56
20.57
20.84
19.86
18.05
15.67
13.02
10.40
8.21
6.66
5.74
5.21
4.78
4.26
3.68
3.23
2.98
2.85
2.52
1.70
0.28
-1.62
-3.66
-5.56
-7.14
-8.47
-9.72
-11.11
-12.82
-14.93
-17.47
-20.33
-23.23
-25.59
-26.63
-25.51
-21.71
-15.33
-7.14
1.57
9.46
15.53
19.39
21.28
21.73
21.26
20.13
18.37
15.91
12.86
9.55
6.47
4.08
2.64
2.12
2.28
2.75
3.21
3.47
3.48
3.26
2.93
2.57
2.20
1.74
1.04
-0.04
-1.51
-3.17
-4.63
-5.42
-5.25
-4.12
-2.33
-0.46
0.93
1.39
0.72
-0.97
-3.24
-5.29
-6.11
-4.65
-0.31
6.88
16.08
25.90
34.85
41.84
46.48
49.05
50.19
50.58
50.68
50.61
50.32
49.75
48.95
48.27
48.26
49.52
52.36
56.41
60.35
62.08
59.34
50.56
35.63
16.18
-4.85
-23.96
-38.00
-44.81
-43.51
-34.63
-20.10
-3.22
11.80
20.58
19.81
8.26
-12.67
-39.41
-67.31
-91.93
-110.04
-119.82
-120.76
-113.27
-98.45
-78.14
-54.79
-31.32
-10.55
5.36
15.35
19.42
18.44
13.73
6.61
-1.72
-10.27
-18.24
-24.97
-30.06
-33.31
-34.78
-34.71
-33.47
-31.47
-29.05
-26.45
-23.74
-20.83
-17.58
-13.86
-9.70
-5.32
-1.07
2.66
5.50
7.36
8.33
8.68
8.68
8.47
8.03
7.21
5.82
3.79
1.15
-1.98
-5.40
-8.88
-12.12
-14.72
-16.31
-16.68
-15.97
-14.61
-13.25
-12.46
-12.58
-13.52
-14.86
-15.94
-16.03
-14.56
-11.23
-6.15
0.22
7.09
13.64
19.16
23.21
25.65
26.57
26.16
24.68
22.44
19.76
16.97
14.36
12.10
10.19
8.58
7.16
5.83
4.58
3.39
2.29
1.25
0.31
-0.45
-0.90
-0.98
-0.69
-0.23
0.06
-0.12
-0.88
-2.08
-3.41
-4.53
-5.26
-5.64
-5.88
-6.24
-6.84
-7.69
-8.71
-9.86
-11.14
-12.45
-13.52
-13.81
-12.68
-9.72
-5.00
0.86
6.78
11.67
14.79
16.01
15.74
14.70
13.56
12.72
12.24
11.91
11.55
11.06
10.50
9.99
9.58
9.21
8.72
7.99
7.03
6.07
5.37
5.11
5.26
5.53
5.51
4.82
3.36
1.29
-1.00
-3.01
-4.45
-5.21
-5.49
-5.62
-6.00
-6.90
-8.38
-10.25
-12.04
-13.11
-12.85
-10.86
-7.15
-2.26
3.00
7.71
11.20
13.19
13.86
13.59
12.81
11.81
10.64
9.25
7.58
5.73
3.94
2.54
1.79
1.77
2.35
3.20
3.94
4.25
4.02
3.34
2.44
1.53
0.76
0.12
-0.50
-1.22
-2.11
-3.19
-4.51
-6.20
-8.42
-11.24
-14.38
-17.14
-18.60
-17.94
-14.82
-9.65
-3.38
2.80
7.87
11.29
12.99
13.30
12.68
11.63
10.52
9.52
8.65
7.74
6.61
5.23
3.74
2.44
1.64
1.39
1.54
1.76
1.84
1.73
1.59
1.58
1.71
1.77
1.48
0.52
-1.17
-3.43
-6.05
-8.80
-11.54
-14.10
-16.17
-17.27
-16.83
-14.50
-10.39
-5.10
0.37
5.09
8.47
10.43
11.29
11.42
11.04
10.11
8.48
6.11
3.23
0.29
-2.25
-4.05
-5.01
-5.21
-4.87
-4.22
-3.48
-2.79
-2.26
-1.89
-1.67
-1.57
-1.60
-1.81
-2.28
-3.08
-4.24
-5.77
-7.59
-9.51
-11.19
-12.12
-11.76
-9.77
-6.15
-1.35
3.92
8.82
12.73
15.29
16.42
16.23
14.91
12.70
9.82
6.57
3.31
0.43
-1.72
-2.92
-3.18
-2.70
-1.91
-1.26
-1.11
-1.52
-2.33
-3.13
-3.57
-3.50
-3.06
-2.63
-2.69
-3.57
-5.38
-7.85
-10.47
-12.51
-13.23
-12.10
-8.94
-4.09
1.71
7.50
12.38
15.85
17.81
18.51
18.31
17.43
15.88
13.59
10.51
6.89
3.32
0.50
-0.95
-0.82
0.53
2.32
3.71
4.10
3.39
1.92
0.18
-1.49
-3.03
-4.66
-6.65
-9.10
-11.94
-14.85
-17.42
-19.14
-19.55
-18.24
-15.09
-10.29
-4.43
1.65
7.15
11.50
14.50
16.23
16.84
16.43
15.11
13.02
10.43
7.72
5.28
3.37
2.03
1.15
0.53
0.02
-0.48
-1.01
-1.54
-2.04
-2.43
-2.66
-2.73
-2.80
-3.11
-3.95
-5.46
-7.63
-10.28
-13.16
-15.97
-18.33
-19.75
-19.62
-17.47
-13.17
-7.13
-0.33
6.05
11.01
14.07
15.33
15.26
14.41
13.13
11.54
9.66
7.58
5.51
3.72
2.39
1.54
1.02
0.66
0.31
-0.02
-0.33
-0.62
-0.94
-1.39
-2.07
-3.00
-4.07
-5.13
-6.07
-6.84
-7.46
-7.98
-8.47
-9.06
-9.94
-11.17
-12.63
-13.84
-14.05
-12.47
-8.62
-2.68
4.56
11.80
17.79
21.62
23.02
22.30
20.16
17.40
14.65
12.34
10.63
9.54
8.94
8.65
8.52
8.36
8.07
7.56
6.80
5.78
4.53
3.12
1.64
0.21
-1.15
-2.41
-3.67
-4.97
-6.35
-7.66
-8.67
-9.14
-8.98
-8.41
-7.84
-7.83
-8.70
-10.32
-12.01
-12.65
-11.11
-6.75
0.17
8.51
16.66
23.09
26.94
28.24
27.78
26.70
25.90
25.73
25.94
26.05
25.71
25.08
24.82
25.79
28.64
33.46
39.79
47.01
54.74
63.04
72.05
81.36
89.58
94.39
93.38
85.12
69.70
48.59
23.67
-3.61
-32.43
-61.87
-89.99
-113.42
-128.19
-131.35
-122.53
-104.46
-81.96
-60.13
-42.50
-30.35
-23.08
-19.37
-18.22
-19.35
-22.81
-28.45
-35.47
-42.51
-48.04
-50.95
-50.85
-48.17
-43.72
-38.35
-32.47
-26.01
-18.64
-10.24
-1.17
7.65
15.14
20.39
23.11
23.55
22.31
20.00
17.01
13.40
9.10
4.05
-1.60
-7.41
-12.68
-16.59
-18.38
-17.64
-14.49
-9.67
-4.22
0.80
4.77
7.61
9.64
11.26
12.64
13.65
13.93
13.15
11.19
8.26
4.79
1.31
-1.66
-3.75
-4.73
-4.55
-3.30
-1.25
1.26
3.78
5.90
7.26
7.69
7.17
5.93
4.36
2.85
1.75
1.13
0.81
0.41
-0.48
-2.04
-4.13
-6.23
-7.64
-7.68
-6.00
-2.73
1.57
6.09
10.06
12.96
14.57
14.97
14.39
13.09
11.33
9.34
7.35
5.58
4.22
3.29
2.72
2.35
2.02
1.67
1.31
0.94
0.56
0.07
-0.64
-1.66
-2.94
-4.40
-5.87
-7.24
-8.48
-9.64
-10.82
-12.15
-13.73
-15.63
-17.71
-19.61
-20.75
-20.49
-18.39
-14.42
-9.03
-3.08
2.45
6.78
9.52
10.74
10.78
10.16
9.28
8.37
7.48
6.50
5.37
4.15
3.05
2.39
2.40
3.10
4.27
5.55
6.57
7.13
7.18
6.80
6.15
5.26
4.13
2.74
1.13
-0.59
-2.27
-3.84
-5.28
-6.62
-7.76
-8.50
-8.52
-7.59
-5.65
-2.98
-0.02
2.80
5.17
6.98
8.28
9.12
9.58
9.73
9.67
9.49
9.25
8.82
8.05
6.86
5.37
3.91
2.87
2.50
2.72
3.25
3.68
3.75
3.37
2.67
1.79
0.81
-0.32
-1.69
-3.34
-5.27
-7.39
-9.70
-12.18
-14.76
-17.13
-18.74
-18.86
-16.95
-12.89
-7.14
-0.64
5.53
10.49
13.78
15.34
15.44
14.41
12.62
10.43
8.20
6.27
4.82
3.91
3.42
3.18
3.04
2.99
3.11
3.47
4.11
4.87
5.50
5.64
5.07
3.66
1.55
-0.89
-3.25
-5.11
-6.30
-6.92
-7.33
-7.99
-9.31
-11.43
-14.10
-16.75
-18.50
-18.58
-16.52
-12.42
-6.88
-0.90
4.49
8.60
11.15
12.33
12.55
12.21
11.52
10.56
9.31
7.85
6.39
5.14
4.25
3.71
3.40
3.21
3.08
3.09
3.29
3.60
3.81
3.57
2.65
1.01
-1.09
-3.25
-5.03
-6.15
-6.60
-6.56
-6.41
-6.58
-7.44
-9.14
-11.49
-13.96
-15.73
-15.94
-14.04
-10.00
-4.42
1.67
7.13
11.08
13.12
13.48
12.73
11.56
10.47
9.64
8.90
8.02
6.86
5.52
4.40
3.91
4.37
5.71
7.59
9.47
10.89
11.60
11.58
11.00
10.02
8.80
7.51
6.37
5.66
5.53
5.82
5.84
4.55
0.96
-5.24
-13.33
-21.60
-27.94
-30.63
-29.12
-24.12
-17.19
-10.04
-3.85
0.98
4.60
7.29
9.12
9.85
9.22
7.24
4.33
1.26
-1.21
-2.61
-2.95
-2.63
-2.25
-2.23
-2.73
-3.57
-4.40
-4.86
-4.77
-4.19
-3.33
-2.52
-2.03
-2.05
-2.66
-3.89
-5.70
-7.96
-10.37
-12.41
-13.40
-12.71
-10.06
-5.67
-0.25
5.22
9.86
13.13
14.90
15.40
14.92
13.65
11.73
9.28
6.58
3.99
1.91
0.58
-0.04
-0.20
-0.25
-0.47
-0.95
-1.54
-2.05
-2.34
-2.41
-2.39
-2.50
-2.91
-3.66
-4.74
-6.05
-7.62
-9.53
-11.81
-14.36
-16.74
-18.27
-18.21
-16.08
-11.95
-6.38
-0.33
5.26
9.73
12.85
14.68
15.43
15.24
14.23
12.48
10.17
7.61
5.18
3.19
1.87
1.30
1.43
2.06
2.87
3.46
3.43
2.58
0.97
-1.04
-2.95
-4.35
-5.12
-5.36
-5.41
-5.58
-6.14
-7.22
-8.84
-10.80
-12.72
-14.00
-13.98
-12.19
-8.60
-3.71
1.61
6.53
10.47
13.24
14.91
15.61
15.38
14.22
12.22
9.65
6.99
4.68
3.09
2.27
2.07
2.23
2.45
2.55
2.46
2.18
1.78
1.26
0.63
-0.16
-1.10
-2.13
-3.11
-4.00
-4.90
-6.11
-7.93
-10.42
-13.22
-15.48
-16.20
-14.68
-10.89
-5.50
0.36
5.59
9.49
11.86
12.89
12.84
11.92
10.25
8.06
5.73
3.82
2.85
3.14
4.56
6.62
8.54
9.58
9.30
7.70
5.22
2.51
0.10
-1.80
-3.40
-5.15
-7.52
-10.69
-14.53
-18.61
-22.30
-24.96
-25.96
-24.85
-21.42
-15.85
-8.76
-1.09
6.06
11.84
15.81
18.04
18.96
19.07
18.74
18.10
17.13
15.76
14.07
12.28
10.74
9.80
9.58
10.04
10.99
12.21
13.53
14.89
16.20
17.31
17.93
17.73
16.48
14.13
10.88
7.04
2.90
-1.31
-5.49
-9.48
-12.98
-15.54
-16.78
-16.44
-14.67
-11.88
-8.66
-5.52
-2.70
-0.20
2.14
4.43
6.59
8.45
9.76
10.42
10.49
10.29
10.12
10.19
10.40
10.29
9.22
6.65
2.44
-3.03
-8.88
-14.11
-17.93
-20.11
-21.02
-21.43
-22.14
-23.68
-26.05
-28.72
-30.82
-31.35
-29.57
-25.20
-18.51
-10.30
-1.57
6.68
13.69
19.02
22.50
24.11
23.92
22.12
19.05
15.20
11.19
7.62
4.88
3.13
2.21
1.79
1.43
0.77
-0.35
-1.85
-3.50
-5.01
-6.16
-7.00
-7.68
-8.49
-9.70
-11.47
-13.86
-16.75
-19.80
-22.40
-23.83
-23.28
-20.28
-14.80
-7.46
0.70
8.45
14.74
18.98
21.07
21.33
20.20
18.06
15.21
11.84
8.20
4.65
1.64
-0.48
-1.60
-1.95
-1.99
-2.15
-2.60
-3.21
-3.64
-3.59
-3.03
-2.22
-1.56
-1.42
-2.01
-3.42
-5.61
-8.44
-11.56
-14.41
-16.19
-16.05
-13.45
-8.42
-1.66
5.67
12.34
17.38
20.37
21.35
20.68
18.77
15.92
12.38
8.42
4.43
0.89
-1.81
-3.48
-4.19
-4.22
-3.93
-3.62
-3.47
-3.56
-3.94
-4.70
-5.92
-7.71
-10.10
-13.02
-16.36
-19.90
-23.30
-26.09
-27.62
-27.19
-24.26
-18.67
-10.83
-1.76
7.21
14.74
19.81
22.02
21.43
18.50
13.85
8.24
2.44
-2.73
-6.58
-8.75
-9.30
-8.78
-7.97
-7.61
-8.11
-9.45
-11.27
-13.01
-14.27
-14.93
-15.25
-15.81
-17.28
-20.14
-24.41
-29.48
-34.13
-36.79
-36.04
-31.13
-22.25
-10.57
2.17
14.23
24.31
31.79
36.58
38.92
39.01
37.04
33.15
27.77
21.62
15.62
10.57
6.87
4.34
2.37
0.27
-2.33
-5.30
-8.09
-10.06
-10.87
-10.75
-10.40
-10.74
-12.50
-16.01
-21.09
-27.01
-32.66
-36.62
-37.45
-34.08
-26.26
-14.73
-1.16
12.49
24.45
33.78
40.37
44.72
47.45
48.87
48.99
47.57
44.49
39.95
34.45
28.66
23.19
18.41
14.43
11.22
8.71
6.86
5.53
4.45
3.13
0.99
-2.39
-7.04
-12.54
-18.15
-23.05
-26.67
-28.86
-29.97
-30.71
-31.98
-34.47
-38.35
-42.99
-46.89
-48.10
-44.85
-36.26
-22.81
-6.21
11.10
26.76
39.16
47.67
52.57
54.62
54.71
53.56
51.67
49.32
46.68
43.90
41.15
38.59
36.33
34.32
32.37
30.25
27.79
25.06
22.33
19.93
18.04
16.46
14.74
12.32
8.91
4.62
0.03
-4.16
-7.38
-9.51
-10.79
-11.74
-12.84
-14.28
-15.95
-17.49
-18.55
-18.91
-18.65
-18.11
-17.70
-17.83
-18.66
-20.14
-21.93
-23.57
-24.65
-24.95
-24.62
-24.12
-24.16
-25.45
-28.39
-32.74
-37.50
-41.07
-41.67
-37.95
-29.55
-17.32
-3.11
10.89
22.81
31.52
36.77
38.99
38.85
37.07
34.25
30.90
27.46
24.28
21.58
19.46
17.90
16.77
15.94
15.26
14.62
13.96
13.30
12.71
12.24
11.84
11.32
10.41
8.88
6.69
4.03
1.26
-1.18
-3.02
-4.22
-5.04
-5.78
-6.70
-7.82
-8.90
-9.67
-9.96
-9.88
-9.83
-10.29
-11.58
-13.63
-16.08
-18.40
-20.20
-21.37
-22.16
-23.03
-24.43
-26.70
-29.90
-33.69
-37.35
-39.73
-39.59
-35.91
-28.39
-17.62
-5.05
7.47
18.23
26.15
30.96
33.05
33.04
31.54
28.97
25.65
21.93
18.30
15.31
13.31
12.45
12.51
13.13
13.97
14.79
15.51
16.06
16.35
16.26
15.68
14.58
13.09
11.37
9.53
7.63
5.67
3.65
1.60
-0.45
-2.47
-4.47
-6.43
-8.27
-9.84
-11.03
-11.85
-12.47
-13.13
-14.02
-15.18
-16.43
-17.51
-18.22
-18.50
-18.50
-18.61
-19.22
-20.66
-22.90
-25.54
-27.69
-28.26
-26.20
-21.02
-12.99
-3.16
7.02
16.16
23.29
28.07
30.58
31.16
30.13
27.77
24.40
20.45
16.46
12.98
10.36
8.67
7.79
7.46
7.43
7.53
7.66
7.73
7.68
7.49
7.21
6.88
6.53
6.08
5.40
4.33
2.82
0.95
-1.11
-3.14
-4.95
-6.46
-7.60
-8.44
-9.04
-9.55
-10.05
-10.61
-11.16
-11.62
-11.94
-12.14
-12.35
-12.72
-13.40
-14.40
-15.77
-17.59
-19.87
-22.41
-24.64
-25.62
-24.31
-20.06
-12.95
-3.92
5.51
13.80
19.89
23.43
24.67
24.19
22.58
20.27
17.52
14.54
11.57
8.89
6.77
5.39
4.77
4.77
5.14
5.60
6.02
6.36
6.68
7.04
7.38
7.59
7.51
7.05
6.14
4.84
3.29
1.63
0.04
-1.39
-2.62
-3.78
-5.07
-6.68
-8.64
-10.74
-12.64
-13.94
-14.40
-13.99
-12.99
-11.72
-10.59
-9.96
-10.09
-11.06
-12.74
-14.70
-16.22
-16.52
-15.01
-11.51
-6.40
-0.50
5.15
9.71
12.69
14.09
14.26
13.70
12.81
11.76
10.55
9.11
7.46
5.76
4.27
3.16
2.51
2.20
2.01
1.75
1.31
0.80
0.35
0.08
-0.04
-0.15
-0.51
-1.32
-2.62
-4.28
-5.93
-7.24
-7.94
-7.94
-7.37
-6.56
-5.88
-5.73
-6.46
-8.15
-10.62
-13.29
-15.30
-15.77
-14.15
-10.48
-5.38
0.10
4.95
8.48
10.51
11.26
11.11
10.41
9.32
7.90
6.08
3.92
1.47
-1.04
-3.29
-5.04
-6.06
-6.31
-5.94
-5.23
-4.51
-4.04
-3.92
-4.04
-4.24
-4.34
-4.22
-3.95
-3.67
-3.63
-4.12
-5.34
-7.34
-9.93
-12.68
-14.92
-15.90
-15.00
-11.93
-6.90
-0.54
6.19
12.21
16.66
19.08
19.49
18.25
15.87
12.85
9.53
6.11
2.77
-0.28
-2.78
-4.50
-5.36
-5.42
-4.95
-4.35
-4.00
-4.15
-4.87
-5.96
-7.13
-8.09
-8.72
-9.19
-9.89
-11.26
-13.57
-16.64
-19.82
-22.04
-22.17
-19.39
-13.52
-5.16
4.48
13.93
21.89
27.55
30.71
31.58
30.54
27.92
23.96
18.91
13.24
7.63
2.91
-0.22
-1.58
-1.49
-0.76
-0.26
-0.57
-1.70
-3.20
-4.43
-4.97
-4.83
-4.42
-4.39
-5.29
-7.42
-10.80
-15.19
-20.00
-24.34
-27.07
-27.07
-23.60
-16.61
-6.94
3.94
14.32
22.83
28.76
32.13
33.37
33.03
31.44
28.69
24.81
20.00
14.71
9.66
5.54
2.73
1.21
0.62
0.35
-0.01
-0.68
-1.57
-2.48
-3.21
-3.72
-4.11
-4.60
-5.45
-6.87
-9.04
-12.11
-16.01
-20.44
-24.68
-27.62
-28.03
-24.98
-18.18
-8.27
3.36
14.94
24.86
32.01
35.97
36.89
35.22
31.57
26.55
20.81
15.02
9.80
5.64
2.75
1.05
0.24
-0.08
-0.24
-0.43
-0.68
-0.97
-1.35
-1.90
-2.80
-4.15
-5.91
-7.90
-9.87
-11.60
-12.97
-14.02
-14.89
-15.83
-17.16
-19.08
-21.56
-24.11
-25.83
-25.58
-22.46
-16.13
-7.12
3.28
13.42
21.85
27.65
30.60
31.01
29.40
26.29
22.11
17.27
12.25
7.63
4.01
1.83
1.19
1.76
2.93
3.98
4.39
4.02
3.05
1.91
0.93
0.21
-0.45
-1.41
-2.96
-5.13
-7.62
-9.95
-11.61
-12.36
-12.31
-11.88
-11.71
-12.38
-14.22
-17.13
-20.56
-23.51
-24.84
-23.52
-19.07
-11.74
-2.59
6.93
15.29
21.45
25.02
26.25
25.73
24.06
21.59
18.45
14.72
10.61
6.59
3.29
1.20
0.51
0.94
1.88
2.65
2.77
2.19
1.20
0.25
-0.30
-0.35
-0.13
-0.06
-0.50
-1.67
-3.54
-5.82
-8.14
-10.20
-11.78
-12.82
-13.48
-14.04
-14.89
-16.45
-18.98
-22.44
-26.40
-29.92
-31.83
-31.07
-27.04
-19.94
-10.73
-0.89
8.05
14.92
19.18
20.96
20.88
19.79
18.43
17.36
16.81
16.75
17.03
17.42
17.76
17.95
17.97
17.85
17.59
17.17
16.53
15.63
14.40
12.82
10.88
8.62
6.06
3.29
0.42
-2.37
-4.83
-6.72
-7.89
-8.36
-8.33
-8.18
-8.31
-9.02
-10.36
-12.13
-13.94
-15.39
-16.16
-16.25
-15.85
-15.40
-15.37
-16.20
-18.08
-20.88
-24.04
-26.63
-27.48
-25.53
-20.22
-11.78
-1.30
9.60
19.25
26.47
30.84
32.73
32.80
31.73
29.89
27.38
24.19
20.51
16.77
13.49
11.09
9.67
9.00
8.66
8.31
7.75
7.04
6.30
5.64
5.12
4.67
4.19
3.57
2.73
1.70
0.56
-0.50
-1.36
-1.97
-2.46
-3.04
-3.89
-5.06
-6.37
-7.52
-8.27
-8.60
-8.69
-8.88
-9.44
-10.41
-11.61
-12.70
-13.39
-13.55
-13.28
-12.90
-12.84
-13.55
-15.29
-18.00
-21.13
-23.79
-24.88
-23.56
-19.47
-12.96
-5.03
3.04
10.02
15.09
17.98
18.90
18.25
16.54
14.18
11.49
8.77
6.32
4.46
3.43
3.33
4.00
5.07
6.08
6.65
6.58
5.96
5.05
4.19
3.55
3.15
2.79
2.23
1.34
0.16
-1.11
-2.25
-3.08
-3.55
-3.71
-3.66
-3.47
-3.20
-2.94
-2.79
-2.91
-3.41
-4.34
-5.53
-6.72
-7.55
-7.87
-7.75
-7.58
-7.88
-9.12
-11.48
-14.67
-18.01
-20.50
-21.11
-19.10
-14.24
-7.00
1.62
10.28
17.72
23.05
25.94
26.56
25.43
23.12
20.11
16.82
13.54
10.60
8.32
6.88
6.32
6.50
7.12
7.85
8.42
8.66
8.62
8.41
8.16
7.94
7.64
7.05
5.91
4.14
1.82
-0.70
-2.99
-4.70
-5.67
-6.00
-5.97
-5.94
-6.18
-6.81
-7.80
-8.95
-10.02
-10.79
-11.18
-11.25
-11.23
-11.39
-11.97
-13.13
-14.90
-17.26
-20.01
-22.74
-24.79
-25.30
-23.51
-19.09
-12.31
-4.09
4.26
11.51
16.76
19.68
20.47
19.61
17.70
15.31
12.89
10.78
9.18
8.14
7.66
7.61
7.87
8.24
8.55
8.62
8.40
7.94
7.38
6.89
6.55
6.32
6.05
5.58
4.81
3.76
2.54
1.25
0.01
-1.13
-2.17
-3.07
-3.82
-4.42
-4.94
-5.47
-6.12
-6.98
-8.06
-9.28
-10.52
-11.60
-12.39
-12.87
-13.14
-13.48
-14.25
-15.70
-17.80
-20.03
-21.54
-21.35
-18.79
-13.84
-7.13
0.17
6.88
12.13
15.55
17.24
17.51
16.72
15.13
12.98
10.53
8.16
6.20
4.92
4.36
4.40
4.74
5.12
5.35
5.41
5.39
5.44
5.65
5.96
6.20
6.11
5.50
4.41
2.99
1.52
0.24
-0.72
-1.37
-1.75
-1.94
-2.01
-2.04
-2.24
-2.79
-3.78
-5.13
-6.56
-7.74
-8.43
-8.61
-8.44
-8.26
-8.45
-9.33
-11.06
-13.57
-16.36
-18.65
-19.50
-18.13
-14.30
-8.41
-1.43
5.43
11.17
15.21
17.37
17.82
16.94
15.12
12.88
10.65
8.82
7.49
6.55
5.74
4.80
3.71
2.68
2.02
1.94
2.37
3.00
3.46
3.52
3.19
2.70
2.29
2.08
1.96
1.69
1.08
0.12
-1.03
-2.14
-3.08
-3.90
-4.78
-5.85
-7.06
-8.14
-8.74
-8.67
-8.16
-7.74
-8.08
-9.56
-12.04
-14.77
-16.73
-16.99
-15.10
-11.23
-6.03
-0.44
4.79
9.09
12.24
14.21
15.09
14.99
14.00
12.28
10.07
7.70
5.54
3.93
2.99
2.66
2.71
2.84
2.83
2.56
2.12
1.65
1.35
1.23
1.21
1.05
0.51
-0.56
-2.18
-4.18
-6.31
-8.25
-9.75
-10.75
-11.32
-11.68
-12.17
-13.09
-14.64
-16.75
-19.04
-20.85
-21.42
-20.16
-16.86
-11.80
-5.67
0.64
6.31
10.76
13.73
15.28
15.61
14.99
13.65
11.81
9.73
7.69
5.99
4.85
4.37
4.49
5.02
5.70
6.31
6.72
6.87
6.76
6.39
5.75
4.84
3.76
2.63
1.64
0.92
0.52
0.34
0.13
-0.49
-1.95
-4.53
-8.16
-12.33
-16.09
-18.32
-18.11
-15.04
-9.45
-2.31
5.04
11.37
15.86
18.28
18.93
18.41
17.32
16.06
14.75
13.31
11.60
9.55
7.25
4.87
2.64
0.73
-0.74
-1.77
-2.37
-2.66
-2.85
-3.20
-3.94
-5.18
-6.79
-8.49
-9.91
-10.78
-11.10
-11.03
-10.93
-11.13
-11.85
-13.17
-15.02
-17.09
-18.83
-19.44
-18.10
-14.30
-8.15
-0.60
6.92
12.92
16.51
17.67
17.14
15.94
14.90
14.27
13.81
13.12
12.03
10.67
9.43
8.64
8.39
8.45
8.49
8.24
7.69
7.07
6.69
6.67
6.78
6.56
5.44
3.11
-0.28
-4.18
-7.80
-10.47
-11.90
-12.26
-12.13
-12.21
-13.06
-14.88
-17.45
-20.16
-22.12
-22.46
-20.63
-16.50
-10.54
-3.63
3.17
8.86
12.78
14.72
14.90
13.84
12.16
10.37
8.82
7.66
6.86
6.37
6.14
6.07
6.07
6.02
5.87
5.67
5.54
5.61
5.91
6.26
6.35
5.91
4.83
3.25
1.48
-0.16
-1.53
-2.66
-3.74
-4.93
-6.22
-7.52
-8.63
-9.43
-9.96
-10.36
-10.87
-11.76
-13.19
-15.21
-17.67
-20.16
-21.93
-22.17
-20.22
-15.88
-9.63
-2.44
4.47
10.10
13.89
15.86
16.34
15.76
14.46
12.65
10.52
8.25
6.14
4.43
3.26
2.66
2.53
2.69
2.97
3.22
3.33
3.30
3.15
2.95
2.71
2.32
1.65
0.62
-0.66
-1.89
-2.64
-2.63
-1.90
-0.88
-0.21
-0.47
-1.83
-4.02
-6.44
-8.42
-9.55
-9.80
-9.45
-9.03
-9.12
-10.15
-12.22
-15.00
-17.70
-19.30
-18.81
-15.63
-9.88
-2.38
5.57
12.69
18.03
21.29
22.72
22.86
22.25
21.25
20.01
18.66
17.31
16.18
15.45
15.16
15.11
14.93
14.27
12.94
11.04
8.90
6.88
5.25
4.07
3.11
2.07
0.63
-1.26
-3.41
-5.46
-7.01
-7.89
-8.20
-8.30
-8.55
-9.18
-10.13
-11.13
-11.94
-12.38
-12.51
-12.48
-12.55
-12.94
-13.88
-15.54
-17.92
-20.68
-23.09
-24.19
-23.11
-19.42
-13.44
-6.11
1.27
7.56
12.06
14.70
15.80
15.84
15.26
14.31
13.13
11.87
10.71
9.82
9.32
9.12
9.04
8.89
8.55
8.14
7.91
8.17
9.01
10.31
11.66
12.53
12.46
11.22
8.94
6.03
3.02
0.37
-1.65
-3.12
-4.34
-5.66
-7.27
-9.11
-10.88
-12.19
-12.84
-12.90
-12.74
-12.84
-13.61
-15.19
-17.41
-19.80
-21.69
-22.33
-21.11
-17.77
-12.46
-5.81
1.25
7.78
13.07
16.79
18.98
19.87
19.74
18.84
17.44
15.78
14.15
12.74
11.55
10.44
9.20
7.77
6.36
5.28
4.86
5.18
5.89
6.45
6.33
5.30
3.56
1.61
-0.03
-1.09
-1.64
-2.05
-2.75
-4.01
-5.79
-7.80
-9.66
-11.05
-11.88
-12.22
-12.26
-12.22
-12.21
-12.37
-12.81
-13.62
-14.79
-16.12
-17.07
-16.97
-15.19
-11.40
-5.86
0.68
7.19
12.70
16.60
18.78
19.51
19.26
18.44
17.29
15.90
14.24
12.34
10.35
8.59
7.38
6.99
7.46
8.53
9.76
10.63
10.75
10.00
8.58
6.91
5.42
4.40
3.84
3.48
2.98
2.06
0.69
-0.93
-2.49
-3.74
-4.63
-5.33
-6.11
-7.20
-8.72
-10.73
-13.19
-16.08
-19.24
-22.26
-24.51
-25.13
-23.44
-19.19
-12.81
-5.30
2.10
8.30
12.74
15.36
16.57
16.80
16.33
15.22
13.39
10.96
8.26
5.85
4.14
3.25
2.84
2.40
1.50
0.11
-1.45
-2.72
-3.47
-3.79
-4.08
-4.76
-5.92
-7.35
-8.59
-9.29
-9.37
-9.03
-8.59
-8.35
-8.50
-9.19
-10.56
-12.64
-15.22
-17.71
-19.19
-18.76
-15.95
-11.02
-4.92
1.10
5.96
9.12
10.62
10.87
10.33
9.34
8.11
6.82
5.64
4.68
3.96
3.40
2.92
2.46
2.11
1.99
2.15
2.48
2.76
2.71
2.15
1.05
-0.46
-2.20
-3.96
-5.59
-6.97
-8.10
-9.14
-10.36
-12.10
-14.51
-17.34
-19.91
-21.29
-20.68
-17.73
-12.66
-6.24
0.54
6.81
11.92
15.53
17.50
17.83
16.59
14.03
10.59
6.81
3.31
0.62
-0.94
-1.32
-0.72
0.45
1.71
2.66
3.09
3.02
2.66
2.27
2.04
1.99
1.97
1.67
0.70
-1.26
-4.33
-8.32
-12.65
-16.48
-18.80
-18.85
-16.24
-11.18
-4.48
2.74
9.30
14.26
17.18
18.04
17.26
15.43
13.08
10.62
8.24
6.00
3.95
2.15
0.73
-0.24
-0.82
-1.26
-1.88
-3.00
-4.65
-6.62
-8.45
-9.75
-10.33
-10.41
-10.43
-10.97
-12.47
-15.19
-19.00
-23.41
-27.54
-30.29
-30.60
-27.80
-21.88
-13.62
-4.33
4.56
11.95
17.34
20.75
22.46
22.81
22.00
20.18
17.52
14.36
11.18
8.48
6.70
6.01
6.23
6.89
7.37
7.12
5.86
3.67
1.01
-1.52
-3.37
-4.32
-4.55
-4.56
-5.00
-6.46
-9.24
-13.22
-17.82
-22.10
-24.92
-25.35
-22.82
-17.46
-10.03
-1.73
6.20
12.77
17.46
20.25
21.38
21.23
20.14
18.41
16.37
14.33
12.57
11.25
10.42
9.94
9.66
9.46
9.29
9.16
9.07
8.89
8.42
7.45
5.83
3.58
0.92
-1.84
-4.32
-6.33
-7.88
-9.20
-10.69
-12.78
-15.77
-19.72
-24.31
-28.83
-32.23
-33.35
-31.30
-25.75
-17.26
-7.08
3.10
11.74
17.89
21.40
22.77
22.78
22.09
21.03
19.69
18.06
16.24
14.50
13.10
12.27
12.03
12.22
12.61
12.96
13.14
13.06
12.70
12.02
10.91
9.30
7.16
4.62
1.98
-0.38
-2.16
-3.28
-3.91
-4.47
-5.42
-7.07
-9.44
-12.30
-15.25
-17.84
-19.82
-21.15
-22.09
-23.14
-24.94
-27.94
-32.14
-36.84
-40.60
-41.74
-38.89
-31.59
-20.54
-7.43
5.71
17.15
25.87
31.69
34.97
36.23
35.98
34.49
32.04
29.01
25.86
23.14
21.23
20.21
19.88
19.82
19.55
18.78
17.46
15.80
14.13
12.72
11.64
10.73
9.67
8.14
6.00
3.38
0.61
-1.86
-3.70
-4.80
-5.31
-5.52
-5.77
-6.27
-7.08
-8.17
-9.43
-10.77
-12.07
-13.23
-14.14
-14.75
-15.15
-15.63
-16.57
-18.28
-20.77
-23.53
-25.52
-25.45
-22.25
-15.54
-5.92
5.16
15.88
24.67
30.69
34.00
35.28
35.37
34.87
33.98
32.60
30.61
28.08
25.30
22.66
20.39
18.51
16.80
15.01
13.00
10.84
8.75
6.96
5.57
4.48
3.43
2.13
0.40
-1.73
-3.98
-5.99
-7.38
-7.99
-7.91
-7.51
-7.23
-7.47
-8.44
-10.11
-12.15
-14.15
-15.70
-16.52
-16.61
-16.25
-15.95
-16.31
-17.75
-20.49
-24.30
-28.46
-31.86
-33.24
-31.53
-26.34
-18.17
-8.28
1.61
10.00
15.96
19.37
20.71
20.74
20.16
19.39
18.59
17.72
16.69
15.47
14.10
12.76
11.68
11.03
10.83
10.97
11.23
11.42
11.46
11.25
10.71
9.73
8.12
5.86
3.08
0.12
-2.50
-4.37
-5.30
-5.45
-5.25
-5.21
-5.64
-6.48
-7.37
-7.88
-7.81
-7.38
-7.24
-8.10
-10.51
-14.52
-19.73
-25.48
-30.98
-35.43
-38.01
-38.01
-34.92
-28.79
-20.27
-10.55
-1.09
6.89
12.66
16.10
17.59
17.70
16.99
15.92
14.86
14.00
13.46
13.18
12.99
12.61
11.85
10.63
9.06
7.38
5.88
4.81
4.30
4.30
4.57
4.77
4.55
3.72
2.31
0.60
-0.96
-1.99
-2.38
-2.30
-2.19
-2.49
-3.47
-5.05
-6.87
-8.45
-9.48
-9.86
-9.75
-9.49
-9.51
-10.24
-11.92
-14.51
-17.55
-20.13
-21.12
-19.63
-15.32
-8.72
-1.00
6.43
12.43
16.42
18.47
18.98
18.49
17.42
16.04
14.51
12.98
11.60
10.48
9.70
9.21
8.93
8.71
8.46
8.13
7.70
7.23
6.71
6.15
5.50
4.74
3.83
2.72
1.37
-0.26
-2.17
-4.28
-6.38
-8.18
-9.43
-9.97
-9.87
-9.34
-8.75
-8.44
-8.70
-9.68
-11.43
-13.89
-16.82
-19.80
-22.18
-23.19
-22.16
-18.80
-13.35
-6.57
0.49
6.86
11.84
15.21
17.07
17.69
17.35
16.26
14.65
12.78
10.96
9.47
8.47
7.93
7.68
7.52
7.26
6.87
6.43
6.11
6.02
6.16
6.31
6.19
5.58
4.45
3.02
1.59
0.46
-0.33
-0.92
-1.58
-2.44
-3.48
-4.63
-5.86
-7.39
-9.51
-12.39
-15.75
-18.76
-20.32
-19.41
-15.58
-9.12
-1.05
7.29
14.56
19.81
22.54
22.72
20.70
17.00
12.31
7.28
2.62
-1.14
-3.65
-4.84
-4.91
-4.22
-3.13
-1.91
-0.69
0.52
1.74
2.90
3.82
4.21
3.85
2.58
0.45
-2.34
-5.48
-8.68
-11.75
-14.69
-17.63
-20.66
-23.72
-26.46
-28.32
-28.70
-27.19
-23.80
-18.93
-13.29
-7.62
-2.50
1.75
5.07
7.48
9.04
9.77
9.65
8.71
7.10
5.06
2.94
1.20
0.26
0.44
1.76
3.94
6.37
8.36
9.30
8.97
7.54
5.58
3.70
2.27
1.33
0.56
-0.49
-2.16
-4.53
-7.47
-10.66
-13.66
-16.00
-17.19
-16.78
-14.52
-10.52
-5.24
0.56
6.04
10.56
13.78
15.71
16.50
16.43
15.68
14.41
12.74
10.83
8.86
7.05
5.60
4.64
4.12
3.84
3.53
3.04
2.32
1.53
0.89
0.50
0.21
-0.30
-1.32
-2.94
-5.00
-7.22
-9.43
-11.70
-14.24
-17.08
-19.83
-21.64
-21.44
-18.44
-12.60
-4.77
3.50
10.63
15.47
17.70
17.74
16.42
14.54
12.58
10.75
9.02
7.39
5.96
4.82
4.04
3.55
3.18
2.70
2.03
1.20
0.38
-0.24
-0.58
-0.63
-0.48
-0.25
-0.10
-0.17
-0.56
-1.30
-2.39
-3.88
-5.88
-8.52
-11.73
-15.13
-17.89
-19.01
-17.66
-13.67
-7.63
-0.75
5.64
10.69
14.15
16.29
17.55
18.12
17.97
16.93
15.02
12.52
9.98
7.94
6.70
6.27
6.43
6.86
7.27
7.47
7.41
7.11
6.63
6.06
5.42
4.65
3.62
2.21
0.45
-1.51
-3.38
-4.89
-5.87
-6.32
-6.41
-6.43
-6.69
-7.51
-9.14
-11.67
-14.87
-18.15
-20.64
-21.39
-19.71
-15.47
-9.22
-2.04
4.82
10.33
13.95
15.62
15.61
14.37
12.24
9.53
6.57
3.74
1.52
0.27
0.11
0.83
1.95
2.91
3.30
3.09
2.49
1.94
1.73
1.92
2.22
2.25
1.64
0.31
-1.52
-3.46
-5.08
-6.13
-6.60
-6.70
-6.75
-7.15
-8.27
-10.27
-13.09
-16.23
-18.86
-19.99
-18.87
-15.31
-9.83
-3.46
2.66
7.68
11.22
13.32
14.26
14.31
13.68
12.47
10.84
9.09
7.56
6.56
6.20
6.36
6.71
6.84
6.49
5.58
4.30
2.93
1.73
0.76
-0.14
-1.24
-2.75
-4.62
-6.63
-8.38
-9.56
-10.05
-10.00
-9.77
-9.92
-10.94
-13.13
-16.34
-19.90
-22.70
-23.54
-21.54
-16.62
-9.57
-1.80
5.16
10.24
13.15
14.32
14.50
14.40
14.31
14.17
13.76
12.93
11.75
10.51
9.51
8.94
8.78
8.84
8.86
8.64
8.13
7.40
6.60
5.79
4.94
3.92
2.58
0.90
-0.99
-2.76
-3.97
-4.32
-3.79
-2.70
-1.68
-1.50
-2.61
-5.03
-8.16
-10.91
-12.06
-10.68
-6.43
0.30
8.52
17.02
24.67
30.73
34.97
37.57
38.97
39.75
40.41
41.27
42.44
43.80
45.12
46.22
47.08
47.84
48.77
50.16
52.16
54.84
58.16
62.13
66.78
72.03
77.37
81.77
83.69
81.47
74.01
61.09
43.36
21.93
-2.27
-28.61
-56.38
-84.11
-109.10
-127.82
-137.01
-135.06
-122.83
-103.46
-81.19
-59.96
-42.40
-29.71
-22.06
-19.24
-20.84
-26.32
-34.70
-44.52
-54.06
-61.74
-66.43
-67.63
-65.50
-60.64
-53.93
-46.33
-38.83
-32.16
-26.79
-22.82
-19.99
-17.82
-15.79
-13.48
-10.74
-7.63
-4.43
-1.49
0.94
2.79
4.16
5.29
6.35
7.28
7.78
7.36
5.60
2.45
-1.59
-5.51
-8.17
-8.68
-6.78
-2.93
1.93
6.72
10.65
13.36
14.84
15.25
14.70
13.24
10.94
8.07
5.12
2.65
1.11
0.59
0.88
1.57
2.26
2.73
2.92
2.92
2.85
2.74
2.53
2.11
1.40
0.45
-0.65
-1.74
-2.71
-3.56
-4.45
-5.65
-7.39
-9.72
-12.37
-14.74
-15.94
-15.23
-12.20
-7.08
-0.69
5.77
11.21
14.94
16.89
17.52
17.37
16.89
16.15
15.06
13.49
11.50
9.40
7.55
6.25
5.56
5.33
5.36
5.46
5.48
5.33
4.94
4.22
3.14
1.78
0.31
-1.05
-2.18
-3.05
-3.78
-4.60
-5.78
-7.54
-10.04
-13.09
-16.14
-18.28
-18.50
-16.16
-11.28
-4.73
2.11
7.81
11.45
12.88
12.64
11.59
10.50
9.77
9.37
9.08
8.64
7.94
7.07
6.22
5.57
5.23
5.14
5.20
5.28
5.25
5.05
4.62
3.90
2.84
1.47
-0.08
-1.63
-2.98
-4.03
-4.86
-5.77
-7.11
-9.20
-12.00
-15.08
-17.59
-18.58
-17.32
-13.64
-8.03
-1.51
4.79
9.93
13.49
15.44
16.05
15.62
14.37
12.47
10.07
7.37
4.72
2.47
0.97
0.46
1.03
2.49
4.42
6.22
7.37
7.53
6.69
5.12
3.19
1.20
-0.69
-2.45
-4.05
-5.47
-6.70
-7.94
-9.54
-11.84
-14.83
-17.97
-20.17
-20.25
-17.42
-11.79
-4.46
3.00
9.12
13.13
15.06
15.54
15.29
14.70
13.70
11.96
9.25
5.70
1.90
-1.30
-3.17
-3.41
-2.26
-0.44
1.20
1.98
1.65
0.37
-1.40
-3.18
-4.67
-5.82
-6.81
-7.86
-9.20
-10.96
-13.18
-15.71
-18.16
-19.85
-19.99
-17.98
-13.64
-7.38
-0.14
6.96
12.93
17.19
19.63
20.43
19.90
18.32
15.96
13.11
10.11
7.37
5.25
4.00
3.60
3.85
4.33
4.65
4.49
3.79
2.67
1.40
0.27
-0.57
-1.13
-1.65
-2.44
-3.84
-6.09
-9.22
-13.03
-16.92
-20.06
-21.48
-20.41
-16.64
-10.57
-3.24
4.09
10.31
14.71
17.13
17.82
17.24
15.79
13.82
11.57
9.24
6.98
4.98
3.36
2.22
1.65
1.59
1.90
2.32
2.56
2.39
1.74
0.73
-0.40
-1.38
-2.06
-2.46
-2.79
-3.37
-4.50
-6.37
-9.00
-12.12
-15.16
-17.33
-17.79
-15.89
-11.52
-5.17
2.11
9.10
14.73
18.39
20.02
19.91
18.51
16.23
13.40
10.32
7.35
4.86
3.13
2.27
2.16
2.51
2.93
3.06
2.61
1.48
-0.26
-2.37
-4.46
-6.27
-7.65
-8.74
-9.84
-11.21
-13.02
-15.21
-17.63
-20.12
-22.63
-25.04
-26.98
-27.82
-26.81
-23.36
-17.47
-9.84
-1.64
5.74
11.29
14.57
15.72
15.27
13.83
11.89
9.76
7.61
5.55
3.74
2.37
1.63
1.65
2.39
3.56
4.77
5.60
5.82
5.41
4.55
3.53
2.59
1.83
1.22
0.62
-0.22
-1.55
-3.60
-6.47
-10.05
-13.91
-17.29
-19.27
-19.07
-16.26
-11.06
-4.24
3.06
9.65
14.65
17.69
18.85
18.59
17.41
15.68
13.65
11.38
8.96
6.54
4.36
2.66
1.64
1.37
1.70
2.37
3.04
3.40
3.28
2.68
1.72
0.61
-0.47
-1.44
-2.30
-3.16
-4.14
-5.35
-6.95
-9.07
-11.77
-14.88
-17.90
-20.01
-20.26
-17.94
-12.91
-5.74
2.39
10.08
16.10
19.74
20.99
20.32
18.46
16.13
13.80
11.67
9.74
7.91
6.17
4.59
3.36
2.65
2.53
2.90
3.55
4.23
4.77
5.17
5.45
5.66
5.70
5.39
4.55
3.12
1.29
-0.57
-2.12
-3.19
-3.99
-5.02
-6.83
-9.63
-13.08
-16.21
-17.78
-16.79
-12.89
-6.57
1.03
8.52
14.83
19.40
22.24
23.74
24.34
24.42
24.12
23.51
22.61
21.49
20.29
19.20
18.48
18.30
18.80
19.92
21.46
23.03
24.21
24.57
23.78
21.62
18.04
13.14
7.15
0.47
-6.33
-12.60
-17.67
-21.05
-22.57
-22.44
-21.21
-19.66
-18.54
-18.46
-19.64
-21.88
-24.58
-26.88
-27.95
-27.29
-24.94
-21.42
-17.52
-13.99
-11.26
-9.41
-8.23
-7.47
-6.92
-6.52
-6.21
-5.96
-5.68
-5.29
-4.75
-4.08
-3.30
-2.45
-1.56
-0.68
0.07
0.57
0.72
0.49
-0.02
-0.72
-1.46
-2.19
-2.88
-3.62
-4.47
-5.48
-6.67
-8.08
-9.73
-11.64
-13.62
-15.22
-15.74
-14.48
-11.05
-5.64
0.92
7.40
12.62
15.87
17.10
16.80
15.66
14.29
12.95
11.63
10.24
8.74
7.23
5.95
5.18
5.08
5.61
6.50
7.32
7.59
7.02
5.50
3.26
0.72
-1.64
-3.49
-4.73
-5.50
-6.11
-6.83
-7.86
-9.29
-11.06
-13.01
-14.83
-16.04
-16.03
-14.28
-10.51
-4.95
1.62
8.11
13.43
16.83
18.11
17.60
15.87
13.56
11.12
8.81
6.72
4.88
3.32
2.09
1.29
0.93
0.89
0.94
0.84
0.42
-0.33
-1.28
-2.29
-3.27
-4.27
-5.41
-6.69
-7.95
-8.90
-9.29
-9.15
-8.88
-9.12
-10.40
-12.77
-15.62
-17.78
-17.99
-15.39
-9.97
-2.57
5.36
12.30
17.17
19.58
19.84
18.73
17.11
15.66
14.70
14.24
14.07
13.97
13.87
13.94
14.46
15.70
17.72
20.26
22.88
25.11
26.68
27.54
27.90
27.96
27.94
28.11
28.85
30.65
33.73
37.71
41.37
42.92
40.63
33.69
22.74
9.73
-2.73
-12.30
-17.64
-18.65
-16.14
-11.43
-5.81
-0.29
4.51
8.59
12.61
17.74
25.27
35.71
48.18
60.13
67.98
68.13
58.32
38.29
9.95
-23.18
-56.87
-87.00
-110.24
-124.39
-128.60
-123.28
-109.95
-90.92
-68.79
-46.07
-24.89
-6.92
6.67
15.12
18.11
15.78
8.63
-2.42
-16.07
-30.65
-44.22
-54.88
-61.18
-62.42
-58.90
-51.82
-42.90
-33.86
-26.01
-19.94
-15.60
-12.47
-9.94
-7.62
-5.47
-3.65
-2.39
-1.75
-1.52
-1.42
-1.20
-0.79
-0.28
0.23
0.69
1.20
1.87
2.77
3.82
4.83
5.58
5.89
5.57
4.55
2.73
0.13
-3.10
-6.55
-9.53
-11.20
-10.83
-8.00
-2.86
3.83
11.03
17.57
22.62
25.78
27.14
27.08
26.05
24.38
22.23
19.69
16.82
13.79
10.87
8.34
6.42
5.21
4.57
4.26
4.04
3.75
3.35
2.99
2.73
2.58
2.46
2.25
1.85
1.18
0.10
-1.63
-4.17
-7.46
-10.99
-13.81
-14.77
-13.12
-8.76
-2.43
4.60
11.05
16.03
19.26
20.87
21.19
20.49
18.94
16.69
13.99
11.17
8.58
6.49
5.03
4.23
4.06
4.49
5.33
6.35
7.18
7.48
7.13
6.24
5.17
4.30
3.80
3.56
3.23
2.39
0.74
-1.76
-4.94
-8.32
-11.20
-12.75
-12.23
-9.20
-3.80
3.22
10.64
17.23
22.04
24.66
25.13
23.83
21.21
17.67
13.56
9.23
4.99
1.21
-1.80
-3.75
-4.50
-4.12
-3.00
-1.75
-1.00
-1.19
-2.37
-4.24
-6.29
-8.05
-9.28
-10.03
-10.54
-11.05
-11.89
-13.24
-15.15
-17.43
-19.62
-21.00
-20.86
-18.78
-14.85
-9.74
-4.31
0.56
4.31
6.73
7.77
7.53
6.06
3.56
0.39
-2.83
-5.42
-6.85
-6.91
-5.87
-4.28
-2.76
-1.76
-1.44
-1.68
-2.19
-2.73
-3.16
-3.57
-4.15
-5.11
-6.63
-8.75
-11.42
-14.44
-17.44
-19.86
-21.08
-20.51
-17.84
-13.22
-7.25
-0.82
5.14
9.93
13.25
15.05
15.48
14.73
13.00
10.59
7.90
5.46
3.68
2.81
2.80
3.28
3.78
3.87
3.37
2.33
1.06
-0.10
-0.87
-1.18
-1.11
-0.94
-0.98
-1.60
-3.09
-5.61
-8.97
-12.54
-15.28
-16.05
-13.91
-8.70
-1.11
7.49
15.48
21.59
25.19
26.36
25.60
23.58
20.86
17.81
14.66
11.58
8.76
6.36
4.56
3.41
2.81
2.45
1.89
0.74
-1.18
-3.69
-6.25
-8.26
-9.29
-9.30
-8.73
-8.24
-8.51
-9.96
-12.51
-15.69
-18.60
-20.16
-19.44
-15.94
-9.77
-1.75
6.84
14.61
20.51
24.06
25.42
25.18
24.01
22.38
20.49
18.35
16.01
13.65
11.65
10.45
10.40
11.49
13.38
15.53
17.38
18.62
19.29
19.65
20.00
20.51
21.15
21.77
22.28
22.80
23.61
24.94
26.67
28.22
28.79
27.67
24.75
20.78
17.11
15.30
16.46
20.88
27.92
36.47
45.49
54.38
63.05
71.34
78.50
82.97
82.78
76.40
63.40
44.63
21.60
-4.30
-32.29
-61.74
-91.33
-118.22
-138.43
-147.98
-144.66
-129.24
-105.41
-78.52
-53.78
-34.86
-23.43
-19.47
-21.96
-29.36
-39.84
-51.28
-61.36
-67.98
-69.76
-66.51
-59.23
-49.80
-40.22
-32.09
-26.17
-22.35
-20.04
-18.53
-17.23
-15.83
-14.20
-12.29
-10.04
-7.40
-4.47
-1.45
1.34
3.63
5.27
6.31
6.93
7.36
7.72
8.00
8.06
7.75
6.90
5.36
3.03
-0.11
-3.90
-7.92
-11.37
-13.25
-12.65
-9.16
-3.01
4.81
12.93
19.96
24.94
27.54
28.02
27.00
25.19
23.16
21.20
19.34
17.45
15.46
13.40
11.55
10.21
9.64
9.79
10.29
10.64
10.38
9.32
7.60
5.58
3.59
1.85
0.32
-1.16
-2.78
-4.65
-6.80
-9.32
-12.27
-15.67
-19.27
-22.44
-24.21
-23.57
-19.93
-13.41
-4.97
3.93
11.75
17.42
20.56
21.46
20.80
19.28
17.49
15.76
14.25
13.04
12.19
11.78
11.90
12.48
13.40
14.37
15.12
15.39
15.10
14.33
13.25
11.98
10.57
9.03
7.41
5.85
4.64
3.95
3.76
3.79
3.61
2.85
1.36
-0.65
-2.85
-4.83
-6.26
-6.98
-7.04
-6.65
-6.23
-6.29
-7.28
-9.24
-11.69
-13.56
-13.61
-10.95
-5.43
2.16
10.42
17.87
23.47
26.91
28.52
28.95
28.77
28.22
27.22
25.40
22.33
17.71
11.47
3.87
-4.55
-12.99
-20.52
-26.32
-29.77
-30.75
-29.58
-26.94
-23.60
-20.21
-17.05
-14.13
-11.35
-8.66
-6.20
-4.24
-3.03
-2.59
-2.80
-3.39
-4.15
-4.96
-5.78
-6.62
-7.45
-8.25
-9.08
-10.15
-11.78
-14.21
-17.41
-20.91
-23.82
-25.05
-23.73
-19.50
-12.77
-4.62
3.51
10.30
14.90
17.13
17.41
16.43
14.92
13.35
11.89
10.54
9.26
8.12
7.33
7.05
7.40
8.23
9.23
10.10
10.62
10.71
10.42
9.84
9.01
8.00
6.88
5.72
4.59
3.51
2.38
1.10
-0.38
-1.97
-3.45
-4.61
-5.29
-5.48
-5.33
-5.13
-5.20
-5.84
-7.32
-9.69
-12.75
-15.93
-18.40
-19.22
-17.68
-13.54
-7.22
0.28
7.64
13.63
17.43
18.89
18.44
16.79
14.66
12.48
10.38
8.29
6.17
4.17
2.58
1.73
1.75
2.53
3.69
4.83
5.64
6.02
6.02
5.75
5.34
4.82
4.23
3.50
2.50
1.14
-0.62
-2.65
-4.60
-6.07
-6.80
-6.78
-6.33
-5.90
-5.88
-6.47
-7.68
-9.39
-11.39
-13.38
-14.87
-15.19
-13.72
-10.13
-4.70
1.79
8.22
13.61
17.35
19.37
19.92
19.38
18.00
15.89
13.18
10.15
7.29
5.10
3.96
3.84
4.34
4.87
4.92
4.35
3.39
2.54
2.24
2.62
3.40
4.07
4.11
3.32
1.79
-0.09
-1.90
-3.29
-4.17
-4.62
-4.90
-5.31
-6.12
-7.58
-9.74
-12.38
-14.98
-16.72
-16.80
-14.71
-10.49
-4.76
1.39
6.83
10.78
12.88
13.34
12.62
11.24
9.54
7.66
5.62
3.44
1.24
-0.76
-2.32
-3.27
-3.68
-3.80
-4.00
-4.61
-5.69
-7.03
-8.17
-8.70
-8.43
-7.51
-6.36
-5.43
-5.05
-5.35
-6.29
-7.77
-9.62
-11.63
-13.43
-14.48
-14.27
-12.46
-9.06
-4.49
0.60
5.50
9.57
12.42
13.91
14.03
12.94
10.89
8.21
5.31
2.61
0.49
-0.79
-1.13
-0.65
0.30
1.21
1.62
1.23
0.12
-1.38
-2.80
-3.80
-4.36
-4.82
-5.63
-7.22
-9.75
-13.02
-16.42
-19.11
-20.19
-19.01
-15.34
-9.64
-2.81
3.92
9.56
13.57
15.93
16.97
17.03
16.24
14.58
12.03
8.77
5.29
2.20
-0.03
-1.17
-1.39
-1.09
-0.69
-0.54
-0.76
-1.24
-1.81
-2.30
-2.59
-2.75
-2.94
-3.46
-4.66
-6.76
-9.73
-13.12
-16.07
-17.55
-16.71
-13.28
-7.73
-1.07
5.49
10.98
14.94
17.38
18.54
18.67
17.85
16.14
13.62
10.60
7.50
4.82
2.94
2.02
1.91
2.22
2.44
2.17
1.28
-0.01
-1.29
-2.16
-2.52
-2.56
-2.79
-3.68
-5.51
-8.26
-11.56
-14.85
-17.37
-18.33
-17.08
-13.32
-7.35
-0.06
7.33
13.61
18.07
20.56
21.45
21.19
20.12
18.28
15.61
12.18
8.39
4.93
2.51
1.56
1.96
3.09
4.02
3.89
2.36
-0.32
-3.46
-6.21
-7.93
-8.51
-8.24
-7.72
-7.54
-8.12
-9.58
-11.76
-14.26
-16.43
-17.52
-16.79
-13.76
-8.37
-1.15
6.92
14.55
20.65
24.49
26.04
25.76
24.35
22.44
20.33
18.04
15.47
12.68
10.00
7.89
6.75
6.63
7.17
7.77
7.84
7.12
5.70
3.86
1.91
0.06
-1.70
-3.50
-5.46
-7.68
-10.21
-13.05
-16.13
-19.22
-21.85
-23.33
-22.94
-20.18
-15.06
-8.24
-0.87
5.75
10.59
13.19
13.70
12.62
10.56
7.97
5.11
2.14
-0.77
-3.39
-5.47
-6.82
-7.33
-7.05
-6.12
-4.78
-3.33
-2.17
-1.62
-1.87
-2.88
-4.39
-6.10
-7.78
-9.38
-10.91
-12.43
-13.85
-15.07
-16.11
-17.15
-18.51
-20.34
-22.38
-23.83
-23.62
-20.83
-15.19
-7.29
1.57
9.92
16.53
20.87
23.03
23.53
22.95
21.76
20.15
18.21
15.97
13.49
10.92
8.50
6.48
5.12
4.50
4.54
4.95
5.37
5.48
5.13
4.40
3.47
2.58
1.89
1.40
0.97
0.40
-0.53
-1.96
-3.84
-5.93
-7.82
-9.12
-9.64
-9.41
-8.80
-8.33
-8.50
-9.60
-11.56
-13.88
-15.63
-15.68
-12.97
-6.90
2.33
13.69
25.61
36.47
45.17
51.42
55.73
58.98
61.88
64.65
67.02
68.47
68.65
67.74
66.46
65.91
67.28
71.41
78.51
87.92
97.94
105.98
108.94
104.09
89.99
67.41
39.49
10.97
-13.20
-29.51
-36.93
-37.03
-33.24
-29.63
-29.65
-35.41
-47.40
-64.52
-84.44
-103.94
-119.50
-128.12
-127.97
-118.92
-102.58
-81.83
-59.94
-39.82
-23.36
-11.42
-4.01
-0.75
-1.19
-4.90
-11.31
-19.46
-27.98
-35.32
-40.26
-42.30
-41.84
-39.89
-37.55
-35.49
-33.71
-31.77
-29.20
-25.91
-22.27
-18.90
-16.29
-14.53
-13.30
-12.07
-10.52
-8.70
-6.99
-5.82
-5.24
-4.79
-3.63
-0.92
3.72
9.89
16.60
22.58
26.76
28.61
28.16
25.85
22.27
17.96
13.29
8.52
3.81
-0.66
-4.62
-7.66
-9.30
-9.10
-6.99
-3.29
1.23
5.54
8.71
10.26
10.26
9.24
7.84
6.55
5.44
4.27
2.72
0.66
-1.68
-3.79
-5.11
-5.29
-4.34
-2.63
-0.69
1.01
2.08
2.38
1.89
0.74
-0.81
-2.49
-4.00
-5.20
-6.10
-6.84
-7.53
-8.19
-8.76
-9.13
-9.31
-9.35
-9.36
-9.48
-9.82
-10.49
-11.59
-13.10
-14.75
-16.07
-16.43
-15.35
-12.62
-8.54
-3.62
1.49
6.29
10.46
13.78
16.07
17.12
16.89
15.57
13.63
11.63
10.04
9.10
8.75
8.80
8.97
9.04
8.92
8.60
8.11
7.56
7.03
6.61
6.32
6.17
6.00
5.67
5.05
4.09
2.84
1.40
-0.08
-1.47
-2.64
-3.49
-4.08
-4.56
-5.25
-6.49
-8.51
-11.29
-14.50
-17.51
-19.60
-20.11
-18.69
-15.38
-10.61
-5.06
0.51
5.36
8.95
10.98
11.49
10.82
9.49
8.04
6.88
6.16
5.88
5.84
5.90
5.98
6.05
6.09
6.04
5.77
5.22
4.38
3.36
2.34
1.40
0.56
-0.31
-1.34
-2.58
-3.98
-5.34
-6.43
-7.03
-7.12
-6.83
-6.38
-6.02
-5.99
-6.50
-7.69
-9.52
-11.63
-13.32
-13.73
-12.12
-8.25
-2.61
3.72
9.45
13.56
15.65
15.94
14.98
13.30
11.24
8.96
6.59
4.33
2.48
1.26
0.76
0.89
1.42
2.04
2.55
2.76
2.59
2.11
1.42
0.69
0.04
-0.53
-1.10
-1.79
-2.64
-3.60
-4.53
-5.45
-6.50
-7.96
-9.99
-12.45
-14.75
-16.07
-15.63
-13.02
-8.45
-2.69
3.15
8.03
11.25
12.67
12.54
11.37
9.71
7.89
6.12
4.44
2.93
1.70
0.95
0.80
1.23
2.04
2.85
3.31
3.22
2.64
1.81
1.11
0.79
0.87
1.13
1.20
0.70
-0.65
-2.95
-6.04
-9.54
-12.82
-15.09
-15.60
-13.96
-10.29
-5.33
-0.20
4.03
6.73
7.90
8.01
7.70
7.38
7.11
6.62
5.67
4.25
2.65
1.38
0.89
1.36
2.64
4.34
5.97
7.18
7.84
7.96
7.74
7.34
6.86
6.28
5.46
4.25
2.50
0.21
-2.55
-5.47
-8.13
-9.89
-10.13
-8.35
-4.51
0.96
7.11
12.81
17.12
19.62
20.45
20.15
19.27
18.08
16.55
14.41
11.52
8.00
4.27
0.90
-1.71
-3.50
-4.74
-5.88
-7.27
-8.93
-10.59
-11.82
-12.33
-12.15
-11.61
-11.20
-11.36
-12.27
-13.87
-15.90
-18.00
-19.72
-20.58
-20.10
-17.88
-13.91
-8.57
-2.69
2.76
6.95
9.42
10.20
9.70
8.46
6.95
5.51
4.30
3.43
2.95
2.86
3.06
3.34
3.46
3.18
2.44
1.37
0.20
-0.72
-1.21
-1.20
-0.86
-0.52
-0.61
-1.49
-3.41
-6.30
-9.85
-13.37
-15.99
-16.91
-15.61
-12.10
-6.90
-0.88
4.97
9.82
13.21
15.01
15.37
14.52
12.75
10.37
7.68
5.06
2.89
1.50
1.00
1.27
1.96
2.61
2.80
2.25
1.01
-0.63
-2.19
-3.24
-3.57
-3.32
-2.94
-3.02
-4.09
-6.35
-9.48
-12.70
-15.03
-15.56
-13.82
-9.96
-4.65
1.13
6.38
10.40
12.93
14.08
14.22
13.73
12.84
11.63
10.05
8.11
5.99
4.11
2.96
2.89
3.90
5.52
7.06
7.87
7.65
6.54
4.99
3.50
2.43
1.86
1.64
1.47
0.90
-0.49
-2.94
-6.26
-9.65
-11.81
-11.35
-7.44
-0.20
9.12
18.69
26.72
32.19
35.18
36.56
37.45
38.56
39.97
41.08
41.19
39.93
37.55
34.86
32.95
32.70
34.55
38.54
44.50
52.20
61.16
70.40
78.29
82.78
82.05
75.30
62.98
46.55
27.46
6.36
-16.85
-42.17
-68.28
-91.87
-108.35
-113.61
-105.90
-86.91
-61.09
-34.11
-10.97
5.23
13.35
13.75
7.61
-3.48
-17.58
-32.49
-46.07
-56.68
-63.48
-66.53
-66.37
-63.81
-59.51
-53.98
-47.56
-40.45
-32.80
-24.70
-16.33
-8.04
-0.45
5.70
9.72
11.11
9.90
6.62
2.19
-2.35
-6.16
-8.85
-10.54
-11.75
-12.98
-14.41
-15.79
-16.51
-15.88
-13.49
-9.43
-4.26
1.19
6.07
9.78
12.00
12.79
12.39
11.22
9.64
7.96
6.36
4.88
3.48
2.13
0.85
-0.28
-1.16
-1.75
-2.10
-2.34
-2.60
-2.97
-3.43
-3.93
-4.48
-5.08
-5.80
-6.64
-7.62
-8.67
-9.72
-10.73
-11.63
-12.32
-12.58
-12.11
-10.63
-7.98
-4.32
-0.11
4.04
7.47
9.76
10.79
10.71
9.92
8.78
7.59
6.54
5.68
4.97
4.34
3.74
3.15
2.68
2.51
2.76
3.40
4.21
4.82
4.89
4.28
3.09
1.63
0.19
-1.08
-2.19
-3.18
-4.03
-4.67
-5.07
-5.39
-5.97
-7.12
-8.76
-10.39
-11.15
-10.24
-7.33
-2.77
2.53
7.51
11.33
13.62
14.46
14.27
13.51
12.55
11.60
10.67
9.64
8.39
6.88
5.27
3.80
2.77
2.37
2.53
3.01
3.46
3.65
3.55
3.26
2.88
2.47
1.95
1.17
0.02
-1.55
-3.52
-5.87
-8.57
-11.44
-14.10
-15.98
-16.42
-15.01
-11.78
-7.27
-2.40
1.93
5.06
6.83
7.49
7.45
7.11
6.62
6.02
5.28
4.43
3.62
3.02
2.79
2.94
3.36
3.83
4.11
4.01
3.54
2.85
2.18
1.73
1.50
1.31
0.84
-0.14
-1.77
-3.92
-6.34
-8.63
-10.34
-11.06
-10.46
-8.41
-5.07
-0.92
3.38
7.15
9.92
11.55
12.11
11.80
10.77
9.13
6.91
4.31
1.62
-0.78
-2.56
-3.55
-3.85
-3.70
-3.45
-3.35
-3.47
-3.73
-3.97
-4.07
-4.00
-3.81
-3.62
-3.53
-3.59
-3.83
-4.30
-5.00
-5.86
-6.59
-6.74
-5.82
-3.49
0.20
4.76
9.33
13.04
15.29
15.90
15.17
13.59
11.60
9.45
7.15
4.72
2.24
-0.03
-1.81
-2.90
-3.31
-3.27
-3.09
-3.08
-3.33
-3.76
-4.18
-4.40
-4.31
-3.96
-3.49
-3.14
-3.18
-3.83
-5.25
-7.28
-9.46
-11.06
-11.34
-9.82
-6.57
-2.20
2.35
6.18
8.81
10.19
10.60
10.35
9.61
8.32
6.46
4.12
1.67
-0.42
-1.80
-2.34
-2.31
-2.12
-2.19
-2.73
-3.62
-4.56
-5.14
-5.16
-4.56
-3.62
-2.75
-2.45
-3.07
-4.74
-7.23
-9.89
-11.88
-12.30
-10.61
-6.83
-1.58
4.08
9.08
12.64
14.52
14.90
14.23
12.91
11.21
9.27
7.20
5.20
3.49
2.27
1.57
1.21
0.94
0.56
0.04
-0.44
-0.63
-0.38
0.33
1.28
2.28
3.07
3.42
3.13
1.98
-0.07
-2.85
-5.82
-8.19
-9.13
-8.17
-5.34
-1.25
3.21
7.15
10.04
11.74
12.43
12.37
11.73
10.53
8.75
6.45
3.87
1.38
-0.63
-1.91
-2.47
-2.55
-2.51
-2.63
-3.00
-3.49
-3.88
-3.99
-3.75
-3.28
-2.79
-2.49
-2.59
-3.22
-4.47
-6.29
-8.46
-10.47
-11.68
-11.47
-9.54
-6.07
-1.71
2.66
6.28
8.73
9.96
10.16
9.59
8.42
6.81
4.90
2.99
1.36
0.30
-0.08
0.14
0.74
1.39
1.85
1.92
1.62
1.03
0.36
-0.16
-0.42
-0.41
-0.25
-0.09
-0.09
-0.34
-0.93
-1.90
-3.20
-4.64
-5.81
-6.25
-5.63
-3.92
-1.46
1.22
3.62
5.45
6.73
7.53
7.90
7.73
6.86
5.28
3.22
1.11
-0.59
-1.59
-1.93
-1.85
-1.73
-1.87
-2.30
-2.92
-3.50
-3.92
-4.17
-4.36
-4.62
-5.00
-5.42
-5.83
-6.30
-7.10
-8.55
-10.73
-13.27
-15.33
-15.92
-14.36
-10.67
-5.61
-0.34
4.06
7.03
8.60
9.23
9.34
9.14
8.51
7.22
5.21
2.67
0.06
-2.04
-3.22
-3.42
-3.01
-2.61
-2.79
-3.80
-5.40
-6.96
-7.78
-7.47
-6.18
-4.56
-3.41
-3.34
-4.39
-6.00
-7.21
-6.93
-4.45
0.44
7.19
14.80
22.07
28.06
32.35
35.11
36.86
38.10
39.10
39.71
39.61
38.60
36.80
34.69
32.92
32.13
32.78
35.30
40.13
47.58
57.48
68.65
78.81
85.01
84.68
76.67
61.58
41.40
18.36
-5.85
-30.27
-54.00
-75.46
-92.15
-101.42
-101.61
-93.10
-78.32
-60.84
-44.05
-30.21
-20.37
-14.67
-13.05
-15.37
-21.31
-29.94
-39.62
-48.28
-54.09
-55.96
-53.90
-48.90
-42.37
-35.60
-29.28
-23.40
-17.53
-11.20
-4.32
2.67
8.97
13.66
16.04
15.78
13.00
8.15
2.04
-4.35
-9.96
-13.91
-15.65
-15.23
-13.22
-10.49
-7.88
-5.95
-4.82
-4.22
-3.83
-3.41
-2.98
-2.82
-3.18
-4.19
-5.70
-7.30
-8.60
-9.30
-9.42
-9.16
-8.84
-8.61
-8.41
-8.03
-7.23
-5.98
-4.50
-3.17
-2.33
-2.24
-2.95
-4.37
-6.32
-8.47
-10.34
-11.33
-10.84
-8.46
-4.30
0.99
6.39
10.84
13.67
14.82
14.70
14.06
13.53
13.43
13.73
14.13
14.27
13.94
13.14
12.04
10.91
9.93
9.15
8.49
7.78
6.92
5.94
4.98
4.17
3.50
2.89
2.14
1.04
-0.45
-2.39
-4.73
-7.42
-10.27
-12.88
-14.64
-14.87
-13.03
-9.02
-3.31
3.14
9.19
13.84
16.58
17.41
16.80
15.36
13.63
11.97
10.50
9.26
8.28
7.62
7.40
7.63
8.18
8.81
9.20
9.10
8.42
7.25
5.85
4.50
3.43
2.70
2.12
1.45
0.41
-1.13
-3.13
-5.51
-8.13
-10.91
-13.68
-16.08
-17.60
-17.62
-15.66
-11.63
-5.93
0.60
6.97
12.38
16.34
18.75
19.69
19.43
18.20
16.27
13.98
11.64
9.57
7.96
6.85
6.25
6.08
6.29
6.81
7.48
8.05
8.25
7.91
7.07
5.92
4.69
3.46
2.11
0.40
-1.77
-4.22
-6.53
-8.16
-8.80
-8.52
-7.87
-7.51
-8.05
-9.71
-12.26
-15.07
-17.33
-18.24
-17.21
-14.02
-8.87
-2.46
4.22
10.10
14.35
16.66
17.23
16.66
15.63
14.68
14.01
13.56
13.12
12.45
11.52
10.38
9.19
8.08
7.21
6.64
6.41
6.49
6.75
6.99
6.95
6.39
5.19
3.41
1.27
-0.88
-2.75
-4.23
-5.34
-6.22
-6.99
-7.68
-8.30
-8.83
-9.33
-9.84
-10.37
-10.85
-11.16
-11.32
-11.51
-12.16
-13.71
-16.34
-19.70
-22.86
-24.58
-23.78
-19.99
-13.67
-6.02
1.36
7.16
10.70
12.13
12.14
11.59
11.08
10.83
10.70
10.44
9.92
9.17
8.40
7.84
7.65
7.76
8.00
8.12
7.89
7.22
6.19
4.99
3.87
2.95
2.24
1.61
0.86
-0.11
-1.31
-2.61
-3.88
-4.98
-5.89
-6.61
-7.14
-7.51
-7.74
-7.91
-8.16
-8.71
-9.73
-11.26
-13.10
-14.73
-15.51
-14.77
-12.14
-7.75
-2.22
3.51
8.55
12.40
15.00
16.66
17.75
18.50
18.85
18.61
17.63
15.98
13.94
11.91
10.13
8.77
7.75
6.91
6.14
5.43
4.89
4.67
4.86
5.35
5.91
6.15
5.82
4.91
3.61
2.31
1.33
0.84
0.71
0.74
0.70
0.46
0.03
-0.57
-1.38
-2.47
-3.90
-5.55
-7.24
-8.81
-10.30
-11.96
-14.07
-16.68
-19.36
-21.23
-21.31
-18.93
-14.09
-7.53
-0.41
6.03
10.98
14.06
15.38
15.32
14.35
12.88
11.25
9.66
8.13
6.63
5.10
3.63
2.41
1.64
1.44
1.67
2.02
2.11
1.75
1.06
0.37
-0.01
0.01
0.22
0.21
-0.35
-1.48
-2.85
-3.94
-4.32
-3.87
-2.84
-1.69
-0.94
-0.87
-1.51
-2.66
-4.02
-5.31
-6.40
-7.24
-7.90
-8.53
-9.35
-10.62
-12.50
-14.95
-17.56
-19.60
-20.20
-18.72
-14.96
-9.40
-3.01
3.07
7.93
11.15
12.83
13.38
13.22
12.64
11.70
10.39
8.71
6.83
5.02
3.59
2.73
2.42
2.47
2.63
2.69
2.63
2.58
2.71
3.16
3.90
4.70
5.26
5.29
4.75
3.77
2.73
1.97
1.77
2.12
2.72
3.11
2.84
1.74
-0.00
-1.88
-3.39
-4.22
-4.42
-4.33
-4.35
-4.80
-5.74
-7.10
-8.73
-10.54
-12.35
-13.84
-14.54
-13.90
-11.57
-7.62
-2.64
2.48
6.76
9.57
10.74
10.56
9.64
8.60
7.87
7.56
7.56
7.67
7.76
7.92
8.37
9.37
11.01
13.10
15.25
17.02
18.12
18.64
18.96
19.62
21.00
23.19
25.91
28.63
30.86
32.19
32.49
31.84
30.63
29.60
29.91
32.96
39.75
50.22
62.63
73.60
79.02
75.36
61.04
36.98
6.29
-26.87
-58.42
-85.22
-105.21
-117.31
-121.27
-117.64
-107.87
-94.11
-78.88
-64.27
-51.63
-41.34
-33.19
-26.80
-21.93
-18.46
-16.16
-14.61
-13.18
-11.39
-9.20
-6.99
-5.34
-4.60
-4.61
-4.72
-4.16
-2.42
0.44
3.88
7.22
9.97
12.04
13.69
15.25
16.90
18.63
20.21
21.39
22.07
22.21
21.90
21.20
20.03
18.23
15.64
12.16
7.91
3.27
-1.17
-4.64
-6.44
-6.14
-3.73
0.24
4.85
8.99
11.71
12.48
11.20
8.16
3.93
-0.85
-5.52
-9.49
-12.27
-13.64
-13.67
-12.76
-11.44
-10.20
-9.32
-8.82
-8.46
-8.01
-7.31
-6.31
-5.12
-3.97
-3.07
-2.59
-2.66
-3.15
-3.78
-4.12
-3.85
-2.88
-1.39
0.17
1.32
1.71
1.23
0.01
-1.64
-3.30
-4.46
-4.66
-3.67
-1.63
0.96
3.35
4.87
5.20
4.53
3.39
2.35
1.73
1.50
1.39
1.17
0.68
-0.03
-0.85
-1.67
-2.46
-3.26
-4.05
-4.74
-5.21
-5.27
-4.78
-3.74
-2.32
-0.89
0.19
0.55
0.15
-0.77
-1.72
-2.18
-1.92
-1.02
0.16
1.17
1.76
1.84
1.58
1.15
0.69
0.23
-0.20
-0.56
-0.72
-0.54
0.02
0.87
1.79
2.53
2.90
2.87
2.56
2.21
1.98
1.91
1.89
1.74
1.33
0.67
-0.12
-0.81
-1.25
-1.36
-1.20
-0.90
-0.64
-0.51
-0.53
-0.63
-0.73
-0.79
-0.80
-0.82
-0.84
-0.84
-0.76
-0.56
-0.37
-0.43
-1.00
-2.21
-3.85
-5.37
-6.13
-5.60
-3.71
-0.82
2.39
5.17
6.99
7.69
7.42
6.53
5.43
4.41
3.60
2.99
2.48
1.96
1.37
0.74
0.16
-0.31
-0.68
-1.09
-1.70
-2.55
-3.49
-4.16
-4.22
-3.54
-2.29
-0.86
0.30
0.94
1.04
0.74
0.17
-0.66
-1.76
-3.06
-4.25
-4.84
-4.42
-2.86
-0.47
2.15
4.40
5.88
6.62
6.89
7.08
7.44
7.98
8.58
9.04
9.22
9.10
8.75
8.32
7.95
7.72
7.68
7.79
7.97
8.11
8.04
7.63
6.81
5.63
4.18
2.58
0.87
-0.97
-3.01
-5.29
-7.69
-9.93
-11.64
-12.50
-12.34
-11.24
-9.48
-7.47
-5.60
-4.18
-3.31
-3.01
-3.13
-3.45
-3.77
-3.92
-3.90
-3.75
-3.58
-3.47
-3.42
-3.32
-3.13
-2.82
-2.42
-2.01
-1.70
-1.46
-1.26
-1.03
-0.77
-0.51
-0.35
-0.36
-0.58
-0.99
-1.51
-2.07
-2.68
-3.41
-4.36
-5.57
-6.90
-8.06
-8.63
-8.26
-6.77
-4.28
-1.24
1.76
4.17
5.64
6.15
5.97
5.46
4.98
4.72
4.68
4.72
4.67
4.40
3.89
3.29
2.78
2.49
2.47
2.65
2.89
3.06
3.08
2.98
2.86
2.77
2.68
2.52
2.14
1.51
0.64
-0.36
-1.34
-2.19
-2.82
-3.24
-3.47
-3.55
-3.54
-3.49
-3.47
-3.63
-4.12
-4.98
-6.10
-7.18
-7.80
-7.58
-6.31
-4.02
-1.03
2.17
5.08
7.26
8.47
8.61
7.77
6.15
4.12
2.05
0.32
-0.76
-1.09
-0.72
0.15
1.23
2.27
3.08
3.61
3.86
3.90
3.76
3.54
3.33
3.24
3.27
3.29
3.06
2.32
1.02
-0.66
-2.28
-3.38
-3.68
-3.25
-2.45
-1.73
-1.42
-1.65
-2.37
-3.44
-4.73
-6.03
-7.05
-7.41
-6.77
-5.02
-2.42
0.45
2.87
4.31
4.63
4.13
3.32
2.60
2.13
1.78
1.36
0.73
0.01
-0.55
-0.68
-0.28
0.52
1.40
2.07
2.37
2.33
2.12
1.93
1.83
1.79
1.65
1.32
0.73
0.01
-0.69
-1.21
-1.50
-1.63
-1.71
-1.86
-2.05
-2.21
-2.22
-2.00
-1.64
-1.34
-1.35
-1.78
-2.56
-3.42
-3.94
-3.78
-2.83
-1.31
0.34
1.63
2.29
2.39
2.19
2.02
2.01
2.06
1.91
1.37
0.49
-0.50
-1.25
-1.53
-1.29
-0.69
0.03
0.65
1.09
1.34
1.46
1.53
1.63
1.82
2.11
2.45
2.67
2.60
2.19
1.50
0.66
-0.16
-0.87
-1.39
-1.73
-1.84
-1.68
-1.33
-1.02
-1.08
-1.75
-3.02
-4.52
-5.68
-5.98
-5.22
-3.60
-1.66
0.08
1.24
1.74
1.76
1.49
1.12
0.72
0.37
0.14
0.07
0.17
0.32
0.35
0.21
-0.00
-0.03
0.35
1.28
2.60
4.02
5.16
5.82
5.94
5.65
5.15
4.62
4.17
3.77
3.35
2.82
2.13
1.31
0.48
-0.25
-0.84
-1.26
-1.57
-1.76
-1.72
-1.34
-0.67
-0.01
0.13
-0.75
-2.78
-5.58
-8.27
-9.89
-9.81
-8.05
-5.22
-2.23
0.14
1.57
2.14
2.22
2.12
2.02
1.93
1.81
1.67
1.61
1.66
1.83
2.05
2.24
2.32
2.24
1.99
1.53
0.93
0.28
-0.22
-0.38
-0.16
0.34
0.86
1.09
0.88
0.29
-0.49
-1.17
-1.56
-1.62
-1.42
-1.13
-0.91
-0.87
-1.09
-1.64
-2.57
-3.87
-5.44
-6.99
-8.06
-8.17
-7.01
-4.62
-1.55
1.37
3.34
3.94
3.40
2.34
1.46
1.19
1.39
1.63
1.49
0.85
0.04
-0.51
-0.45
0.16
0.96
1.54
1.66
1.41
1.08
0.94
1.14
1.53
1.83
1.80
1.34
0.56
-0.33
-1.06
-1.49
-1.63
-1.54
-1.44
-1.53
-2.03
-3.05
-4.54
-6.22
-7.59
-8.13
-7.53
-5.87
-3.63
-1.45
0.07
0.75
0.78
0.57
0.48
0.66
1.00
1.27
1.26
0.95
0.48
0.09
-0.03
0.20
0.77
1.53
2.32
3.02
3.55
3.97
4.36
4.83
5.39
5.94
6.31
6.36
6.03
5.38
4.59
3.84
3.15
2.44
1.52
0.30
-1.12
-2.42
-3.14
-2.92
-1.73
0.15
2.22
3.98
5.15
5.72
5.88
5.80
5.56
5.06
4.20
3.02
1.70
0.55
-0.24
-0.62
-0.66
-0.52
-0.24
0.20
0.86
1.71
2.60
3.27
3.49
3.21
2.46
1.40
0.19
-0.98
-1.97
-2.65
-3.06
-3.40
-3.99
-5.16
-6.91
-8.92
-10.57
-11.20
-10.51
-8.67
-6.32
-4.18
-2.83
-2.33
-2.39
-2.55
-2.45
-1.95
-1.14
-0.23
0.68
1.60
2.59
3.69
4.88
6.04
7.09
7.96
8.61
8.93
8.83
8.21
7.07
5.56
3.95
2.48
1.29
0.36
-0.42
-1.20
-2.10
-3.23
-4.62
-6.20
-7.73
-8.80
-8.96
-7.93
-5.78
-3.01
-0.28
1.86
3.14
3.73
3.92
3.95
3.80
3.27
2.19
0.64
-0.96
-2.07
-2.27
-1.53
-0.24
0.98
1.55
1.22
0.08
-1.48
-2.97
-4.04
-4.56
-4.56
-4.26
-3.82
-3.42
-3.17
-3.14
-3.44
-4.06
-4.92
-5.72
-5.99
-5.23
-3.17
0.07
3.89
7.46
9.95
10.90
10.40
8.84
6.82
4.73
2.72
0.79
-1.05
-2.64
-3.68
-4.00
-3.60
-2.79
-1.95
-1.41
-1.17
-1.08
-0.88
-0.46
0.05
0.39
0.35
-0.06
-0.65
-1.19
-1.59
-2.01
-2.74
-3.85
-5.15
-6.08
-6.04
-4.61
-1.82
1.81
5.52
8.54
10.35
10.88
10.39
9.40
8.41
7.74
7.49
7.46
7.38
7.08
6.61
6.30
6.50
7.55
9.42
11.76
13.93
15.32
15.53
14.65
13.24
12.13
12.06
13.35
15.83
18.88
21.65
23.48
24.10
23.87
23.75
25.20
29.74
38.20
49.97
62.64
72.50
75.50
68.71
51.37
25.11
-6.42
-38.62
-66.96
-87.84
-99.15
-100.52
-93.24
-79.79
-63.18
-46.05
-30.14
-16.27
-4.76
4.18
10.23
13.25
13.63
12.34
10.61
9.38
8.82
8.43
7.50
5.72
3.49
1.73
1.28
2.37
4.43
6.33
6.94
5.61
2.41
-2.02
-6.66
-10.62
-13.22
-14.18
-13.59
-11.90
-9.79
-7.96
-6.94
-6.90
-7.66
-8.83
-10.06
-11.17
-12.21
-13.27
-14.31
-15.13
-15.49
-15.22
-14.44
-13.47
-12.65
-12.21
-12.16
-12.40
-12.84
-13.43
-14.20
-15.17
-16.33
-17.59
-18.82
-19.86
-20.53
-20.65
-20.16
-19.14
-17.90
-16.87
-16.51
-17.11
-18.66
-20.80
-22.93
-24.25
-24.00
-21.70
-17.34
-11.43
-4.91
1.32
6.63
10.92
14.45
17.65
20.65
23.28
25.16
25.95
25.60
24.33
22.50
20.40
18.17
15.85
13.47
11.14
9.05
7.36
6.11
5.20
4.46
3.73
2.96
2.18
1.44
0.79
0.18
-0.48
-1.30
-2.42
-3.89
-5.77
-7.93
-10.11
-11.85
-12.61
-11.93
-9.58
-5.76
-1.05
3.69
7.60
10.11
11.12
10.97
10.32
9.80
9.80
10.32
11.05
11.62
11.79
11.68
11.61
11.95
12.95
14.57
16.53
18.47
20.07
21.24
22.04
22.66
23.36
24.32
25.60
27.19
28.95
30.76
32.41
33.68
34.34
34.27
33.64
33.15
33.95
37.29
43.70
52.24
60.27
63.96
59.62
45.08
20.88
-9.91
-42.64
-72.61
-96.39
-112.39
-120.63
-122.01
-117.68
-108.67
-95.91
-80.45
-63.46
-46.22
-29.91
-15.40
-3.25
6.34
13.27
17.48
18.98
17.86
14.42
9.36
3.65
-1.67
-5.78
-8.27
-9.33
-9.56
-9.67
-10.16
-11.03
-11.81
-11.78
-10.35
-7.33
-3.11
1.52
5.63
8.52
9.94
10.08
9.35
8.17
6.77
5.23
3.47
1.58
-0.22
-1.53
-2.01
-1.51
-0.16
1.63
3.42
4.84
5.76
6.22
6.30
6.07
5.50
4.59
3.35
2.02
0.88
0.16
-0.16
-0.38
-0.99
-2.38
-4.47
-6.74
-8.22
-8.03
-5.73
-1.66
3.30
7.99
11.55
13.57
14.24
14.04
13.42
12.65
11.74
10.55
9.02
7.15
5.13
3.26
1.87
1.21
1.26
1.79
2.36
2.60
2.32
1.67
1.00
0.65
0.73
1.08
1.35
1.23
0.59
-0.41
-1.50
-2.47
-3.32
-4.20
-5.16
-6.08
-6.54
-6.03
-4.22
-1.15
2.64
6.36
9.20
10.70
10.81
9.89
8.46
6.98
5.75
4.78
3.96
3.18
2.39
1.70
1.25
1.10
1.22
1.48
1.70
1.82
1.86
1.94
2.11
