1707142469.00
64.000000
-0.00
-0.00
-0.00
-0.00
-0.00
-0.00
-0.00
-0.00
-0.00
-0.00
0.00
0.01
0.01
-0.00
-0.03
-0.05
-0.05
0.00
0.13
0.36
0.66
1.01
1.37
1.72
2.06
2.40
2.79
3.24
3.80
4.42
5.06
5.66
6.20
6.68
7.15
7.68
8.31
9.14
10.09
11.04
11.88
12.56
13.14
13.76
14.65
15.96
17.91
20.32
22.90
25.38
27.58
29.57
31.68
34.32
37.81
42.54
48.15
54.10
59.83
64.97
69.58
74.14
79.34
85.71
93.76
103.00
112.62
121.73
129.77
136.75
143.30
150.75
157.77
166.64
177.95
191.79
206.97
220.57
228.25
225.36
208.53
176.87
132.76
80.05
23.07
-34.94
-92.44
-149.16
-205.23
-260.37
-313.74
-363.87
-409.83
-450.91
-486.50
-515.74
-537.23
-549.22
-549.96
-538.36
-514.20
-478.66
-433.85
-382.41
-326.95
-269.75
-212.50
-156.49
-102.74
-52.11
-5.59
35.96
71.86
101.85
126.06
145.01
159.39
169.92
177.21
181.67
183.58
183.16
180.70
176.54
171.07
164.73
157.85
150.67
143.35
135.94
128.51
121.07
113.71
106.50
99.49
92.76
86.32
80.21
74.42
68.97
63.87
59.13
54.76
50.76
47.13
43.87
40.96
38.40
36.19
34.32
32.79
31.58
30.70
30.14
29.90
29.98
30.33
30.94
31.74
32.66
33.58
34.38
34.88
34.92
34.35
33.02
30.84
27.78
23.88
19.19
13.89
8.19
2.33
-3.41
-8.80
-13.59
-17.63
-20.80
-23.04
-24.35
-24.81
-24.51
-23.59
-22.17
-20.39
-18.37
-16.19
-13.92
-11.58
-9.22
-6.85
-4.49
-2.12
0.28
2.73
5.25
7.88
10.64
13.50
16.43
19.42
22.48
25.60
28.81
32.15
35.66
39.43
43.35
47.38
51.51
55.73
60.05
64.50
69.13
74.01
79.25
84.69
90.24
95.88
101.57
107.32
113.12
118.98
124.95
131.07
137.05
142.64
147.58
151.64
154.49
155.72
154.78
150.87
145.46
139.05
131.98
124.50
116.78
108.99
101.27
93.77
86.68
80.17
74.09
68.35
62.91
57.73
52.82
48.17
43.82
39.81
36.23
32.92
29.79
26.79
23.92
21.17
18.56
16.11
13.87
11.91
10.12
8.46
6.90
5.43
4.04
2.72
1.49
0.38
-0.54
-1.26
-1.76
-2.01
-2.03
-1.86
-1.58
-1.27
-1.00
-0.82
-0.76
-0.86
-1.12
-1.60
-2.35
-3.45
-4.95
-6.85
-9.07
-11.49
-13.94
-16.31
-18.56
-20.79
-23.15
-25.84
-28.92
-32.31
-35.83
-39.21
-42.27
-45.07
-47.84
-51.00
-54.92
-59.78
-65.43
-71.49
-77.42
-82.91
-87.96
-93.00
-98.72
-105.80
-114.57
-124.89
-136.27
-148.02
-159.63
-170.97
-182.30
-194.20
-207.44
-222.93
-241.53
-263.64
-288.56
-314.11
-336.68
-352.14
-357.21
-350.70
-333.97
-310.34
-283.78
-257.54
-233.43
-211.87
-192.60
-175.30
-159.83
-146.12
-133.81
-122.20
-110.37
-97.70
-84.13
-70.28
-57.22
-45.96
-37.00
-30.17
-24.73
-19.82
-14.94
-10.08
-5.72
-2.43
-0.53
0.09
-0.01
-0.08
0.63
2.64
6.18
11.17
17.15
23.49
29.45
34.50
38.39
41.28
43.50
45.34
46.91
48.11
48.75
48.81
48.40
47.80
47.17
46.47
45.47
43.93
41.81
39.37
37.11
35.45
34.62
34.56
34.92
35.30
35.29
34.56
32.93
30.42
27.25
23.92
21.06
19.29
19.01
20.26
22.79
26.04
29.41
32.35
34.53
35.83
36.36
36.41
36.29
36.24
36.30
36.31
35.94
34.86
32.77
29.61
25.55
21.00
16.49
12.53
9.46
7.46
6.51
6.49
7.16
8.28
9.53
10.57
11.18
11.20
10.66
9.73
8.67
7.71
6.97
6.41
5.90
5.38
4.79
4.20
3.70
3.40
3.28
3.24
3.15
2.91
2.46
1.80
0.92
-0.22
-1.59
-3.11
-4.62
-5.82
-6.48
-6.38
-5.52
-3.98
-2.04
-0.05
1.66
2.84
3.43
3.51
3.24
2.83
2.44
2.14
2.00
2.03
2.25
2.64
3.17
3.79
4.49
5.25
6.05
6.82
7.42
7.70
7.53
6.87
5.79
4.49
3.14
1.83
0.59
-0.66
-2.02
-3.60
-5.43
-7.52
-9.77
-12.01
-14.08
-15.80
-17.15
-18.29
-19.50
-21.04
-23.00
-25.21
-27.32
-29.02
-30.26
-31.35
-32.81
-35.07
-38.23
-42.03
-45.93
-49.35
-51.82
-52.88
-52.05
-48.77
-42.65
-33.65
-22.35
-9.86
2.56
13.78
23.15
30.37
35.33
37.97
38.19
36.07
32.00
26.69
21.01
15.72
11.23
7.51
4.28
1.22
-1.78
-4.59
-6.87
-8.25
-8.59
-8.08
-7.25
-6.76
-7.13
-8.45
-10.33
-12.05
-12.77
-11.85
-9.06
-4.46
1.69
9.03
17.26
26.11
35.26
44.37
53.15
61.37
69.00
76.02
82.36
87.81
91.98
94.51
95.17
94.03
91.38
87.60
83.05
77.96
72.53
66.92
61.33
55.89
50.67
45.67
40.88
36.41
32.47
29.21
26.69
24.72
22.98
21.15
19.08
16.80
14.43
12.03
9.54
6.76
3.59
0.01
-3.79
-7.58
-11.17
-14.52
-17.70
-20.79
-23.79
-26.59
-29.00
-30.89
-32.31
-33.49
-34.82
-36.61
-39.00
-41.88
-44.89
-47.58
-49.48
-50.29
-49.90
-48.39
-46.06
-43.39
-40.96
-39.30
-38.69
-39.08
-40.11
-41.30
-42.36
-43.31
-44.52
-46.45
-49.34
-53.09
-57.30
-61.46
-65.27
-68.81
-72.44
-76.54
-81.34
-86.60
-91.66
-95.45
-96.69
-94.05
-86.46
-73.27
-54.58
-31.25
-4.83
22.76
49.55
73.94
94.89
111.86
124.73
133.55
138.47
139.67
137.37
131.93
123.83
113.76
102.60
91.32
80.86
71.93
64.88
59.62
55.72
52.68
50.02
47.47
44.85
42.04
38.83
34.98
30.25
24.59
18.17
11.33
4.50
-1.87
-7.37
-11.58
-14.16
-14.82
-13.56
-10.54
-6.25
-1.30
3.63
7.98
11.32
13.42
14.18
13.60
11.72
8.57
4.24
-1.14
-7.31
-13.81
-20.09
-25.48
-29.42
-31.54
-31.80
-30.44
-27.91
-24.80
-21.73
-19.23
-17.66
-17.14
-17.60
-18.73
-20.18
-21.42
-21.97
-21.42
-19.53
-16.36
-12.29
-7.97
-4.03
-0.94
1.13
2.30
2.78
2.77
2.31
1.41
0.15
-1.27
-2.53
-3.33
-3.56
-3.30
-2.87
-2.61
-2.83
-3.59
-4.83
-6.28
-7.67
-8.79
-9.63
-10.28
-10.98
-11.99
-13.46
-15.41
-17.79
-20.43
-23.28
-26.32
-29.56
-33.02
-36.62
-40.28
-43.87
-47.33
-50.66
-53.97
-57.38
-61.12
-65.40
-70.34
-75.87
-81.60
-86.92
-91.11
-93.61
-94.40
-93.93
-93.08
-92.71
-93.32
-94.92
-97.04
-99.04
-100.39
-100.72
-99.78
-97.41
-93.42
-87.71
-80.36
-71.61
-61.85
-51.52
-40.98
-30.56
-20.70
-11.87
-4.61
0.74
4.31
6.74
9.14
12.65
18.19
26.09
36.09
47.42
58.97
69.58
78.17
84.08
87.12
87.63
86.26
83.74
80.50
76.51
71.40
64.56
55.56
44.23
30.88
16.29
1.75
-11.02
-20.17
-24.12
-22.03
-14.10
-1.59
13.52
29.07
43.24
54.84
63.34
68.75
71.36
71.60
69.92
66.79
62.65
57.86
52.72
47.38
41.98
36.70
31.74
27.34
23.57
20.27
16.96
12.96
7.69
0.94
-6.98
-15.32
-23.11
-29.53
-34.08
-36.82
-38.25
-39.23
-40.57
-42.87
-46.16
-49.99
-53.57
-56.22
-57.77
-58.78
-60.35
-63.61
-69.14
-76.39
-83.62
-88.34
-88.03
-80.93
-66.62
-46.10
-21.49
4.62
29.76
51.94
69.83
82.68
90.22
92.59
90.36
84.52
76.44
67.54
59.06
51.70
45.61
40.63
36.59
33.50
31.65
31.28
32.43
34.71
37.53
40.17
42.16
43.34
43.81
43.92
44.05
44.62
45.93
48.19
51.30
54.89
58.39
61.24
63.06
63.78
63.50
62.34
60.34
57.35
53.21
47.82
41.27
33.97
26.57
19.94
14.99
12.47
12.76
15.79
21.02
27.58
34.46
40.69
45.56
48.70
50.14
50.24
49.59
48.81
48.33
48.36
48.83
49.56
50.35
51.11
51.83
52.60
53.48
54.53
55.77
57.11
58.31
59.04
58.86
57.42
54.60
50.61
45.97
41.32
37.15
33.63
30.53
27.44
23.95
19.93
15.61
11.36
7.51
4.07
0.76
-2.82
-7.00
-11.76
-16.77
-21.55
-25.66
-28.80
-30.88
-31.88
-31.88
-31.03
-29.65
-28.33
-27.72
-28.46
-30.81
-34.60
-39.22
-43.80
-47.52
-49.82
-50.44
-49.39
-46.82
-42.93
-37.93
-32.14
-25.90
-19.60
-13.51
-7.81
-2.54
2.29
6.65
10.45
13.59
16.08
18.14
20.21
22.89
26.68
31.71
37.66
43.64
48.36
50.48
49.00
43.53
34.47
22.82
9.95
-2.78
-14.32
-23.99
-31.32
-35.90
-37.27
-35.05
-29.21
-20.21
-9.00
3.14
14.99
25.50
33.94
39.89
43.19
44.05
42.85
40.10
36.21
31.29
25.21
17.82
9.25
0.13
-8.54
-15.73
-20.81
-23.72
-24.96
-25.28
-25.35
-25.49
-25.69
-25.74
-25.41
-24.69
-23.79
-23.01
-22.60
-22.69
-23.16
-23.76
-24.18
-24.12
-23.45
-22.19
-20.54
-18.82
-17.37
-16.44
-16.12
-16.29
-16.68
-16.96
-16.81
-15.96
-14.25
-11.56
-7.89
-3.35
1.79
7.09
12.04
16.18
19.19
20.97
21.68
21.61
21.06
20.18
19.05
17.66
15.98
14.10
12.13
10.15
8.07
5.71
2.84
-0.68
-4.82
-9.41
-14.26
-19.25
-24.36
-29.61
-34.99
-40.27
-45.13
-49.25
-52.47
-54.87
-56.78
-58.62
-60.70
-63.13
-65.86
-68.73
-71.71
-74.88
-78.45
-82.71
-87.92
-94.20
-101.55
-109.75
-118.36
-126.57
-133.33
-137.49
-138.12
-134.92
-128.26
-119.05
-108.35
-96.87
-84.79
-71.87
-57.86
-42.80
-27.27
-12.22
1.41
13.09
22.92
31.50
39.64
47.88
56.30
64.47
71.71
77.45
81.39
83.63
84.41
83.93
82.26
79.45
75.69
71.43
67.31
63.93
61.56
60.04
58.88
57.51
55.55
52.89
49.71
46.25
42.73
39.21
35.64
31.84
27.54
22.40
16.07
8.37
-0.42
-9.43
-17.18
-21.93
-22.19
-17.28
-7.61
5.40
19.78
33.64
45.67
55.35
62.82
68.59
73.18
76.94
80.04
82.59
84.71
86.59
88.41
90.30
92.26
94.09
95.50
96.10
95.48
93.24
89.10
82.94
74.87
65.22
54.50
43.32
32.27
21.85
12.42
4.17
-2.75
-8.24
-12.25
-14.77
-15.87
-15.76
-14.69
-13.01
-11.09
-9.23
-7.65
-6.48
-5.78
-5.53
-5.67
-6.09
-6.59
-6.96
-7.06
-6.84
-6.45
-6.18
-6.43
-7.50
-9.49
-12.27
-15.48
-18.64
-21.28
-23.13
-24.11
-24.36
-24.19
-23.92
-23.81
-23.91
-24.11
-24.16
-23.84
-23.04
-21.90
-20.68
-19.69
-19.11
-18.95
-19.10
-19.36
-19.64
-19.91
-20.21
-20.60
-21.05
-21.46
-21.70
-21.68
-21.37
-20.77
-19.98
-19.07
-18.23
-17.63
-17.47
-17.95
-19.20
-21.11
-23.45
-25.78
-27.59
-28.46
-28.16
-26.76
-24.54
-22.02
-19.74
-18.14
-17.51
-17.93
-19.30
-21.47
-24.22
-27.37
-30.81
-34.41
-38.04
-41.52
-44.58
-47.10
-49.06
-50.67
-52.28
-54.25
-56.73
-59.60
-62.54
-65.17
-67.26
-68.86
-70.20
-71.58
-73.18
-74.91
-76.52
-77.74
-78.41
-78.69
-78.87
-79.28
-80.07
-81.21
-82.59
-84.23
-86.46
-89.69
-94.06
-98.98
-103.01
-104.15
-100.39
-90.39
-73.84
-51.48
-25.04
2.90
29.09
49.94
62.08
63.28
53.24
33.85
8.67
-17.99
-42.23
-61.13
-72.88
-76.46
-71.20
-56.85
-33.70
-2.72
34.56
76.31
120.51
164.85
206.48
242.00
267.98
281.98
283.46
274.22
257.82
238.40
219.31
202.27
187.41
173.91
160.74
147.20
132.92
117.59
100.79
82.22
61.98
40.95
20.73
3.43
-9.04
-15.58
-16.36
-12.82
-7.13
-1.48
2.69
5.07
6.36
7.67
9.85
12.99
16.53
19.65
21.86
23.22
24.07
24.62
24.53
22.82
18.48
11.13
1.38
-9.24
-18.93
-26.43
-31.56
-35.16
-38.60
-42.99
-48.68
-55.20
-61.53
-66.60
-69.52
-69.74
-67.01
-61.37
-53.25
-43.53
-33.54
-24.72
-18.29
-14.86
-14.34
-16.05
-19.05
-22.44
-25.57
-28.06
-29.71
-30.52
-30.60
-30.16
-29.48
-28.86
-28.46
-28.34
-28.41
-28.52
-28.46
-28.09
-27.34
-26.29
-25.11
-23.99
-23.04
-22.25
-21.52
-20.72
-19.77
-18.62
-17.27
-15.73
-13.99
-12.05
-10.04
-8.16
-6.70
-5.88
-5.76
-6.24
-7.09
-8.07
-9.04
-9.93
-10.77
-11.74
-13.03
-14.92
-17.61
-21.22
-25.60
-30.39
-35.01
-38.79
-41.15
-41.76
-40.59
-38.02
-34.60
-30.99
-27.70
-25.02
-22.97
-21.40
-20.07
-18.73
-17.17
-15.17
-12.51
-8.88
-4.03
2.21
9.82
18.53
27.80
36.94
45.24
52.01
56.71
58.95
58.52
55.47
50.10
43.03
35.16
27.54
21.09
16.40
13.65
12.50
12.31
12.23
11.55
9.87
7.28
4.42
2.23
1.66
3.31
7.15
12.54
18.51
24.12
28.73
32.13
34.37
35.59
35.79
34.93
33.04
30.34
27.36
24.72
22.91
22.17
22.38
23.20
24.24
25.23
26.03
26.55
26.77
26.53
25.70
24.19
22.00
19.20
15.99
12.59
9.23
6.18
3.62
1.60
-0.04
-1.72
-3.99
-7.28
-11.67
-16.68
-21.33
-24.45
-25.07
-22.73
-17.68
-10.73
-2.97
4.58
11.19
16.53
20.53
23.21
24.64
24.81
23.81
21.83
19.21
16.42
13.93
12.04
10.86
10.30
10.10
10.01
9.84
9.50
8.97
8.33
7.67
7.09
6.65
6.27
5.78
4.92
3.53
1.60
-0.64
-2.92
-5.04
-7.05
-9.21
-11.83
-15.09
-18.94
-23.08
-27.11
-30.61
-33.14
-34.26
-33.48
-30.43
-25.09
-17.90
-9.76
-1.73
5.30
10.87
15.00
17.92
19.91
21.05
21.36
20.88
19.90
18.85
18.16
18.12
18.70
19.67
20.74
21.70
22.45
22.93
23.09
22.86
22.22
21.18
19.82
18.18
16.24
13.86
10.96
7.51
3.64
-0.39
-4.30
-7.85
-10.90
-13.43
-15.51
-17.33
-19.15
-21.28
-23.92
-27.07
-30.41
-33.29
-34.84
-34.28
-31.20
-25.70
-18.51
-10.67
-3.26
2.99
7.79
11.27
13.69
15.23
15.92
15.71
14.75
13.41
12.35
12.18
13.29
15.57
18.53
21.47
23.79
25.25
25.94
26.18
26.27
26.28
25.99
25.13
23.52
21.33
18.98
17.00
15.76
15.31
15.37
15.53
15.50
15.14
14.44
13.44
12.10
10.47
8.72
7.35
7.05
8.52
12.21
18.11
25.82
34.69
44.00
53.14
61.65
69.20
75.67
81.15
85.86
90.02
93.72
96.77
98.76
99.30
98.12
95.25
90.96
85.51
79.20
72.26
65.13
58.44
52.92
49.01
46.52
44.42
41.11
34.91
24.74
10.61
-6.40
-24.43
-41.47
-55.88
-66.75
-74.03
-78.42
-81.07
-83.32
-86.25
-90.48
-96.01
-102.10
-107.47
-110.67
-110.66
-107.28
-101.37
-94.55
-88.44
-83.94
-80.84
-78.04
-74.11
-68.10
-59.88
-50.04
-39.49
-28.98
-18.97
-9.71
-1.58
4.87
8.99
10.36
8.98
5.35
0.45
-4.56
-8.46
-10.37
-9.92
-7.43
-3.80
-0.44
1.13
-0.45
-5.95
-15.18
-26.76
-38.33
-47.15
-51.02
-49.03
-41.94
-31.81
-21.29
-12.78
-7.76
-6.55
-8.37
-11.67
-14.58
-15.41
-13.16
-7.95
-0.98
5.94
11.07
13.49
13.16
10.81
7.35
3.52
-0.25
-3.66
-6.43
-8.26
-8.95
-8.59
-7.54
-6.32
-5.35
-4.87
-4.84
-5.06
-5.36
-5.61
-5.80
-5.96
-6.12
-6.32
-6.55
-6.75
-6.87
-6.86
-6.63
-6.14
-5.34
-4.21
-2.85
-1.37
0.06
1.32
2.31
3.00
3.23
2.82
1.50
-0.85
-4.06
-7.62
-10.77
-12.78
-13.22
-12.19
-10.13
-7.64
-5.25
-3.20
-1.54
-0.28
0.53
0.78
0.32
-0.80
-2.35
-3.95
-5.20
-5.85
-5.87
-5.41
-4.71
-4.02
-3.49
-3.18
-3.12
-3.26
-3.54
-3.87
-4.23
-4.59
-4.97
-5.36
-5.68
-5.86
-5.79
-5.51
-5.12
-4.83
-4.82
-5.11
-5.65
-6.26
-6.80
-7.14
-7.23
-7.00
-6.35
-5.21
-3.55
-1.43
1.02
3.63
6.27
8.79
11.08
13.04
14.56
15.55
16.06
16.25
16.31
16.48
16.87
17.43
18.04
18.46
18.58
18.42
18.18
18.19
18.76
20.10
22.16
24.63
27.06
29.01
30.20
30.73
30.93
31.30
32.29
34.17
36.90
40.15
43.37
46.00
47.74
48.70
49.44
50.73
53.28
57.42
62.97
69.39
75.96
82.17
87.92
93.62
100.04
107.96
117.76
128.91
139.85
148.27
151.80
149.02
140.18
127.06
112.35
98.46
86.68
76.88
68.06
59.18
49.76
40.04
30.46
21.10
11.27
-0.41
-15.53
-35.45
-61.06
-92.61
-129.58
-170.40
-212.22
-250.98
-282.16
-301.96
-308.48
-302.36
-286.33
-264.04
-238.81
-212.83
-187.38
-163.43
-142.42
-126.11
-116.01
-112.38
-113.74
-117.26
-119.69
-118.69
-113.54
-105.24
-95.65
-86.53
-78.77
-72.20
-65.94
-59.02
-50.91
-41.64
-31.65
-21.42
-11.25
-1.21
8.68
18.29
27.30
35.26
41.72
46.40
49.22
50.32
50.04
48.82
47.19
45.61
44.40
43.60
43.07
42.50
41.70
40.62
39.37
38.04
36.54
34.62
31.93
28.35
24.06
19.48
15.08
11.18
7.86
5.09
2.92
1.53
1.24
2.23
4.39
7.23
10.08
12.35
13.74
14.34
14.43
14.28
13.97
13.40
12.43
11.01
9.32
7.71
6.57
6.18
6.56
7.57
8.96
10.56
12.30
14.20
16.28
18.47
20.58
22.39
23.70
24.38
24.36
23.59
22.00
19.60
16.47
12.83
8.98
5.26
1.92
-0.88
-3.11
-4.81
-6.12
-7.12
-8.00
-8.92
-9.95
-11.05
-12.03
-12.58
-12.42
-11.37
-9.44
-6.82
-3.81
-0.67
2.38
5.23
7.82
10.09
11.98
13.41
14.28
14.62
14.50
14.08
13.52
12.95
12.42
11.93
11.48
11.11
10.91
10.96
11.26
11.71
12.16
12.45
12.46
12.16
11.61
10.89
10.08
9.21
8.29
7.37
6.49
5.71
5.04
4.45
3.83
3.10
2.19
1.17
0.12
-0.87
-1.75
-2.53
-3.15
-3.46
-3.19
-2.10
-0.18
2.32
4.92
7.15
8.76
9.76
10.39
10.97
11.72
12.61
13.42
13.76
13.28
11.72
9.12
5.83
2.49
-0.20
-1.73
-1.97
-1.26
-0.14
0.80
1.33
1.50
1.62
2.01
2.92
4.39
6.34
8.47
10.26
11.09
10.30
7.54
3.00
-2.54
-7.84
-11.78
-13.73
-13.75
-12.50
-10.85
-9.49
-8.77
-8.74
-9.26
-10.08
-10.85
-11.08
-10.20
-7.76
-3.69
1.48
6.71
10.71
12.46
11.58
8.46
4.03
-0.60
-4.59
-7.52
-9.43
-10.55
-11.16
-11.45
-11.61
-11.79
-12.07
-12.47
-12.78
-12.67
-11.85
-10.21
-8.04
-5.80
-3.95
-2.70
-1.93
-1.28
-0.39
0.92
2.54
4.18
5.56
6.58
7.36
8.23
9.47
11.12
12.99
14.69
15.88
16.47
16.66
16.86
17.61
19.31
22.21
26.47
32.28
39.85
49.38
60.82
73.85
87.92
102.56
117.53
132.69
147.67
161.34
171.75
176.49
173.64
162.71
145.08
123.64
101.81
82.32
66.54
54.41
44.96
36.97
29.41
21.52
12.63
2.15
-10.55
-26.00
-44.63
-66.82
-92.84
-122.68
-155.70
-190.48
-224.79
-256.09
-282.03
-300.94
-311.87
-314.47
-308.73
-295.06
-274.36
-248.35
-219.28
-189.36
-159.96
-131.16
-102.15
-72.27
-42.03
-13.56
10.12
26.41
34.56
36.14
34.36
32.75
33.66
37.52
43.17
48.62
52.09
52.56
49.80
44.18
36.37
27.20
17.66
8.88
1.92
-2.35
-3.51
-1.73
2.34
7.77
13.51
18.77
23.01
26.10
28.23
29.82
31.29
32.90
34.60
36.05
36.78
36.40
34.77
32.09
28.86
25.54
22.44
19.61
16.90
14.17
11.43
8.84
6.68
5.18
4.30
3.87
3.58
3.11
2.30
1.19
-0.03
-1.04
-1.59
-1.46
-0.60
0.95
3.01
5.35
7.72
9.82
11.41
12.31
12.40
11.71
10.42
8.76
6.96
5.18
3.49
1.91
0.50
-0.57
-1.11
-0.93
-0.03
1.39
2.96
4.27
5.06
5.28
5.03
4.48
3.75
2.86
1.77
0.49
-0.91
-2.30
-3.58
-4.71
-5.71
-6.68
-7.59
-8.38
-8.92
-9.17
-9.17
-9.05
-8.89
-8.69
-8.37
-7.83
-7.09
-6.26
-5.47
-4.76
-3.95
-2.81
-1.11
1.13
3.63
5.97
7.84
9.18
10.17
11.13
12.22
13.39
14.32
14.64
14.09
12.74
10.93
9.13
7.83
7.25
7.41
8.07
8.86
9.44
9.58
9.26
8.58
7.72
6.83
5.93
4.99
3.93
2.76
1.54
0.35
-0.79
-1.89
-2.99
-4.06
-4.94
-5.50
-5.61
-5.36
-4.96
-4.74
-4.91
-5.54
-6.47
-7.39
-7.86
-7.50
-6.06
-3.60
-0.50
2.64
5.21
6.83
7.50
7.52
7.30
7.09
6.95
6.78
6.53
6.22
6.08
6.32
7.00
8.02
9.05
9.74
9.91
9.56
8.87
8.08
7.44
7.05
6.93
7.01
7.22
7.49
7.75
7.92
7.94
7.78
7.58
7.53
7.86
8.67
9.79
10.87
11.50
11.49
10.99
10.53
10.84
12.47
15.65
20.08
25.14
30.19
34.81
39.01
43.20
47.93
53.53
59.97
66.81
73.35
79.00
83.52
87.28
91.19
96.69
105.40
118.60
136.50
157.60
178.58
195.01
202.73
199.39
185.42
163.78
138.65
113.65
90.68
69.79
50.03
30.74
12.22
-4.41
-18.08
-28.73
-37.65
-47.07
-59.33
-75.93
-97.15
-122.10
-149.18
-176.44
-201.79
-223.07
-238.32
-246.37
-247.66
-244.60
-241.00
-240.53
-244.91
-252.79
-260.22
-262.42
-256.06
-240.58
-218.08
-191.71
-163.81
-135.07
-104.96
-73.24
-41.24
-11.93
11.20
25.96
32.57
33.65
32.90
33.34
36.19
40.72
45.15
47.93
48.57
47.78
46.82
46.69
47.50
48.53
48.68
47.03
43.39
38.45
33.42
29.53
27.52
27.31
28.10
28.69
27.99
25.44
21.20
16.05
11.05
7.21
5.25
5.44
7.55
11.03
15.12
19.05
22.28
24.50
25.71
26.08
25.79
24.98
23.78
22.35
20.96
19.89
19.35
19.33
19.61
19.89
19.88
19.44
18.61
17.52
16.31
15.10
13.94
12.82
11.68
10.45
9.06
7.54
6.01
4.68
3.73
3.23
3.08
3.05
2.89
2.46
1.76
0.90
0.01
-0.93
-2.02
-3.51
-5.48
-7.78
-9.96
-11.40
-11.60
-10.33
-7.80
-4.52
-1.13
1.89
4.26
5.96
7.10
7.81
8.14
8.15
7.88
7.36
6.69
5.92
5.16
4.49
4.05
3.89
3.99
4.22
4.38
4.31
3.94
3.33
2.58
1.74
0.82
-0.28
-1.55
-2.94
-4.24
-5.17
-5.46
-4.98
-3.83
-2.25
-0.68
0.45
0.74
0.01
-1.66
-3.92
-6.26
-8.19
-9.36
-9.67
-9.15
-7.89
-5.90
-3.10
0.52
4.75
9.15
13.10
16.03
17.69
18.19
17.98
17.55
17.27
17.26
17.42
17.58
17.58
17.39
16.95
16.21
15.09
13.48
11.42
8.98
6.40
3.88
1.61
-0.34
-2.01
-3.52
-4.97
-6.44
-7.86
-9.04
-9.78
-9.97
-9.71
-9.31
-9.21
-9.73
-10.93
-12.59
-14.38
-16.06
-17.60
-19.03
-20.30
-21.14
-21.04
-19.49
-16.27
-11.62
-6.20
-0.91
3.50
6.60
8.38
9.16
9.41
9.48
9.54
9.62
9.64
9.58
9.51
9.56
9.82
10.30
10.84
11.21
11.21
10.68
9.61
8.13
6.39
4.70
3.27
2.28
1.77
1.62
1.67
1.73
1.68
1.45
1.01
0.32
-0.67
-1.90
-3.22
-4.39
-5.25
-5.86
-6.50
-7.58
-9.41
-11.91
-14.58
-16.68
-17.44
-16.46
-13.82
-10.11
-6.08
-2.38
0.74
3.32
5.55
7.59
9.37
10.68
11.37
11.48
11.23
10.93
10.79
10.71
10.40
9.52
7.97
5.92
3.85
2.21
1.41
1.50
2.30
3.43
4.45
4.96
4.72
3.75
2.33
0.91
-0.03
-0.19
0.36
1.24
1.88
1.80
0.76
-1.08
-3.32
-5.51
-7.32
-8.71
-9.84
-11.05
-12.61
-14.70
-17.25
-19.98
-22.40
-23.94
-24.12
-22.69
-19.67
-15.40
-10.37
-5.12
-0.11
4.36
8.11
10.99
12.86
13.60
13.18
11.81
9.89
7.98
6.60
6.05
6.21
6.83
7.52
8.08
8.51
8.86
9.18
9.40
9.40
9.09
8.49
7.68
6.73
5.66
4.43
3.03
1.55
0.17
-0.90
-1.55
-1.80
-1.79
-1.61
-1.35
-1.00
-0.65
-0.39
-0.42
-0.94
-2.13
-4.03
-6.50
-9.23
-11.72
-13.41
-13.75
-12.46
-9.59
-5.62
-1.27
2.67
5.59
7.28
7.89
7.79
7.42
7.00
6.55
6.00
5.24
4.27
3.25
2.40
1.85
1.61
1.65
1.86
2.21
2.71
3.32
3.91
4.26
4.12
3.36
2.09
0.60
-0.80
-1.90
-2.73
-3.54
-4.65
-6.28
-8.49
-11.15
-14.02
-16.94
-19.89
-23.06
-26.69
-30.97
-35.94
-41.45
-47.34
-53.59
-60.30
-67.69
-75.89
-84.73
-93.77
-102.41
-110.11
-116.49
-121.35
-124.42
-125.21
-123.17
-117.93
-109.74
-99.58
-88.86
-78.76
-69.68
-61.13
-52.16
-42.24
-31.91
-22.85
-17.12
-16.01
-19.23
-24.90
-30.30
-33.19
-32.62
-29.16
-24.45
-20.18
-17.47
-16.67
-17.52
-19.67
-22.92
-27.25
-32.55
-38.37
-43.97
-48.51
-51.48
-53.03
-54.02
-55.67
-58.92
-63.87
-69.69
-74.98
-78.59
-80.23
-80.46
-80.16
-79.78
-78.84
-76.32
-71.42
-64.24
-55.95
-47.96
-40.90
-34.07
-25.71
-14.14
1.19
19.18
37.59
54.10
67.32
77.05
84.06
89.36
93.64
97.25
100.26
102.69
104.67
106.27
107.37
107.66
106.75
104.27
100.16
94.65
88.27
81.70
75.71
70.88
67.54
65.65
64.68
63.70
61.48
56.86
49.13
38.34
25.37
11.58
-1.72
-13.75
-24.58
-34.98
-45.97
-58.31
-72.22
-87.09
-101.57
-113.71
-121.31
-122.43
-116.06
-102.52
-83.44
-61.35
-38.95
-18.32
-0.59
14.03
25.91
35.62
43.68
50.52
56.41
61.47
65.68
68.97
71.34
73.06
74.70
76.88
80.01
83.99
88.17
91.52
93.10
92.36
89.38
84.78
79.37
73.83
68.47
63.16
57.60
51.53
44.98
38.28
31.88
26.06
20.73
15.40
9.29
1.65
-8.04
-19.78
-33.04
-46.69
-59.14
-68.54
-73.25
-72.22
-65.37
-53.71
-39.04
-23.50
-8.92
3.51
13.46
21.17
27.11
31.63
34.90
36.91
37.73
37.64
37.12
36.74
36.86
37.59
38.74
39.98
41.12
42.14
43.13
44.13
44.97
45.16
44.13
41.43
37.01
31.29
24.98
18.84
13.36
8.57
4.09
-0.66
-6.21
-12.81
-20.19
-27.59
-33.83
-37.64
-37.99
-34.50
-27.51
-18.07
-7.65
2.31
10.85
17.60
22.77
26.76
29.89
32.16
33.26
32.87
30.85
27.53
23.56
19.76
16.80
15.00
14.27
14.28
14.59
14.86
14.83
14.41
13.58
12.41
11.01
9.45
7.66
5.29
1.80
-3.43
-10.78
-20.26
-31.35
-43.11
-54.32
-63.68
-69.97
-72.19
-69.75
-62.61
-51.45
-37.57
-22.71
-8.66
3.23
12.32
18.71
23.02
26.06
28.48
30.59
32.35
33.60
34.20
34.15
33.66
32.97
32.30
31.72
31.14
30.38
29.19
27.37
24.77
21.43
17.57
13.63
10.29
8.19
7.79
8.99
10.99
12.45
11.85
8.17
1.60
-6.20
-12.21
-12.89
-5.28
11.93
37.85
69.46
102.43
132.35
155.85
171.42
179.40
181.35
179.17
174.35
167.70
159.62
150.61
141.65
134.18
129.64
128.93
131.98
137.64
143.97
148.61
149.35
144.65
134.27
119.61
103.54
89.59
80.71
78.07
80.57
85.16
88.05
86.03
77.33
61.97
41.50
18.52
-3.75
-22.06
-33.63
-36.92
-32.10
-21.04
-6.75
7.52
19.18
26.75
29.87
28.89
24.52
17.58
8.95
-0.44
-9.72
-18.24
-25.72
-32.28
-38.29
-44.05
-49.55
-54.39
-57.92
-59.60
-59.31
-57.51
-55.15
-53.26
-52.62
-53.43
-55.32
-57.62
-59.63
-60.98
-61.63
-61.84
-62.00
-62.44
-63.44
-65.12
-67.40
-69.91
-71.91
-72.49
-70.82
-66.55
-60.00
-52.17
-44.30
-37.41
-32.07
-28.14
-25.06
-22.13
-18.89
-15.22
-11.36
-7.71
-4.74
-2.76
-1.97
-2.30
-3.48
-5.10
-6.62
-7.61
-7.78
-7.03
-5.52
-3.53
-1.39
0.59
2.18
3.24
3.70
3.56
2.83
1.51
-0.49
-3.40
-7.57
-13.39
-21.03
-30.24
-40.29
-50.13
-58.76
-65.58
-70.68
-74.69
-78.46
-82.51
-86.73
-90.26
-91.60
-88.95
-80.66
-65.59
-43.53
-15.42
16.64
49.80
81.10
108.18
129.70
145.39
155.62
160.82
161.17
156.58
147.11
133.30
116.39
98.10
80.17
63.86
49.66
37.42
26.67
16.99
8.21
0.37
-6.54
-12.66
-18.30
-23.60
-28.21
-31.11
-30.93
-26.52
-17.60
-5.07
9.19
22.98
34.60
43.34
49.51
53.99
57.67
61.02
63.94
66.03
66.83
66.03
63.46
59.02
52.70
44.65
35.27
25.22
15.25
5.99
-2.37
-10.04
-17.55
-25.38
-33.74
-42.48
-51.17
-59.38
-66.86
-73.67
-80.10
-86.57
-93.42
-100.87
-108.81
-116.79
-123.98
-129.22
-131.29
-129.25
-122.87
-112.85
-100.75
-88.53
-77.93
-69.96
-64.70
-61.41
-59.06
-56.74
-53.88
-50.33
-46.12
-41.29
-35.82
-29.65
-22.80
-15.40
-7.68
0.13
7.88
15.46
22.85
29.99
36.65
42.43
46.73
48.93
48.59
45.74
40.92
35.08
29.24
24.11
19.91
16.33
12.85
9.06
4.85
0.36
-4.13
-8.29
-11.69
-13.79
-13.99
-11.81
-7.26
-0.89
6.19
12.77
17.92
21.34
23.32
24.43
25.15
25.63
25.72
25.19
23.98
22.36
20.75
19.61
19.15
19.21
19.34
19.05
18.07
16.46
14.71
13.48
13.29
14.30
16.15
18.08
19.23
18.90
16.88
13.47
9.39
5.49
2.51
0.83
0.40
0.79
1.21
0.72
-1.56
-6.14
-12.90
-20.86
-28.44
-33.89
-35.91
-34.22
-29.63
-23.74
-18.34
-14.79
-13.73
-15.21
-18.90
-24.42
-31.43
-39.54
-48.26
-56.90
-64.66
-70.84
-74.88
-76.59
-76.06
-73.81
-70.62
-67.46
-65.17
-64.25
-64.71
-66.16
-68.06
-70.01
-72.01
-74.47
-78.10
-83.71
-91.84
-102.56
-115.29
-128.68
-140.65
-148.61
-149.96
-142.73
-126.18
-101.18
-69.92
-35.26
0.09
34.33
66.68
97.01
125.25
150.85
172.73
189.70
200.94
206.40
206.75
203.03
196.18
186.85
175.47
162.50
148.62
134.77
121.92
110.73
101.44
93.88
87.62
82.36
78.00
74.76
73.01
73.04
74.82
77.84
81.07
83.20
82.92
79.42
72.56
62.96
51.66
39.75
27.94
16.44
5.11
-6.32
-17.92
-29.58
-41.08
-52.22
-62.78
-72.33
-80.06
-84.76
-85.27
-80.98
-72.32
-60.78
-48.46
-37.33
-28.67
-22.73
-19.08
-17.01
-15.98
-15.85
-16.64
-18.23
-20.24
-21.97
-22.76
-22.23
-20.52
-18.23
-16.15
-14.94
-14.88
-15.78
-17.08
-18.23
-18.94
-19.25
-19.53
-20.16
-21.27
-22.57
-23.53
-23.57
-22.38
-20.21
-17.69
-15.58
-14.46
-14.54
-15.74
-17.73
-20.05
-22.06
-22.94
-21.78
-17.92
-11.31
-2.69
6.53
14.75
20.77
24.21
25.38
25.09
24.05
22.65
20.99
19.04
16.83
14.63
12.73
11.32
10.40
9.69
8.84
7.54
5.65
3.23
0.41
-2.74
-6.24
-10.14
-14.54
-19.36
-24.41
-29.45
-34.21
-38.58
-42.60
-46.45
-50.40
-54.75
-59.67
-65.07
-70.42
-74.80
-77.02
-76.06
-71.45
-63.47
-53.09
-41.43
-29.39
-17.29
-5.05
7.50
20.20
32.38
43.17
51.80
58.04
62.14
64.58
65.71
65.50
63.58
59.60
53.61
46.18
38.40
31.51
26.47
23.65
22.74
22.83
22.66
21.00
16.98
10.41
1.89
-7.39
-16.01
-22.76
-27.09
-29.11
-29.48
-28.96
-28.07
-27.01
-25.67
-23.89
-21.61
-18.96
-16.14
-13.40
-10.88
-8.67
-6.95
-5.96
-6.01
-7.47
-10.53
-15.08
-20.72
-26.76
-32.35
-36.69
-39.20
-39.61
-37.97
-34.56
-29.80
-24.15
-18.00
-11.72
-5.63
0.02
5.02
9.20
12.44
14.69
15.90
16.17
15.68
14.77
13.89
13.41
13.52
14.14
14.87
15.21
14.76
13.50
11.87
10.78
11.25
14.05
19.31
26.37
33.97
40.62
45.04
46.50
44.92
40.74
34.69
27.60
20.29
13.43
7.44
2.47
-1.71
-5.42
-8.94
-12.32
-15.28
-17.43
-18.44
-18.24
-17.10
-15.46
-13.79
-12.44
-11.57
-11.19
-11.27
-11.80
-12.90
-14.77
-17.65
-21.71
-27.01
-33.47
-40.78
-48.58
-56.32
-63.34
-68.81
-71.81
-71.55
-67.73
-60.77
-51.77
-42.27
-33.66
-26.79
-21.73
-17.99
-14.82
-11.64
-8.19
-4.52
-0.80
2.92
6.66
10.60
14.87
19.52
24.40
29.15
33.24
36.11
37.36
36.99
35.34
33.02
30.64
28.48
26.44
24.10
20.98
16.75
11.38
5.03
-1.96
-9.12
-15.74
-20.92
-23.63
-23.06
-18.97
-11.90
-3.07
5.99
13.94
20.05
24.23
26.77
28.09
28.47
28.10
27.15
26.03
25.35
25.84
28.09
32.25
37.81
43.66
48.33
50.46
49.23
44.48
36.71
26.76
15.50
3.66
-8.10
-19.16
-28.83
-36.51
-41.90
-45.22
-47.20
-48.90
-51.26
-54.80
-59.39
-64.24
-68.08
-69.59
-67.70
-62.02
-53.03
-41.95
-30.39
-19.89
-11.45
-5.39
-1.47
0.86
2.08
2.49
2.20
1.32
0.07
-1.18
-2.06
-2.46
-2.45
-2.38
-2.54
-3.10
-4.00
-5.07
-6.15
-7.28
-8.65
-10.52
-13.07
-16.25
-19.72
-22.96
-25.44
-26.81
-27.10
-26.77
-26.70
-27.89
-31.08
-36.37
-42.86
-48.79
-52.03
-50.76
-44.29
-33.29
-19.67
-5.88
5.89
14.34
19.18
20.85
20.09
17.64
14.03
9.76
5.39
1.42
-1.74
-3.99
-5.59
-6.96
-8.52
-10.46
-12.72
-15.13
-17.55
-20.03
-22.87
-26.41
-30.87
-36.20
-41.99
-47.54
-52.08
-55.02
-56.15
-55.79
-54.71
-53.93
-54.29
-56.07
-58.69
-60.76
-60.55
-56.67
-48.68
-37.43
-24.67
-12.51
-2.62
4.26
8.28
10.15
10.78
10.91
11.06
11.62
12.87
15.07
18.33
22.62
27.76
33.47
39.45
45.36
50.83
55.42
58.69
60.29
60.09
58.23
55.17
51.52
47.84
44.51
41.60
38.87
35.93
32.40
27.91
22.37
15.95
9.30
3.64
0.45
0.97
5.66
13.83
23.75
33.27
40.59
44.77
45.95
44.85
42.30
38.85
34.71
29.98
24.88
19.75
14.95
10.71
7.10
4.10
1.88
0.70
0.83
2.23
4.34
6.21
6.79
5.43
2.15
-2.43
-7.45
-12.18
-16.38
-20.24
-24.18
-28.62
-33.89
-40.03
-46.72
-53.19
-58.13
-59.87
-56.94
-48.64
-35.51
-19.34
-2.61
12.27
23.74
31.32
35.41
36.72
35.93
33.45
29.60
24.86
19.90
15.46
12.12
10.03
8.91
8.17
7.23
5.74
3.66
1.18
-1.39
-3.96
-6.66
-9.86
-13.97
-19.22
-25.52
-32.38
-39.13
-45.22
-50.33
-54.58
-58.34
-62.16
-66.52
-71.77
-77.95
-84.63
-90.71
-94.57
-94.36
-88.79
-77.68
-62.22
-44.67
-27.54
-12.79
-1.26
7.20
13.40
18.15
22.06
25.48
28.76
32.39
36.96
42.85
49.96
57.58
64.70
70.37
74.07
75.90
76.48
76.55
76.58
76.63
76.29
74.93
71.87
66.69
59.17
49.44
37.91
25.17
11.94
-1.19
-13.85
-25.95
-37.49
-48.19
-57.25
-63.30
-64.82
-60.71
-50.90
-36.59
-19.94
-3.34
11.32
23.18
32.39
39.66
45.61
50.32
53.36
54.12
52.30
48.19
42.62
36.63
30.95
25.77
20.75
15.26
8.80
1.14
-7.55
-16.96
-26.65
-36.31
-45.70
-54.70
-63.30
-71.53
-79.45
-87.09
-94.45
-101.53
-108.43
-115.12
-121.43
-126.84
-130.69
-132.38
-131.83
-129.54
-126.38
-123.15
-120.01
-116.45
-111.55
-104.50
-95.14
-84.03
-72.26
-60.93
-50.84
-42.24
-34.54
-26.29
-15.18
1.42
25.54
57.50
95.22
134.32
169.37
195.78
211.52
217.84
218.71
219.38
224.53
236.87
256.45
280.57
304.50
322.38
328.61
319.31
293.51
253.50
204.31
152.18
102.90
60.47
26.70
1.75
-15.06
-24.65
-28.08
-26.68
-22.30
-17.03
-12.71
-10.34
-9.88
-10.41
-10.85
-10.52
-9.47
-8.39
-8.14
-9.35
-12.12
-15.99
-20.25
-24.20
-27.41
-29.64
-30.90
-31.17
-30.49
-28.89
-26.50
-23.56
-20.31
-16.99
-13.76
-10.82
-8.45
-7.11
-7.29
-9.36
-13.40
-19.26
-26.69
-35.46
-45.35
-55.82
-65.71
-73.29
-76.66
-74.56
-66.94
-55.19
-41.61
-28.63
-17.97
-10.32
-5.46
-2.77
-1.64
-1.71
-2.74
-4.44
-6.38
-8.07
-9.15
-9.52
-9.37
-8.97
-8.59
-8.30
-8.05
-7.76
-7.50
-7.54
-8.22
-9.88
-12.57
-16.01
-19.64
-22.87
-25.29
-26.81
-27.71
-28.43
-29.58
-31.63
-34.87
-39.14
-43.63
-46.93
-47.31
-43.40
-34.82
-22.56
-8.74
4.18
14.26
20.72
23.97
25.04
24.98
24.31
23.07
21.03
18.05
14.21
9.84
5.29
0.86
-3.31
-7.13
-10.57
-13.49
-15.70
-16.99
-17.17
-16.28
-14.68
-13.04
-12.16
-12.71
-14.86
-18.15
-21.70
-24.52
-25.96
-25.93
-24.99
-24.00
-23.91
-25.37
-28.58
-33.10
-37.85
-41.27
-41.66
-37.76
-29.27
-17.06
-2.99
10.69
22.00
29.82
33.95
34.94
33.56
30.58
26.55
21.99
17.42
13.39
10.33
8.42
7.50
7.17
6.97
6.51
5.74
4.80
3.98
3.44
3.12
2.72
1.81
0.07
-2.57
-5.93
-9.63
-13.31
-16.73
-19.85
-22.72
-25.42
-28.08
-30.91
-34.04
-37.42
-40.59
-42.67
-42.68
-39.92
-34.48
-27.31
-19.93
-13.92
-10.27
-9.15
-10.09
-12.36
-15.36
-18.70
-22.07
-25.14
-27.48
-28.82
-29.20
-28.99
-28.75
-28.83
-29.22
-29.53
-29.23
-28.04
-26.16
-24.13
-22.68
-22.32
-23.18
-25.01
-27.28
-29.35
-30.53
-30.30
-28.26
-24.30
-18.71
-12.18
-5.70
-0.26
3.45
5.42
6.41
7.84
11.26
17.73
27.36
39.12
51.24
61.83
69.54
73.99
75.70
75.66
74.77
73.59
72.29
70.87
69.46
68.35
67.84
68.14
69.14
70.46
71.62
72.26
72.28
71.81
71.10
70.28
69.22
67.59
64.97
61.11
56.04
50.19
44.20
38.77
34.39
31.18
28.91
27.01
24.84
21.83
17.68
12.59
7.27
2.88
0.61
1.31
5.01
10.84
17.20
22.42
25.35
25.79
24.45
22.44
20.65
19.39
18.38
17.04
14.89
11.89
8.35
4.76
1.54
-1.18
-3.52
-5.81
-8.45
-11.73
-15.71
-20.24
-24.90
-29.15
-32.59
-35.07
-36.77
-38.08
-39.40
-40.88
-42.37
-43.58
-44.29
-44.60
-44.96
-45.95
-48.06
-51.44
-55.92
-61.08
-66.27
-70.62
-73.02
-72.29
-67.48
-58.39
-45.95
-32.09
-19.17
-9.16
-2.98
-0.31
0.00
-0.72
-1.63
-2.52
-3.64
-5.30
-7.59
-10.29
-13.00
-15.41
-17.41
-19.03
-20.31
-21.14
-21.25
-20.28
-18.02
-14.51
-10.10
-5.40
-0.95
2.79
5.59
7.38
8.16
7.99
7.06
5.65
4.13
2.84
1.88
1.03
-0.17
-2.27
-5.70
-10.55
-16.50
-22.73
-27.98
-30.88
-30.27
-25.64
-17.40
-6.86
4.19
14.02
21.49
26.24
28.57
29.03
28.11
26.13
23.32
19.99
16.61
13.76
11.97
11.48
12.15
13.40
14.46
14.62
13.53
11.41
8.90
6.75
5.42
4.88
4.58
3.84
2.20
-0.32
-3.23
-5.88
-7.73
-8.63
-8.73
-8.45
-8.17
-8.23
-8.80
-9.95
-11.64
-13.62
-15.35
-15.96
-14.42
-9.92
-2.26
7.89
19.09
29.56
37.74
42.69
44.28
42.94
39.31
34.02
27.57
20.51
13.55
7.48
2.98
0.33
-0.73
-0.91
-1.08
-1.93
-3.71
-6.22
-8.94
-11.38
-13.28
-14.71
-16.02
-17.65
-19.87
-22.74
-26.09
-29.64
-33.05
-36.03
-38.44
-40.30
-41.94
-43.89
-46.73
-50.67
-55.28
-59.31
-61.04
-58.89
-52.13
-41.25
-27.86
-14.12
-1.93
7.59
14.25
18.51
20.92
21.81
21.23
19.13
15.79
11.87
8.40
6.27
5.95
7.18
9.19
10.99
11.91
11.81
11.11
10.44
10.28
10.65
11.05
10.77
9.20
6.04
1.45
-4.03
-9.69
-14.83
-18.97
-21.95
-23.97
-25.48
-27.08
-29.36
-32.67
-37.05
-42.02
-46.56
-49.28
-48.76
-44.00
-34.98
-22.70
-8.94
4.29
15.48
23.98
29.94
33.91
36.42
37.69
37.71
36.46
34.13
31.22
28.39
26.19
24.85
24.23
23.91
23.37
22.25
20.50
18.42
16.49
15.11
14.40
14.12
13.79
12.94
11.25
8.71
5.61
2.40
-0.53
-2.95
-4.95
-6.87
-9.15
-12.20
-16.27
-21.41
-27.53
-34.45
-41.77
-48.68
-53.91
-55.93
-53.44
-46.01
-34.44
-20.59
-6.79
4.94
13.54
18.95
21.85
23.12
23.44
23.16
22.47
21.54
20.66
20.17
20.34
21.18
22.41
23.56
24.16
24.01
23.30
22.56
22.41
23.14
24.57
26.04
26.72
25.99
23.67
20.13
16.08
12.23
9.04
6.55
4.50
2.49
0.22
-2.38
-5.17
-7.98
-10.63
-13.03
-15.23
-17.33
-19.56
-22.31
-26.06
-31.22
-37.79
-45.13
-51.76
-55.76
-55.26
-49.25
-38.00
-23.05
-6.75
8.55
21.09
30.22
36.14
39.73
42.01
43.69
45.07
46.07
46.49
46.23
45.43
44.40
43.47
42.86
42.53
42.31
41.96
41.41
40.72
40.13
39.75
39.46
38.86
37.32
34.32
29.63
23.59
17.00
10.95
6.32
3.51
2.25
1.71
0.92
-0.86
-3.82
-7.59
-11.44
-14.74
-17.10
-18.55
-19.45
-20.26
-21.41
-23.21
-25.82
-29.24
-33.19
-37.08
-39.92
-40.62
-38.28
-32.64
-24.24
-14.33
-4.43
4.27
11.18
16.42
20.46
23.74
26.33
27.99
28.42
27.48
25.39
22.60
19.59
16.72
14.15
11.92
10.00
8.39
7.08
6.03
5.11
4.13
2.87
1.11
-1.38
-4.76
-9.02
-13.88
-18.71
-22.66
-24.97
-25.26
-23.78
-21.30
-18.87
-17.47
-17.67
-19.62
-23.21
-28.14
-33.92
-39.80
-44.63
-46.99
-45.59
-39.85
-30.19
-17.96
-5.11
6.56
15.81
22.16
25.68
26.74
25.72
23.04
19.18
14.78
10.62
7.38
5.47
4.97
5.58
6.84
8.25
9.44
10.22
10.57
10.49
9.98
8.91
7.07
4.24
0.37
-4.31
-9.34
-14.15
-18.29
-21.56
-24.11
-26.30
-28.67
-31.71
-35.71
-40.63
-45.89
-50.42
-52.84
-51.82
-46.64
-37.52
-25.62
-12.69
-0.48
9.82
17.74
23.42
27.23
29.48
30.35
29.92
28.45
26.35
24.24
22.62
21.68
21.27
20.95
20.29
18.99
17.08
14.84
12.60
10.49
8.34
5.72
2.11
-2.81
-8.99
-15.97
-23.06
-29.58
-35.21
-40.08
-44.71
-49.93
-56.55
-65.22
-76.20
-89.07
-102.65
-115.06
-124.15
-128.11
-126.22
-119.11
-108.70
-97.46
-87.66
-80.65
-76.75
-75.55
-76.37
-78.80
-82.71
-88.12
-94.98
-103.01
-111.73
-120.73
-129.80
-138.99
-148.45
-158.11
-167.56
-175.89
-181.80
-183.92
-180.94
-171.87
-156.11
-133.65
-105.15
-71.99
-36.28
-0.55
32.67
61.26
83.77
99.48
108.20
110.20
106.18
97.39
85.58
72.81
60.85
50.83
43.08
37.49
34.12
33.60
36.92
44.70
56.54
70.75
84.84
96.56
104.78
109.78
112.74
114.96
117.16
119.41
121.38
122.85
123.83
124.41
124.59
124.10
122.47
119.34
114.71
109.04
103.20
98.19
94.85
93.56
94.06
95.49
96.56
95.97
92.78
86.68
78.10
68.06
57.82
48.54
40.98
35.39
31.56
28.96
26.97
25.06
22.74
19.70
15.80
11.22
6.48
2.36
-0.50
-2.06
-3.13
-5.23
-9.88
-17.68
-27.75
-37.64
-44.23
-45.01
-39.17
-27.97
-14.21
-1.08
9.06
15.35
18.40
19.60
20.31
21.25
22.29
22.84
22.24
20.22
16.91
12.78
8.27
3.71
-0.80
-5.22
-9.31
-12.49
-13.94
-12.85
-8.91
-2.65
4.55
10.97
15.17
16.68
16.23
15.38
15.77
18.35
23.05
28.85
34.35
38.35
40.22
39.86
37.51
33.44
27.94
21.31
14.02
6.75
0.21
-5.00
-8.53
-10.44
-10.99
-10.71
-10.23
-10.29
-11.61
-14.69
-19.56
-25.41
-30.68
-33.41
-31.96
-25.77
-15.59
-3.23
9.21
20.01
28.33
34.09
37.67
39.52
40.11
39.90
39.41
39.16
39.42
40.15
41.07
41.94
42.79
43.85
45.28
46.80
47.61
46.66
43.18
37.13
29.37
21.30
14.43
9.76
7.56
7.39
8.39
9.76
11.03
12.26
13.91
16.41
19.85
23.71
27.05
28.76
28.14
25.17
20.47
15.02
9.71
4.95
0.58
-4.01
-9.67
-17.10
-26.75
-38.60
-52.09
-66.01
-78.64
-88.01
-92.41
-91.02
-84.35
-74.34
-63.79
-55.38
-50.39
-48.01
-45.48
-39.25
-26.74
-7.66
15.67
39.15
58.64
71.44
77.05
76.89
73.31
68.58
64.36
61.69
61.30
63.66
68.96
76.94
86.76
97.33
107.67
117.20
125.92
134.17
142.24
150.03
156.85
161.50
162.63
159.16
150.68
137.62
121.23
103.33
85.83
70.34
57.73
47.96
40.09
32.67
24.27
14.03
2.01
-11.01
-23.87
-35.55
-45.38
-53.10
-58.66
-62.13
-63.68
-63.76
-63.02
-62.27
-62.04
-62.38
-62.79
-62.57
-61.16
-58.48
-54.98
-51.39
-48.37
-46.32
-45.20
-44.71
-44.44
-44.02
-43.24
-42.09
-40.74
-39.36
-38.17
-37.26
-36.64
-36.24
-35.98
-35.82
-35.71
-35.60
-35.34
-34.71
-33.51
-31.69
-29.48
-27.45
-26.29
-26.51
-28.12
-30.59
-32.95
-34.28
-34.07
-32.43
-29.97
-27.51
-25.68
-24.76
-24.74
-25.50
-26.91
-28.80
-30.74
-31.90
-31.27
-27.98
-21.81
-13.45
-4.39
3.66
9.42
12.50
13.35
12.93
12.12
11.33
10.55
9.55
8.24
6.79
5.55
4.87
4.84
5.35
6.15
7.06
7.94
8.59
8.64
7.57
4.92
0.62
-4.82
-10.39
-14.91
-17.49
-17.96
-16.90
-15.35
-14.37
-14.57
-15.94
-17.98
-19.93
-21.21
-21.63
-21.43
-21.10
-21.19
-22.06
-23.81
-26.22
-28.82
-30.94
-31.78
-30.63
-27.08
-21.17
-13.57
-5.38
2.12
7.91
11.42
12.68
12.09
10.23
7.63
4.68
1.72
-1.03
-3.29
-4.89
-5.75
-5.97
-5.74
-5.32
-4.90
-4.56
-4.30
-4.05
-3.81
-3.62
-3.57
-3.74
-4.12
-4.64
-5.23
-5.88
-6.60
-7.50
-8.69
-10.15
-11.79
-13.42
-14.80
-15.75
-16.20
-16.25
-16.18
-16.43
-17.35
-19.07
-21.14
-22.63
-22.33
-19.26
-13.06
-4.35
5.57
15.06
22.84
28.34
31.79
33.83
35.19
36.24
37.04
37.46
37.45
37.15
36.94
37.20
38.21
40.04
42.53
45.38
48.28
50.92
53.06
54.53
55.16
54.86
53.58
51.30
48.11
44.10
39.32
33.68
27.00
19.16
10.27
0.76
-8.62
-17.00
-23.76
-28.71
-32.13
-34.63
-36.83
-39.14
-41.61
-43.87
-45.21
-44.77
-41.82
-36.06
-27.87
-18.36
-8.99
-1.22
3.97
6.32
6.14
4.13
1.03
-2.49
-5.89
-8.71
-10.51
-11.02
-10.18
-8.23
-5.59
-2.75
-0.04
2.47
5.03
8.03
11.84
16.49
21.65
26.61
30.54
32.83
33.22
32.01
29.79
27.20
24.65
22.15
19.34
15.72
10.90
4.84
-2.09
-9.22
-15.88
-21.59
-26.26
-30.13
-33.60
-37.04
-40.67
-44.37
-47.78
-50.29
-51.23
-50.03
-46.44
-40.66
-33.33
-25.43
-17.88
-11.32
-5.95
-1.67
1.67
4.01
4.99
4.19
1.33
-3.44
-9.52
-16.03
-22.04
-26.78
-29.78
-30.95
-30.54
-29.04
-27.06
-25.22
-23.91
-23.35
-23.54
-24.28
-25.34
-26.42
-27.22
-27.43
-26.87
-25.57
-23.79
-22.06
-20.91
-20.70
-21.40
-22.60
-23.68
-24.10
-23.69
-22.69
-21.71
-21.47
-22.50
-24.93
-28.32
-31.69
-33.65
-32.84
-28.38
-20.28
-9.53
2.08
12.60
20.51
25.09
26.59
25.84
23.83
21.33
18.69
16.07
13.54
11.33
9.77
9.16
9.63
10.98
12.81
14.65
16.16
17.17
17.64
17.50
16.64
14.85
11.94
7.93
3.10
-2.05
-6.86
-10.80
-13.64
-15.43
-16.57
-17.54
-18.75
-20.33
-22.13
-23.87
-25.25
-26.18
-26.80
-27.46
-28.58
-30.56
-33.59
-37.42
-41.33
-44.08
-44.23
-40.62
-32.86
-21.62
-8.45
4.68
16.04
24.67
30.43
33.77
35.34
35.65
34.94
33.39
31.22
28.78
26.56
24.91
23.98
23.60
23.41
22.98
22.01
20.40
18.40
16.40
14.77
13.68
12.92
12.06
10.62
8.42
5.67
2.90
0.57
-1.21
-2.75
-4.70
-7.59
-11.57
-16.17
-20.66
-24.26
-26.56
-27.59
-27.72
-27.54
-27.62
-28.55
-30.76
-34.47
-39.35
-44.38
-47.92
-48.24
-44.14
-35.54
-23.63
-10.45
1.89
11.88
18.95
23.31
25.58
26.35
26.00
24.75
22.87
20.77
18.96
17.93
17.87
18.71
20.04
21.31
21.99
21.81
20.78
19.16
17.29
15.38
13.42
11.17
8.39
5.00
1.24
-2.44
-5.57
-7.89
-9.54
-10.95
-12.63
-14.93
-17.78
-20.83
-23.57
-25.62
-26.92
-27.75
-28.59
-29.97
-32.27
-35.64
-39.91
-44.51
-48.34
-49.99
-48.08
-41.77
-31.25
-17.86
-3.75
8.79
18.04
23.37
25.18
24.51
22.50
20.04
17.58
15.36
13.51
12.22
11.63
11.77
12.49
13.46
14.34
14.93
15.26
15.51
15.83
16.17
16.24
15.61
13.95
11.16
7.57
3.76
0.33
-2.34
-4.25
-5.71
-7.18
-8.99
-11.19
-13.50
-15.47
-16.76
-17.26
-17.25
-17.26
-17.90
-19.76
-23.22
-28.34
-34.69
-41.17
-46.14
-47.76
-44.55
-36.12
-23.38
-8.31
6.70
19.59
29.32
35.81
39.67
41.66
42.33
41.95
40.72
38.98
37.30
36.28
36.29
37.29
38.78
40.00
40.24
39.20
37.08
34.45
31.94
29.94
28.29
26.49
23.86
19.99
14.99
9.45
4.21
-0.05
-3.13
-5.43
-7.66
-10.48
-14.12
-18.29
-22.29
-25.47
-27.51
-28.61
-29.31
-30.22
-31.91
-34.73
-38.85
-44.11
-49.88
-54.82
-57.07
-54.84
-47.14
-34.45
-18.73
-2.77
10.86
20.71
26.72
29.81
31.19
31.70
31.60
30.85
29.47
27.76
26.26
25.48
25.58
26.31
27.18
27.64
27.45
26.64
25.56
24.58
23.86
23.22
22.10
19.93
16.38
11.70
6.58
1.96
-1.44
-3.43
-4.48
-5.44
-7.19
-10.14
-14.12
-18.50
-22.42
-25.27
-26.91
-27.72
-28.49
-30.16
-33.56
-39.13
-46.67
-55.21
-63.00
-67.93
-67.99
-62.13
-50.58
-35.05
-18.10
-2.35
10.31
19.12
24.35
26.83
27.41
26.73
25.17
23.14
21.13
19.72
19.35
20.08
21.62
23.39
24.81
25.58
25.72
25.46
25.04
24.53
23.79
22.55
20.59
17.83
14.39
10.53
6.53
2.62
-1.07
-4.59
-8.07
-11.65
-15.39
-19.14
-22.63
-25.57
-27.82
-29.45
-30.89
-32.66
-35.35
-39.43
-44.94
-51.28
-57.04
-60.16
-58.58
-51.07
-37.89
-20.96
-3.24
12.38
24.05
31.43
35.41
37.29
38.05
38.02
37.10
35.20
32.63
30.09
28.36
28.03
29.19
31.43
34.03
36.24
37.49
37.51
36.29
33.96
30.65
26.44
21.39
15.64
9.52
3.53
-1.73
-5.86
-8.80
-10.86
-12.61
-14.53
-16.83
-19.41
-21.94
-24.13
-25.93
-27.63
-29.81
-33.12
-38.04
-44.63
-52.18
-59.23
-63.70
-63.57
-57.54
-45.72
-29.68
-12.02
4.53
17.94
27.36
33.03
35.74
36.36
35.48
33.49
30.77
27.83
25.27
23.61
23.07
23.53
24.63
25.89
26.85
27.21
26.84
25.74
24.00
21.82
19.35
16.74
14.01
11.07
7.77
4.00
-0.26
-4.91
-9.74
-14.48
-18.95
-23.13
-27.12
-31.16
-35.50
-40.35
-45.87
-52.01
-58.40
-64.12
-67.77
-67.65
-62.39
-51.56
-36.10
-18.22
-0.78
13.70
23.75
29.27
31.19
30.82
29.18
26.72
23.52
19.64
15.42
11.52
8.69
7.42
7.70
8.94
10.28
10.86
10.20
8.36
5.79
3.14
0.96
-0.55
-1.60
-2.66
-4.28
-6.85
-10.50
-14.93
-19.61
-23.93
-27.50
-30.26
-32.55
-34.96
-38.14
-42.65
-48.88
-56.98
-66.52
-76.34
-84.43
-88.30
-85.77
-75.90
-59.63
-39.59
-19.26
-1.74
11.22
19.48
24.09
26.40
27.46
27.69
27.16
25.92
24.33
22.93
22.34
22.92
24.66
27.14
29.80
32.03
33.46
33.95
33.55
32.45
30.84
28.80
26.32
23.24
19.39
14.65
9.12
3.12
-2.89
-8.47
-13.35
-17.54
-21.26
-24.85
-28.65
-33.02
-38.40
-45.19
-53.51
-62.79
-71.43
-77.08
-77.21
-70.23
-56.25
-37.19
-16.22
3.41
19.38
30.88
38.38
42.97
45.68
47.11
47.47
46.86
45.55
43.98
42.65
41.91
41.80
42.05
42.28
42.19
41.68
40.84
39.87
38.91
37.90
36.64
34.91
32.57
29.70
26.50
23.11
19.53
15.58
10.99
5.62
-0.36
-6.52
-12.30
-17.26
-21.29
-24.64
-27.92
-31.97
-37.56
-45.14
-54.35
-63.77
-71.04
-73.40
-68.75
-56.55
-38.30
-17.11
3.34
20.13
31.90
39.00
42.76
44.63
45.49
45.61
44.95
43.63
42.11
41.05
40.93
41.81
43.24
44.59
45.31
45.23
44.53
43.56
42.56
41.41
39.76
37.24
33.68
29.29
24.57
20.11
16.26
12.97
9.80
6.17
1.61
-3.91
-10.06
-16.17
-21.66
-26.21
-29.96
-33.47
-37.56
-43.06
-50.40
-59.26
-68.30
-75.31
-77.73
-73.50
-61.96
-44.22
-22.98
-1.61
16.86
30.63
39.34
43.76
45.11
44.52
42.70
40.03
36.87
33.73
31.32
30.36
31.24
33.81
37.36
40.90
43.51
44.69
44.46
43.23
41.50
39.60
37.63
35.51
33.15
30.51
27.56
24.17
20.14
15.27
9.59
3.46
-2.53
-7.82
-12.21
-16.02
-20.04
-25.27
-32.58
-42.35
-54.18
-66.70
-77.58
-83.98
-83.37
-74.42
-57.75
-35.89
-12.54
8.65
25.21
36.30
42.43
44.81
44.61
42.69
39.64
36.09
32.72
30.17
28.74
28.33
28.46
28.55
28.21
27.36
26.19
24.98
23.96
23.10
22.15
20.71
18.41
15.13
11.07
6.76
2.77
-0.52
-3.22
-5.83
-8.99
-13.14
-18.21
-23.65
-28.70
-32.82
-35.90
-38.42
-41.23
-45.35
-51.61
-60.24
-70.56
-80.79
-88.24
-89.96
-83.84
-69.60
-49.08
-25.88
-4.10
13.04
24.17
29.84
31.94
32.62
33.40
34.95
37.20
39.86
42.75
45.91
49.41
53.04
56.26
58.29
58.54
56.95
54.07
50.89
48.37
46.89
46.11
45.13
42.93
38.88
33.03
26.12
19.26
13.44
9.09
5.92
3.01
-0.74
-6.12
-13.21
-21.38
-29.55
-36.67
-42.22
-46.40
-50.01
-54.15
-59.88
-67.90
-78.06
-89.29
-99.34
-105.37
-104.59
-95.41
-78.21
-55.35
-30.53
-7.50
11.13
24.52
33.37
39.18
43.31
46.49
48.84
50.24
50.68
50.47
50.12
50.09
50.56
51.41
52.21
52.51
52.07
50.94
49.40
47.90
46.71
45.72
44.50
42.37
38.76
33.53
27.11
20.38
14.37
9.84
6.88
4.92
2.97
-0.00
-4.57
-10.68
-17.64
-24.56
-30.67
-35.60
-39.47
-42.72
-45.87
-49.43
-53.93
-59.85
-67.39
-76.12
-84.61
-90.46
-90.96
-84.11
-69.54
-48.98
-25.67
-3.27
15.37
28.90
37.51
42.29
44.47
44.94
44.13
42.25
39.65
36.89
34.68
33.59
33.77
34.86
36.18
36.97
36.84
35.87
34.49
33.17
32.06
30.83
28.84
25.49
20.63
14.69
8.59
3.27
-0.67
-3.27
-5.15
-7.18
-10.04
-13.90
-18.38
-22.71
-26.20
-28.57
-30.11
-31.58
-33.93
-38.02
-44.27
-52.47
-61.52
-69.46
-73.85
-72.41
-63.91
-48.80
-29.23
-8.38
10.55
25.36
35.33
41.04
43.71
44.48
44.05
42.68
40.52
37.87
35.30
33.36
32.44
32.52
33.20
33.90
34.09
33.59
32.50
31.06
29.44
27.49
24.76
20.81
15.42
8.90
2.01
-4.30
-9.35
-13.02
-15.86
-18.76
-22.51
-27.27
-32.57
-37.49
-41.18
-43.36
-44.44
-45.43
-47.43
-51.34
-57.42
-65.24
-73.54
-80.40
-83.50
-80.74
-71.01
-54.73
-33.96
-11.83
8.39
24.35
35.14
41.22
43.89
44.56
44.33
43.85
43.48
43.51
44.16
45.53
47.44
49.45
50.94
51.45
50.88
49.58
48.12
46.97
46.20
45.30
43.47
40.00
34.74
28.15
21.24
15.01
10.01
6.14
2.68
-1.26
-6.25
-12.24
-18.57
-24.25
-28.41
-30.73
-31.55
-31.73
-32.36
-34.43
-38.59
-44.85
-52.35
-59.32
-63.28
-61.78
-53.34
-38.15
-18.28
2.92
22.04
36.63
45.90
50.45
51.69
50.96
49.17
46.78
44.06
41.40
39.28
38.19
38.34
39.59
41.39
43.06
44.04
44.15
43.57
42.77
42.17
41.93
41.75
41.11
39.48
36.62
32.73
28.28
23.80
19.52
15.27
10.57
5.00
-1.44
-8.32
-14.82
-20.17
-24.03
-26.68
-28.90
-31.70
-35.97
-42.25
-50.53
-60.13
-69.52
-76.48
-78.57
-73.95
-62.28
-45.11
-25.55
-7.18
7.16
16.26
20.55
21.50
20.64
19.00
16.96
14.68
12.44
10.81
10.38
11.40
13.62
16.34
18.77
20.41
21.17
21.34
21.22
20.89
20.11
18.40
15.38
10.99
5.67
0.16
-4.71
-8.36
-10.82
-12.65
-14.75
-17.89
-22.39
-27.90
-33.60
-38.56
-42.20
-44.50
-46.01
-47.61
-50.19
-54.43
-60.47
-67.60
-74.19
-77.79
-75.84
-66.58
-49.99
-28.10
-4.44
17.06
33.44
43.55
47.97
48.30
46.21
42.78
38.46
33.37
27.77
22.24
17.55
14.36
12.94
13.04
14.01
14.96
15.08
13.80
10.98
6.90
2.12
-2.68
-7.07
-10.92
-14.53
-18.27
-22.34
-26.51
-30.17
-32.60
-33.43
-32.86
-31.76
-31.25
-32.22
-35.09
-39.73
-45.66
-52.19
-58.29
-62.48
-62.86
-57.63
-45.85
-28.20
-7.09
13.99
31.67
43.83
50.11
51.63
50.05
46.74
42.33
36.91
30.58
23.78
17.44
12.62
10.04
9.70
10.84
12.25
12.86
12.11
10.17
7.73
5.61
4.27
3.55
2.78
1.11
-1.98
-6.38
-11.36
-15.90
-19.14
-20.72
-20.95
-20.60
-20.68
-22.11
-25.58
-31.50
-39.83
-49.87
-60.04
-67.94
-70.91
-66.94
-55.63
-38.54
-18.78
0.04
15.11
25.20
30.63
32.68
32.69
31.40
28.92
25.19
20.45
15.56
11.65
9.77
10.28
12.70
15.87
18.43
19.35
18.34
15.85
12.70
9.71
7.20
4.92
2.19
-1.71
-7.13
-13.84
-21.05
-27.72
-32.95
-36.37
-38.20
-39.20
-40.31
-42.44
-46.25
-52.02
-59.46
-67.51
-74.24
-77.25
-74.32
-64.34
-48.01
-27.72
-6.79
11.65
25.73
35.16
40.86
44.10
45.78
46.20
45.19
42.71
39.19
35.47
32.53
31.09
31.23
32.45
33.92
34.77
34.44
32.85
30.25
27.06
23.69
20.34
16.99
13.41
9.29
4.44
-1.13
-7.09
-12.92
-18.08
-22.28
-25.60
-28.41
-31.27
-34.64
-38.87
-44.16
-50.64
-58.16
-66.10
-72.97
-76.70
-75.14
-67.01
-52.62
-33.98
-14.17
3.81
17.91
27.55
33.32
36.26
37.31
36.99
35.62
33.55
31.31
29.56
28.77
29.03
30.06
31.37
32.45
33.00
33.00
32.57
31.86
30.83
29.25
26.74
23.07
18.37
13.20
8.32
4.40
1.66
-0.30
-2.28
-5.07
-9.03
-13.88
-18.91
-23.32
-26.65
-28.95
-30.78
-32.98
-36.39
-41.71
-49.12
-58.03
-66.92
-73.43
-74.97
-69.62
-57.01
-38.59
-17.25
3.66
21.48
34.84
43.77
49.08
51.68
52.26
51.17
48.73
45.48
42.19
39.63
38.34
38.37
39.31
40.47
41.17
41.02
39.98
38.35
36.50
34.65
32.67
30.15
26.63
21.90
16.20
10.23
4.82
0.55
-2.52
-4.94
-7.46
-10.72
-14.88
-19.56
-24.09
-27.88
-30.72
-32.84
-34.85
-37.48
-41.45
-47.22
-54.77
-63.22
-70.75
-74.91
-73.31
-64.58
-49.11
-29.08
-7.75
11.66
26.97
37.50
43.76
46.81
47.55
46.46
43.77
39.81
35.22
30.92
27.79
26.31
26.49
27.81
29.50
30.86
31.39
30.92
29.51
27.29
24.43
21.08
17.38
13.46
9.43
5.32
1.14
-3.20
-7.70
-12.29
-16.81
-21.02
-24.73
-27.86
-30.55
-33.09
-35.96
-39.75
-45.01
-51.88
-59.77
-67.07
-71.46
-70.52
-62.70
-48.17
-28.89
-8.08
11.02
26.17
36.64
43.02
46.49
48.02
48.08
46.78
44.22
40.81
37.30
34.47
32.82
32.42
32.90
33.65
34.09
33.84
32.71
30.75
28.08
24.84
21.14
17.05
12.62
7.96
3.15
-1.72
-6.54
-11.21
-15.69
-19.90
-23.78
-27.31
-30.51
-33.50
-36.49
-39.77
-43.77
-49.03
-56.09
-65.13
-75.50
-85.39
-92.12
-92.82
-85.58
-70.37
-49.25
-25.68
-3.34
15.11
28.66
37.75
43.53
47.11
49.12
49.86
49.54
48.54
47.46
46.88
47.04
47.82
48.77
49.36
49.27
48.47
47.19
45.66
43.94
41.84
39.00
35.14
30.21
24.52
18.57
12.93
7.95
3.68
-0.07
-3.68
-7.56
-11.97
-16.93
-22.19
-27.29
-31.80
-35.54
-38.73
-41.97
-46.13
-52.04
-60.07
-69.76
-79.61
-87.26
-90.02
-85.87
-74.22
-56.32
-34.91
-13.25
5.95
21.27
32.63
40.81
46.71
50.85
53.39
54.36
53.98
52.80
51.52
50.65
50.40
50.57
50.72
50.40
49.35
47.63
45.51
43.44
41.69
40.27
38.90
37.05
34.26
30.29
25.28
19.69
14.15
9.26
5.33
2.34
-0.10
-2.58
-5.73
-9.98
-15.33
-21.35
-27.30
-32.42
-36.26
-38.86
-40.77
-42.78
-45.72
-50.26
-56.77
-65.17
-74.66
-83.57
-89.47
-89.73
-82.43
-67.28
-45.90
-21.54
2.02
21.71
35.94
44.76
49.34
51.18
51.47
50.85
49.65
48.07
46.45
45.27
44.96
45.65
47.08
48.66
49.67
49.61
48.36
46.20
43.65
41.15
38.86
36.62
34.02
30.69
26.46
21.47
16.14
10.99
6.51
3.00
0.52
-1.16
-2.49
-4.05
-6.41
-9.89
-14.46
-19.69
-24.92
-29.48
-32.98
-35.50
-37.53
-39.89
-43.47
-49.01
-56.81
-66.42
-76.41
-84.41
-87.60
-83.62
-71.57
-52.52
-29.35
-5.82
14.68
30.12
40.16
45.68
48.02
48.29
47.14
44.88
41.83
38.53
35.60
33.65
32.97
33.49
34.81
36.31
37.45
37.90
37.62
36.81
35.79
34.82
33.96
33.03
31.67
29.49
26.28
22.10
17.29
12.41
7.96
4.24
1.23
-1.44
-4.26
-7.67
-11.84
-16.52
-21.22
-25.41
-28.74
-31.27
-33.43
-35.85
-39.23
-44.15
-50.89
-59.26
-68.41
-76.64
-81.70
-81.28
-73.86
-59.45
-39.72
-17.60
3.73
21.77
35.32
44.43
49.84
52.43
52.86
51.57
49.02
45.84
42.84
40.75
39.97
40.38
41.49
42.54
42.93
42.43
41.16
39.47
37.74
36.04
34.19
31.87
28.82
25.07
20.96
17.00
13.60
10.85
8.43
5.74
2.26
-2.26
-7.60
-13.22
-18.48
-22.95
-26.50
-29.39
-32.05
-35.09
-39.11
-44.46
-50.91
-57.39
-61.86
-61.91
-55.61
-42.43
-23.83
-2.90
16.70
32.04
41.78
46.29
46.96
45.32
42.37
38.47
33.77
28.59
23.62
19.74
17.65
17.60
19.23
21.65
23.83
24.85
24.21
21.87
18.20
13.76
9.11
4.61
0.39
-3.60
-7.61
-11.92
-16.73
-22.18
-28.12
-34.23
-40.03
-45.07
-49.08
-52.10
-54.50
-56.90
-60.08
-64.76
-71.26
-79.16
-87.00
-92.32
-92.32
-84.94
-69.75
-48.53
-24.62
-1.87
16.73
29.88
37.91
42.14
43.97
44.34
43.59
41.91
39.61
37.29
35.65
35.13
35.73
36.96
38.05
38.29
37.29
35.11
32.11
28.82
25.63
22.71
19.99
17.22
14.08
10.23
5.46
-0.29
-6.74
-13.30
-19.28
-24.16
-27.73
-30.32
-32.61
-35.34
-39.14
-44.43
-51.41
-59.88
-69.05
-77.29
-82.23
-81.47
-73.39
-58.10
-37.65
-15.44
4.96
20.97
31.66
37.62
40.23
40.90
40.54
39.46
37.77
35.56
33.11
30.86
29.22
28.42
28.45
29.01
29.68
30.05
29.82
28.86
27.19
24.93
22.17
19.04
15.65
12.07
8.34
4.38
0.09
-4.53
-9.36
-14.09
-18.39
-22.01
-24.91
-27.30
-29.56
-32.14
-35.54
-40.30
-46.72
-54.49
-62.39
-68.21
-69.30
-63.52
-50.30
-31.01
-8.73
12.86
30.75
43.46
51.10
54.83
55.97
55.48
53.74
50.86
47.04
42.78
38.77
35.68
33.88
33.33
33.60
34.09
34.22
33.58
32.03
29.62
26.57
23.12
19.45
15.66
11.73
7.49
2.81
-2.40
-8.11
-14.11
-20.08
-25.68
-30.67
-34.87
-38.31
-41.19
-43.89
-46.98
-51.11
-56.77
-63.93
-71.63
-77.94
-80.29
-76.42
-65.26
-47.66
-26.21
-4.44
14.41
28.45
37.45
42.34
44.45
44.70
43.37
40.40
35.95
30.71
25.90
22.71
21.87
23.24
25.96
28.78
30.55
30.70
29.28
26.77
23.80
20.74
17.53
13.81
9.13
3.23
-3.68
-10.99
-17.79
-23.28
-27.04
-29.20
-30.42
-31.61
-33.64
-37.12
-42.31
-49.15
-57.09
-64.92
-70.79
-72.44
-67.89
-56.29
-38.52
-17.17
4.32
22.75
36.26
44.60
48.82
50.30
50.09
48.69
46.20
42.82
39.05
35.60
33.10
31.86
31.77
32.48
33.58
34.69
35.42
35.36
34.09
31.28
26.96
21.50
15.50
9.57
4.07
-0.98
-5.82
-10.74
-15.86
-21.08
-26.13
-30.71
-34.66
-38.02
-40.99
-43.94
-47.31
-51.63
-57.45
-65.21
-74.71
-84.79
-93.17
-96.90
-93.32
-81.18
-61.36
-36.77
-11.38
11.08
28.31
39.74
46.27
49.40
50.44
50.21
49.10
47.39
45.52
44.11
43.63
44.20
45.48
46.72
47.18
46.42
44.60
42.32
40.31
39.04
38.36
37.52
35.53
31.68
25.89
18.88
11.91
6.17
2.24
-0.22
-2.34
-5.47
-10.57
-17.71
-26.03
-34.21
-41.01
-45.85
-48.96
-51.29
-54.09
-58.50
-65.23
-74.27
-84.64
-94.38
-100.72
-100.89
-92.98
-76.80
-54.16
-28.40
-3.34
17.92
33.78
44.19
50.18
53.06
53.94
53.52
52.29
50.63
49.01
47.87
47.51
48.02
49.27
50.90
52.46
53.45
53.48
52.45
50.52
48.01
45.23
42.26
39.00
35.23
30.78
25.74
20.41
15.20
10.53
6.71
3.86
1.90
0.58
-0.54
-2.04
-4.47
-8.17
-13.09
-18.78
-24.60
-29.93
-34.46
-38.28
-41.87
-45.97
-51.41
-58.83
-68.27
-78.78
-88.29
-93.94
-92.83
-83.26
-65.45
-41.73
-15.85
8.28
27.81
41.62
50.11
54.58
56.33
56.24
54.81
52.42
49.67
47.31
46.11
46.43
48.17
50.68
53.09
54.67
54.98
54.10
52.37
50.24
48.00
45.66
42.95
39.49
34.91
29.09
22.32
15.21
8.62
3.37
-0.09
-1.93
-3.01
-4.47
-7.35
-12.02
-18.04
-24.35
-29.80
-33.67
-35.99
-37.37
-38.63
-40.59
-43.85
-48.93
-56.10
-65.07
-74.55
-82.08
-84.59
-79.50
-65.90
-45.21
-20.88
2.86
22.52
36.30
44.33
47.92
48.61
47.46
44.94
41.23
36.66
31.91
27.80
25.00
23.75
23.73
24.32
24.90
25.06
24.68
23.87
22.64
20.88
18.37
14.93
10.67
5.96
1.43
-2.38
-5.17
-7.07
-8.55
-10.16
-12.36
-15.25
-18.60
-22.02
-25.12
-27.79
-30.23
-32.93
-36.53
-41.73
-48.91
-57.83
-67.23
-74.89
-78.07
-74.43
-63.05
-44.97
-23.06
-0.99
17.99
32.12
41.25
46.46
49.10
50.14
49.91
48.38
45.63
42.17
38.85
36.50
35.60
36.05
37.32
38.72
39.69
39.97
39.49
38.19
35.89
32.35
27.47
21.54
15.29
9.57
5.04
1.75
-0.80
-3.42
-6.73
-10.81
-15.17
-19.05
-21.87
-23.51
-24.48
-25.62
-27.90
-32.08
-38.50
-46.87
-55.97
-63.65
-67.18
-64.14
-53.31
-35.45
-13.18
9.84
30.14
45.51
55.34
60.43
62.13
61.72
60.08
57.69
54.90
52.02
49.36
47.11
45.29
43.75
42.28
40.69
38.89
36.85
34.53
31.86
28.68
24.77
19.98
14.29
7.83
0.81
-6.54
-14.03
-21.58
-29.11
-36.52
-43.56
-49.94
-55.34
-59.58
-62.71
-65.03
-67.00
-69.16
-72.01
-75.90
-80.85
-86.15
-90.21
-90.72
-85.31
-72.63
-53.20
-29.56
-5.56
15.10
30.08
39.07
43.39
44.93
45.16
44.65
43.28
40.90
37.74
34.47
31.87
30.39
29.97
30.16
30.42
30.33
29.75
28.71
27.23
25.24
22.57
19.11
14.93
10.28
5.53
0.91
-3.56
-8.15
-13.10
-18.54
-24.24
-29.72
-34.38
-37.85
-40.10
-41.55
-42.98
-45.34
-49.47
-55.73
-63.59
-71.38
-76.46
-75.96
-67.88
-52.08
-30.59
-7.08
14.46
31.10
41.73
47.02
48.59
48.06
46.44
44.14
41.34
38.35
35.77
34.19
33.84
34.45
35.34
35.76
35.35
34.26
32.97
31.99
31.46
30.99
29.83
27.25
22.88
16.91
10.10
3.39
-2.41
-6.92
-10.36
-13.40
-16.80
-21.08
-26.21
-31.64
-36.48
-39.97
-41.81
-42.40
-42.67
-43.87
-47.08
-52.85
-60.75
-69.16
-75.46
-76.68
-70.53
-56.39
-35.86
-12.30
10.24
28.48
40.76
47.31
49.47
48.77
46.31
42.58
37.83
32.50
27.40
23.48
21.47
21.58
23.41
26.09
28.61
30.20
30.47
29.45
27.43
24.74
21.58
18.04
14.15
10.00
5.72
1.38
-3.00
-7.53
-12.25
-17.02
-21.58
-25.57
-28.82
-31.43
-33.82
-36.66
-40.57
-46.04
-53.11
-61.10
-68.37
-72.54
-71.07
-62.29
-46.32
-25.27
-2.74
17.56
33.00
42.76
47.55
48.72
47.42
44.15
39.08
32.54
25.57
19.67
16.30
16.16
18.86
23.08
27.08
29.43
29.47
27.42
24.10
20.47
17.15
14.25
11.31
7.66
2.81
-3.31
-10.18
-16.87
-22.47
-26.36
-28.55
-29.62
-30.50
-32.15
-35.30
-40.33
-47.10
-54.88
-62.18
-66.79
-66.35
-59.12
-44.81
-25.11
-3.24
17.04
32.71
42.44
46.64
46.86
44.77
41.52
37.53
32.90
27.96
23.45
20.44
19.72
21.44
24.85
28.62
31.25
31.73
29.84
26.12
21.63
17.38
13.91
11.13
8.35
4.72
-0.37
-7.00
-14.66
-22.35
-29.09
-34.10
-37.16
-38.65
-39.37
-40.30
-42.34
-46.17
-52.03
-59.51
-67.35
-73.36
-74.91
-69.66
-56.63
-36.82
-13.15
10.42
30.21
43.98
51.46
53.91
53.29
51.23
48.65
45.79
42.61
39.23
36.05
33.53
32.02
31.49
31.43
31.05
29.67
26.91
22.96
18.49
14.36
11.15
8.89
6.99
4.58
0.93
-4.14
-10.08
-15.91
-20.67
-23.81
-25.44
-26.21
-26.99
-28.57
-31.45
-35.89
-41.97
-49.42
-57.35
-64.03
-67.07
-64.08
-53.76
-36.63
-15.23
6.72
25.57
38.99
46.52
49.34
49.28
47.95
46.15
44.03
41.46
38.46
35.43
32.89
31.30
30.76
31.00
31.42
31.37
30.31
27.95
24.32
19.73
14.69
9.76
5.33
1.53
-1.86
-5.39
-9.55
-14.57
-20.23
-25.83
-30.57
-33.92
-35.84
-36.82
-37.61
-38.98
-41.48
-45.50
-51.08
-57.70
-64.05
-67.97
-66.96
-59.14
-44.21
-23.96
-1.78
18.46
33.94
43.63
48.25
49.40
48.59
46.62
43.63
39.58
34.80
30.06
26.33
24.38
24.39
25.90
27.92
29.36
29.31
27.38
23.74
19.00
13.96
9.34
5.42
2.01
-1.35
-5.17
-9.69
-14.66
-19.46
-23.44
-26.20
-27.77
-28.65
-29.53
-31.17
-34.09
-38.62
-44.74
-51.85
-58.67
-63.27
-63.42
-57.46
-45.09
-27.65
-7.88
11.00
26.39
37.02
42.99
45.30
45.12
43.24
39.98
35.51
30.19
24.75
20.19
17.36
16.63
17.67
19.55
21.12
21.42
20.08
17.32
13.83
10.35
7.35
4.84
2.45
-0.40
-4.12
-8.69
-13.72
-18.51
-22.40
-25.02
-26.46
-27.18
-27.85
-29.02
-31.11
-34.41
-39.03
-44.87
-51.24
-56.68
-59.02
-56.08
-46.64
-31.13
-11.79
8.09
25.32
37.90
45.39
48.69
49.11
47.71
44.95
40.94
35.92
30.46
25.52
22.01
20.44
20.66
21.95
23.29
23.83
23.08
21.00
17.94
14.35
10.64
7.05
3.62
0.17
-3.56
-7.77
-12.47
-17.39
-22.04
-25.97
-28.92
-31.03
-32.76
-34.65
-37.15
-40.56
-45.02
-50.52
-56.80
-62.99
-67.47
-68.15
-63.07
-51.39
-34.06
-13.66
6.32
22.78
34.08
40.28
42.69
42.88
41.93
40.18
37.57
34.17
30.54
27.67
26.40
27.05
29.11
31.47
32.92
32.74
30.87
27.76
24.08
20.26
16.46
12.67
8.87
5.24
2.00
-0.77
-3.30
-6.06
-9.54
-13.85
-18.60
-23.03
-26.39
-28.33
-29.15
-29.62
-30.67
-33.09
-37.26
-43.04
-49.68
-55.83
-59.54
-58.80
-52.16
-39.43
-22.09
-2.91
14.91
28.91
38.04
42.77
44.38
44.20
43.05
41.22
38.79
35.98
33.26
31.13
29.76
28.94
28.19
27.08
25.48
23.66
22.05
20.96
20.39
19.94
19.06
17.21
14.19
10.16
5.67
1.42
-2.03
-4.51
-6.26
-7.90
-10.09
-13.11
-16.81
-20.63
-23.95
-26.43
-28.17
-29.64
-31.48
-34.29
-38.46
-44.07
-50.58
-56.75
-60.59
-59.83
-52.84
-39.40
-21.13
-1.11
17.20
31.21
39.95
44.05
45.06
44.52
43.38
41.82
39.70
36.95
33.86
31.04
29.12
28.44
28.87
29.84
30.64
30.71
29.82
28.13
25.90
23.26
20.12
16.16
11.24
5.57
-0.19
-5.20
-8.91
-11.33
-13.04
-14.88
-17.41
-20.67
-24.23
-27.46
-29.95
-31.71
-33.09
-34.65
-36.95
-40.53
-45.80
-52.69
-60.42
-67.19
-70.47
-67.81
-57.93
-41.42
-20.80
0.40
18.81
32.33
40.49
44.10
44.45
42.67
39.44
35.14
30.21
25.27
21.14
18.50
17.65
18.32
19.78
21.17
21.75
21.22
19.72
17.64
15.40
13.15
10.76
7.91
4.30
-0.16
-5.18
-10.24
-14.70
-18.08
-20.23
-21.44
-22.33
-23.70
-26.25
-30.54
-36.76
-44.60
-53.04
-60.32
-64.21
-62.64
-54.52
-40.36
-22.31
-3.48
13.16
25.73
33.79
38.05
39.53
38.97
36.63
32.58
27.22
21.50
16.68
13.85
13.36
14.61
16.35
17.19
16.29
13.63
9.94
6.22
3.27
1.20
-0.53
-2.82
-6.43
-11.58
-17.75
-23.92
-28.96
-32.15
-33.48
-33.61
-33.59
-34.36
-36.50
-40.15
-45.04
-50.53
-55.57
-58.60
-57.80
-51.67
-39.73
-23.03
-4.03
14.14
28.82
38.62
43.67
45.19
44.59
42.92
40.63
37.83
34.67
31.60
29.28
28.21
28.57
29.91
31.50
32.57
32.69
31.98
30.99
30.32
30.25
30.53
30.51
29.43
26.83
22.85
18.16
13.76
10.62
9.23
9.48
10.66
11.66
11.25
8.59
3.46
-3.64
-11.63
-19.23
-25.44
-29.78
-32.39
-33.82
-34.80
-35.87
-37.32
-39.13
-41.06
-42.76
-43.93
-44.38
-44.14
-43.35
-42.22
-40.86
-39.16
-36.81
-33.43
-28.75
-22.79
-15.89
-8.70
-1.97
3.56
7.45
9.59
10.27
9.92
9.01
7.75
6.10
3.83
0.79
-2.93
-6.87
-10.47
-13.27
-15.21
-16.69
-18.39
-21.05
-25.23
-31.26
-39.00
-47.76
-56.16
-62.19
-63.70
-59.05
-47.90
-31.62
-12.86
5.32
20.54
31.79
39.40
44.47
48.08
50.74
52.41
52.88
52.15
50.65
49.09
48.12
47.94
48.25
48.36
47.64
45.79
42.97
39.78
36.84
34.53
32.73
30.85
28.02
23.56
17.26
9.51
1.22
-6.55
-12.94
-17.68
-21.04
-23.78
-26.81
-31.03
-37.09
-45.13
-54.63
-64.19
-71.56
-74.24
-70.29
-59.18
-42.21
-22.18
-2.46
14.16
26.25
33.90
38.10
40.01
40.37
39.42
37.24
34.12
30.77
28.10
26.81
26.99
28.06
28.98
28.85
27.31
24.72
21.91
19.66
18.21
17.03
15.08
11.42
5.68
-1.61
-9.27
-15.96
-20.85
-23.92
-25.89
-27.91
-31.06
-36.08
-43.11
-51.69
-60.63
-68.10
-71.86
-69.95
-61.40
-46.74
-28.11
-8.46
9.30
23.32
33.09
39.25
42.86
44.80
45.50
45.09
43.74
41.88
40.21
39.44
39.94
41.59
43.87
46.04
47.47
47.89
47.40
46.26
44.65
42.53
39.66
35.75
30.75
24.95
18.92
13.40
9.09
6.43
5.44
5.66
6.08
5.41
2.48
-3.24
-11.38
-20.72
-29.69
-37.02
-42.16
-45.35
-47.29
-48.66
-49.73
-50.39
-50.26
-48.92
-46.10
-41.69
-35.81
-28.80
-21.23
-13.82
-7.26
-1.98
1.94
4.81
7.12
9.33
11.63
13.87
15.63
16.43
15.94
14.14
11.38
8.23
5.20
2.57
0.26
-2.10
-4.87
-8.24
-12.09
-15.94
-19.25
-21.61
-22.97
-23.68
-24.33
-25.56
-27.90
-31.61
-36.64
-42.53
-48.20
-52.03
-52.14
-47.01
-36.16
-20.62
-2.72
14.68
29.19
39.62
46.17
49.86
51.82
52.72
52.65
51.45
49.21
46.39
43.75
41.97
41.31
41.47
41.78
41.50
40.17
37.82
34.82
31.73
28.96
26.55
24.18
21.30
17.45
12.42
6.43
0.06
-5.93
-10.90
-14.54
-17.02
-18.90
-20.95
-23.93
-28.35
-34.43
-41.96
-50.23
-57.92
-63.18
-64.04
-59.01
-47.84
-31.80
-13.46
4.16
18.60
28.65
34.53
37.37
38.42
38.52
37.91
36.53
34.45
32.12
30.23
29.49
30.15
31.88
33.84
35.03
34.71
32.71
29.44
25.66
22.13
19.25
16.86
14.46
11.35
7.07
1.62
-4.49
-10.49
-15.62
-19.44
-22.00
-23.71
-25.21
-27.12
-29.92
-33.98
-39.41
-45.91
-52.55
-57.70
-59.31
-55.68
-46.13
-31.61
-14.42
2.47
16.54
26.45
32.28
35.01
35.81
35.46
34.20
32.02
29.04
25.75
22.93
21.33
21.34
22.79
25.03
27.22
28.64
28.93
28.10
26.49
24.51
22.44
20.27
17.76
14.54
10.36
5.28
-0.31
-5.77
-10.50
-14.14
-16.74
-18.67
-20.50
-22.81
-26.02
-30.46
-36.31
-43.54
-51.52
-58.86
-63.50
-63.24
-56.65
-43.82
-26.55
-7.80
9.34
22.78
31.89
37.28
40.12
41.30
41.22
39.87
37.27
33.82
30.27
27.48
26.04
26.04
27.02
28.15
28.64
27.90
25.85
22.84
19.51
16.49
14.12
12.30
10.53
8.19
4.82
0.37
-4.74
-9.76
-13.91
-16.79
-18.45
-19.44
-20.55
-22.56
-25.99
-31.08
-37.70
-45.25
-52.58
-57.89
-59.14
-54.68
-44.02
-28.31
-10.12
7.32
21.34
30.65
35.53
37.33
37.50
36.98
36.04
34.53
32.49
30.23
28.35
27.33
27.27
27.82
28.33
28.21
27.16
25.25
22.83
20.30
17.93
15.73
13.49
10.89
7.66
3.73
-0.71
-5.26
-9.39
-12.71
-14.98
-16.26
-16.87
-17.32
-18.20
-20.00
-23.14
-27.81
-33.90
-40.79
-47.26
-51.54
-51.75
-46.59
-35.97
-21.31
-5.17
9.59
20.89
27.96
31.42
32.66
32.98
33.06
32.85
31.98
30.28
28.04
25.94
24.71
24.66
25.59
26.78
27.42
26.94
25.24
22.65
19.77
17.09
14.90
13.10
11.29
8.98
5.73
1.38
-3.87
-9.45
-14.68
-18.96
-22.07
-24.18
-25.84
-27.70
-30.29
-33.94
-38.74
-44.50
-50.66
-56.13
-59.32
-58.53
-52.54
-41.31
-26.25
-9.89
4.97
16.27
23.25
26.47
27.18
26.53
25.19
23.25
20.70
17.81
15.19
13.57
13.40
14.50
16.15
17.37
17.39
15.97
13.44
10.51
7.84
5.76
4.09
2.28
-0.26
-3.82
-8.25
-12.92
-17.06
-20.01
-21.55
-21.93
-21.79
-21.94
-23.08
-25.72
-30.06
-35.86
-42.25
-47.69
-50.19
-47.93
-40.00
-26.92
-10.70
5.85
20.11
30.48
36.75
39.78
40.73
40.43
39.14
36.76
33.26
29.06
24.98
21.92
20.46
20.48
21.25
21.66
20.80
18.30
14.52
10.29
6.48
3.60
1.48
-0.59
-3.46
-7.62
-12.88
-18.39
-23.07
-26.10
-27.30
-27.23
-26.89
-27.29
-29.17
-32.84
-38.19
-44.69
-51.24
-56.18
-57.53
-53.65
-43.97
-29.46
-12.47
4.05
17.65
27.18
32.86
35.74
36.93
37.02
36.02
33.81
30.57
26.92
23.83
22.04
21.73
22.41
23.15
23.01
21.41
18.39
14.50
10.57
7.30
4.97
3.33
1.82
-0.28
-3.36
-7.37
-11.76
-15.73
-18.56
-19.94
-20.09
-19.73
-19.74
-20.90
-23.63
-27.92
-33.21
-38.40
-41.96
-42.16
-37.73
-28.28
-14.71
0.92
16.05
28.43
36.86
41.39
42.94
42.65
41.28
39.06
35.91
31.86
27.32
23.07
19.93
18.33
18.14
18.68
19.04
18.50
16.80
14.27
11.54
9.21
7.50
6.13
4.47
1.85
-1.98
-6.74
-11.61
-15.70
-18.37
-19.57
-19.81
-19.96
-20.85
-23.10
-26.95
-32.28
-38.61
-44.98
-49.97
-51.82
-49.02
-40.90
-28.12
-12.65
2.85
15.93
25.17
30.47
32.63
32.80
31.78
29.84
26.96
23.22
19.08
15.33
12.75
11.70
12.01
12.96
13.75
13.82
13.04
11.75
10.36
9.12
7.88
6.14
3.31
-0.98
-6.66
-13.14
-19.53
-24.92
-28.77
-31.10
-32.47
-33.78
-35.95
-39.58
-44.81
-51.12
-57.39
-62.04
-63.29
-59.79
-51.10
-38.01
-22.41
-6.76
6.78
16.95
23.57
27.27
28.87
28.93
27.61
24.96
21.20
17.02
13.33
10.96
10.28
10.98
12.26
13.20
13.20
12.20
10.60
8.97
7.56
6.18
4.22
1.12
-3.25
-8.46
-13.65
-17.94
-20.89
-22.70
-24.04
-25.76
-28.55
-32.76
-38.29
-44.54
-50.36
-54.11
-54.03
-48.86
-38.46
-24.06
-7.97
7.20
19.45
27.94
32.93
35.31
35.97
35.39
33.73
31.18
28.15
25.36
23.57
23.12
23.84
24.99
25.65
25.12
23.22
20.28
16.92
13.69
10.82
8.05
4.91
0.94
-3.96
-9.47
-14.84
-19.37
-22.60
-24.65
-26.15
-28.15
-31.70
-37.37
-44.97
-53.23
-60.00
-62.80
-59.72
-50.19
-35.31
-17.61
-0.14
14.64
25.57
32.81
37.38
40.26
41.95
42.44
41.52
39.37
36.66
34.30
32.99
32.92
33.61
34.23
33.99
32.48
29.84
26.62
23.52
21.08
19.34
17.89
15.97
12.85
8.19
2.26
-4.15
-9.99
-14.48
-17.44
-19.33
-21.04
-23.49
-27.38
-32.96
-39.94
-47.42
-53.87
-57.34
-56.04
-48.96
-36.49
-20.39
-3.26
12.35
24.75
33.47
38.98
42.13
43.61
43.77
42.78
40.90
38.58
36.44
34.96
34.29
34.26
34.46
34.49
34.11
33.30
32.20
31.04
30.15
29.80
30.07
30.61
30.67
29.13
25.05
18.08
8.82
-1.42
-11.22
-19.65
-26.74
-33.21
-39.94
-47.40
-55.46
-63.63
-71.51
-79.09
-86.55
-93.67
-99.27
-101.27
-97.38
-86.20
-68.17
-45.69
-22.40
-1.82
13.84
24.24
30.51
34.32
37.03
39.12
40.48
40.80
40.13
38.96
38.05
38.02
39.04
40.79
42.50
43.30
42.63
40.37
36.92
32.96
29.13
25.77
22.74
19.64
15.97
11.50
6.36
0.99
-4.09
-8.47
-12.02
-14.90
-17.46
-20.12
-23.22
-27.09
-32.10
-38.52
-46.24
-54.43
-61.32
-64.54
-61.91
-52.41
-36.88
-17.86
1.25
17.45
29.10
36.18
39.75
41.06
40.89
39.42
36.62
32.74
28.55
25.10
23.30
23.43
24.94
26.77
27.83
27.52
25.93
23.75
21.80
20.58
19.99
19.37
17.74
14.34
8.92
1.91
-5.75
-12.95
-18.77
-22.87
-25.50
-27.39
-29.48
-32.67
-37.56
-44.34
-52.58
-61.11
-68.03
-71.12
-68.40
-59.01
-43.78
-25.06
-6.11
10.11
21.87
28.99
32.47
33.68
33.62
32.59
30.48
27.37
23.74
20.59
18.93
19.39
21.79
25.29
28.68
30.86
31.23
29.81
27.14
23.94
20.87
18.21
15.82
13.29
10.12
6.06
1.26
-3.72
-8.19
-11.60
-13.81
-15.13
-16.04
-17.02
-18.32
-20.14
-22.70
-26.19
-30.59
-35.27
-38.96
-40.04
-37.27
-30.55
-21.25
-11.71
-4.29
-0.41
-0.05
-2.00
-4.57
-6.54
-7.44
-7.62
-7.62
-7.68
-7.58
-6.74
-4.69
-1.37
2.70
6.61
9.45
10.74
10.57
9.51
8.34
7.56
7.27
7.00
6.03
3.68
-0.26
-5.44
-11.04
-16.05
-19.80
-22.18
-23.69
-25.13
-27.34
-30.91
-36.11
-42.99
-51.14
-59.60
-66.59
-69.80
-67.06
-57.23
-40.98
-20.75
0.05
18.23
31.96
41.04
46.53
49.84
51.93
53.02
52.90
51.38
48.67
45.42
42.44
40.38
39.51
39.59
40.13
40.50
40.20
39.01
36.94
34.22
31.15
27.96
24.77
21.51
17.98
13.92
9.20
3.90
-1.67
-7.01
-11.67
-15.46
-18.46
-21.10
-23.97
-27.59
-32.40
-38.61
-46.13
-54.37
-62.02
-67.09
-67.36
-61.16
-48.17
-29.88
-9.18
10.51
26.46
37.42
43.74
46.78
47.97
48.22
47.69
46.19
43.68
40.52
37.46
35.24
34.24
34.32
34.92
35.38
35.21
34.23
32.45
29.99
26.90
23.21
19.04
14.60
10.20
6.09
2.31
-1.30
-5.05
-9.19
-13.77
-18.59
-23.29
-27.56
-31.31
-34.67
-37.99
-41.70
-46.32
-52.20
-59.37
-67.12
-73.83
-77.20
-74.91
-65.67
-49.92
-29.94
-9.13
9.23
23.05
31.96
36.88
39.21
40.00
39.65
38.13
35.45
31.95
28.41
25.67
24.33
24.47
25.72
27.35
28.66
29.14
28.59
27.14
25.06
22.65
20.13
17.54
14.75
11.52
7.63
2.97
-2.29
-7.77
-12.92
-17.21
-20.42
-22.67
-24.44
-26.38
-29.14
-33.18
-38.75
-45.75
-53.52
-60.75
-65.48
-65.57
-59.47
-47.01
-29.67
-10.34
7.74
22.07
31.56
36.62
38.55
38.72
37.97
36.58
34.45
31.68
28.67
26.08
24.58
24.45
25.45
26.89
27.93
27.92
26.61
24.22
21.20
18.06
15.11
12.40
9.72
6.80
3.34
-0.78
-5.48
-10.49
-15.37
-19.75
-23.37
-26.27
-28.72
-31.22
-34.33
-38.61
-44.49
-51.93
-60.16
-67.47
-71.50
-69.88
-61.23
-45.84
-25.87
-4.65
14.44
29.09
38.63
43.82
46.12
46.80
46.55
45.46
43.45
40.63
37.45
34.64
32.85
32.39
33.07
34.20
34.95
34.61
32.93
30.13
26.77
23.43
20.49
17.84
15.08
11.71
7.39
2.19
-3.51
-9.13
-14.20
-18.46
-21.96
-24.94
-27.74
-30.69
-34.01
-37.94
-42.74
-48.57
-55.18
-61.54
-65.86
-65.86
-59.73
-47.00
-29.03
-8.72
10.48
25.83
36.08
41.61
43.72
43.85
42.91
41.26
38.97
36.26
33.61
31.58
30.60
30.71
31.54
32.53
33.07
32.72
31.36
29.09
26.24
23.20
20.27
17.57
14.95
12.15
8.89
5.08
0.76
-3.82
-8.38
-12.74
-16.82
-20.61
-24.18
-27.57
-30.87
-34.24
-38.01
-42.61
-48.42
-55.29
-62.20
-67.23
-67.97
-62.45
-50.11
-32.24
-11.77
7.86
23.85
34.87
41.20
44.03
44.67
43.94
42.13
39.36
35.89
32.28
29.07
26.63
24.96
23.83
22.93
22.08
21.18
20.20
19.04
17.57
15.70
13.46
11.05
8.71
6.59
4.69
2.81
0.64
-2.03
-5.27
-8.93
-12.69
-16.19
-19.11
-21.36
-23.04
-24.46
-26.03
-28.32
-31.91
-37.22
-44.12
-51.54
-57.41
-59.19
-54.75
-43.44
-26.61
-7.30
10.93
25.21
34.34
38.79
40.00
39.43
37.94
35.71
32.70
29.10
25.49
22.70
21.35
21.55
22.82
24.26
24.97
24.44
22.68
20.15
17.50
15.26
13.57
12.18
10.62
8.28
4.81
0.22
-5.06
-10.33
-14.86
-18.24
-20.47
-21.96
-23.33
-25.22
-28.09
-32.22
-37.76
-44.53
-51.86
-58.37
-62.05
-60.83
-53.45
-40.12
-22.76
-4.39
11.93
24.07
31.34
34.37
34.36
32.49
29.47
25.59
21.08
16.41
12.37
9.73
8.91
9.74
11.47
13.06
13.70
13.13
11.68
10.05
8.82
8.08
7.42
6.07
3.36
-0.89
-6.26
-11.85
-16.64
-19.92
-21.57
-22.10
-22.46
-23.70
-26.60
-31.50
-38.15
-45.60
-52.28
-56.14
-55.16
-47.99
-34.67
-16.78
2.88
21.19
35.85
45.95
52.05
55.47
57.37
58.13
57.33
54.35
49.07
42.26
35.28
29.38
25.07
21.75
18.13
13.04
6.12
-1.87
-9.50
-15.38
-18.98
-20.86
-22.36
-24.83
-28.96
-34.42
-40.05
-44.49
-46.81
-46.93
-45.60
-44.10
-43.69
-45.30
-49.31
-55.59
-63.33
-70.93
-76.06
-76.06
-68.85
-53.86
-32.54
-8.17
15.34
34.71
48.41
56.65
60.81
62.32
62.00
59.92
55.91
50.19
43.59
37.38
32.71
30.03
28.88
28.08
26.42
23.17
18.49
13.26
8.56
4.98
2.29
-0.54
-4.72
-10.97
-19.08
-27.91
-35.93
-41.93
-45.50
-47.16
-48.05
-49.47
-52.46
-57.66
-65.06
-73.82
-82.19
-87.62
-87.39
-79.63
-64.18
-42.94
-19.35
2.87
20.96
33.84
42.01
46.73
49.14
49.85
49.00
46.67
43.35
39.86
37.17
35.85
35.93
36.82
37.61
37.50
36.08
33.54
30.53
27.84
25.98
24.89
23.89
21.94
18.14
12.18
4.58
-3.49
-10.67
-16.03
-19.42
-21.45
-23.16
-25.63
-29.67
-35.70
-43.73
-53.09
-62.25
-68.87
-70.22
-64.18
-50.27
-30.19
-7.37
14.17
31.30
42.70
48.96
51.69
52.55
52.43
51.43
49.32
46.11
42.31
38.82
36.49
35.70
36.18
37.15
37.61
36.85
34.65
31.38
27.72
24.36
21.62
19.34
16.92
13.58
8.79
2.45
-5.02
-12.84
-20.19
-26.45
-31.36
-35.06
-38.05
-41.02
-44.79
-50.20
-57.80
-67.55
-78.36
-87.92
-93.16
-91.22
-80.60
-62.07
-38.51
-13.98
7.74
24.36
35.46
42.06
45.50
46.75
46.04
43.36
39.00
33.87
29.35
26.68
26.40
28.15
30.83
33.07
33.84
32.76
30.19
26.93
23.87
21.50
19.75
17.98
15.34
11.17
5.36
-1.54
-8.54
-14.64
-19.22
-22.30
-24.51
-26.78
-30.05
-35.06
-42.15
-51.17
-61.25
-70.73
-77.21
-78.14
-71.67
-57.53
-37.44
-14.67
7.08
24.93
37.67
45.67
50.17
52.32
52.60
50.97
47.39
42.35
36.97
32.64
30.35
30.23
31.54
33.01
33.49
32.45
30.07
27.16
24.59
22.76
21.31
19.32
15.66
9.68
1.58
-7.58
-16.33
-23.38
-28.17
-31.10
-33.21
-35.78
-39.96
-46.49
-55.61
-66.75
-78.37
-87.91
-92.25
-88.78
-76.47
-56.52
-32.18
-7.58
13.71
29.78
40.60
47.37
51.44
53.66
54.16
52.86
49.98
46.30
43.02
41.14
41.03
42.18
43.49
43.72
42.18
38.92
34.77
30.79
27.79
25.86
24.30
21.99
17.90
11.63
3.62
-5.03
-12.99
-19.30
-23.71
-26.74
-29.44
-32.98
-38.32
-45.93
-55.80
-67.07
-78.02
-86.02
-88.16
-82.19
-67.56
-45.98
-20.99
3.14
23.02
37.04
45.58
50.20
52.54
53.55
53.39
51.89
49.12
45.72
42.69
40.96
40.86
41.98
43.33
43.83
42.77
40.12
36.44
32.55
29.09
26.26
23.78
21.07
17.54
12.85
7.00
0.32
-6.57
-13.00
-18.41
-22.54
-25.51
-27.80
-30.19
-33.53
-38.61
-46.00
-55.69
-66.70
-76.93
-83.40
-83.08
-74.17
-56.95
-34.09
-9.71
12.05
28.50
39.02
44.71
47.36
48.37
48.33
47.16
44.74
41.30
37.57
34.47
32.69
32.38
33.13
34.15
34.68
34.18
32.58
30.18
27.50
24.95
22.71
20.63
18.29
15.22
11.10
5.86
-0.20
-6.50
-12.35
-17.20
-20.87
-23.68
-26.33
-29.70
-34.64
-41.67
-50.86
-61.62
-72.42
-80.93
-84.32
-80.24
-67.80
-48.18
-24.45
-0.61
19.82
34.88
44.39
49.44
51.45
51.35
49.48
45.93
40.99
35.49
30.64
27.49
26.46
27.17
28.54
29.28
28.49
26.04
22.58
19.17
16.62
15.11
14.05
12.34
8.98
3.59
-3.41
-10.93
-17.78
-23.06
-26.60
-28.94
-31.04
-34.00
-38.75
-45.84
-55.15
-65.61
-75.06
-80.56
-79.29
-69.58
-51.94
-29.07
-5.09
15.96
31.52
41.15
46.10
48.29
49.15
49.16
48.10
45.66
42.02
38.01
34.70
32.88
32.72
33.67
34.70
34.86
33.62
31.08
27.77
24.42
21.54
19.29
17.29
14.92
11.41
6.28
-0.53
-8.49
-16.62
-23.88
-29.50
-33.41
-36.21
-38.91
-42.49
-47.64
-54.54
-63.09
-72.72
-82.37
-90.16
-93.50
-89.81
-77.58
-57.34
-31.85
-5.39
17.80
34.99
45.69
51.32
54.00
55.46
56.33
56.39
55.17
52.61
49.28
46.13
44.00
43.21
43.50
44.21
44.67
44.46
43.57
42.22
40.73
39.30
37.91
36.33
34.25
31.29
27.21
21.91
15.44
8.02
-0.00
-8.20
-16.21
-23.78
-31.03
-38.38
-46.49
-56.07
-67.72
-81.60
-97.12
-112.71
-125.75
-132.96
-131.32
-119.26
-97.50
-69.13
-38.70
-10.71
11.85
28.16
39.19
46.62
51.72
54.92
56.05
54.99
52.23
48.82
45.98
44.53
44.57
45.52
46.41
46.36
44.85
41.87
37.80
33.23
28.70
24.57
20.90
17.47
13.83
9.48
4.04
-2.51
-9.79
-17.13
-23.84
-29.44
-33.89
-37.62
-41.34
-45.82
-51.71
-59.43
-68.88
-79.21
-88.55
-94.23
-93.42
-84.19
-66.55
-42.75
-16.70
7.42
26.61
39.85
47.91
52.44
54.79
55.52
54.50
51.54
47.00
41.89
37.53
34.92
34.33
35.16
36.30
36.61
35.43
32.82
29.43
26.10
23.46
21.60
19.98
17.66
13.75
7.82
0.18
-8.13
-15.80
-21.67
-25.31
-27.12
-28.22
-29.99
-33.60
-39.70
-48.34
-58.86
-69.82
-78.98
-83.64
-81.29
-70.60
-52.14
-28.49
-3.48
19.12
36.78
48.75
55.72
58.89
59.22
57.09
52.66
46.42
39.40
33.09
28.72
26.84
27.04
28.21
29.00
28.47
26.34
23.05
19.41
16.19
13.71
11.63
9.07
4.99
-1.30
-9.65
-19.11
-28.20
-35.55
-40.50
-43.38
-45.33
-47.81
-52.18
-59.22
-68.95
-80.45
-91.79
-100.13
-102.40
-96.18
-80.80
-57.91
-31.12
-4.86
17.21
33.22
43.40
49.34
52.88
55.15
56.35
56.06
53.96
50.32
46.07
42.40
40.19
39.59
39.99
40.40
39.87
38.02
35.02
31.45
27.89
24.61
21.47
18.06
13.86
8.53
2.00
-5.48
-13.35
-20.97
-27.77
-33.41
-37.91
-41.61
-45.06
-48.89
-53.82
-60.49
-69.34
-80.20
-91.87
-101.89
-107.03
-104.18
-91.66
-70.19
-42.78
-13.91
12.15
32.57
46.58
55.15
60.04
62.74
64.12
64.45
63.87
62.71
61.56
60.96
61.10
61.74
62.29
62.16
61.08
59.17
56.78
54.18
51.36
48.05
43.86
38.61
32.42
25.70
18.88
12.22
5.74
-0.74
-7.35
-14.06
-20.65
-26.75
-32.09
-36.57
-40.45
-44.28
-48.89
-55.23
-64.08
-75.55
-88.63
-100.93
-109.02
-109.40
-99.75
-80.09
-52.96
-22.71
5.94
29.44
46.24
56.80
62.76
65.87
67.39
67.83
67.24
65.62
63.17
60.25
57.33
54.78
52.80
51.38
50.30
49.25
47.92
46.07
43.52
40.19
36.05
31.15
25.57
19.47
13.02
6.38
-0.38
-7.22
-14.10
-20.92
-27.44
-33.39
-38.57
-42.95
-46.81
-50.65
-55.18
-61.17
-69.23
-79.43
-90.80
-101.12
-107.15
-105.60
-94.37
-73.70
-46.36
-16.90
9.98
30.99
45.04
53.07
56.94
58.39
58.36
57.03
54.39
50.66
46.53
42.93
40.76
40.42
41.78
44.04
46.05
46.55
44.68
40.25
33.83
26.50
19.29
12.77
6.81
0.77
-6.06
-14.04
-23.04
-32.48
-41.58
-49.69
-56.41
-61.61
-65.40
-68.01
-69.80
-71.26
-73.09
-76.22
-81.42
-88.79
-97.04
-103.39
-104.09
-95.90
-77.61
-50.94
-20.16
9.43
33.50
50.06
59.65
64.41
66.58
67.60
67.74
66.72
64.40
61.20
57.95
55.52
54.36
54.34
54.84
55.12
54.64
53.17
50.85
47.90
44.46
40.55
36.10
31.04
25.42
19.32
12.83
5.92
-1.39
-9.04
-16.72
-24.05
-30.60
-36.22
-41.05
-45.63
-50.71
-57.08
-65.37
-75.72
-87.47
-98.82
-106.94
-108.59
-101.29
-84.39
-59.65
-30.85
-2.54
21.53
39.44
51.30
58.55
62.92
65.60
67.03
67.20
66.11
64.11
61.77
59.71
58.26
57.41
56.82
56.15
55.17
53.82
52.10
49.96
47.18
43.46
38.59
32.56
25.73
18.65
11.86
5.62
-0.19
-6.06
-12.50
-19.73
-27.52
-35.24
-42.11
-47.63
-51.82
-55.26
-58.95
-64.00
-71.29
-80.98
-92.18
-102.65
-109.13
-108.17
-97.52
-77.12
-49.54
-19.20
9.09
31.81
47.62
57.21
62.39
64.90
65.75
65.22
63.31
60.33
56.99
54.22
52.60
52.15
52.28
52.12
51.05
48.97
46.35
43.89
42.16
41.12
40.12
38.18
34.46
28.72
21.52
13.90
7.06
1.74
-2.04
-4.96
-8.08
-12.31
-18.00
-24.80
-31.84
-38.13
-42.99
-46.32
-48.66
-50.96
-54.35
-59.83
-68.00
-78.72
-90.72
-101.46
-107.46
-105.34
-93.07
-71.09
-42.45
-11.91
15.71
37.11
51.29
59.25
62.90
63.98
63.41
61.49
58.36
54.48
50.68
47.81
46.32
46.04
46.28
46.23
45.45
44.06
42.63
41.78
41.68
41.80
41.12
38.61
33.80
27.01
19.34
12.09
6.20
1.84
-1.58
-5.07
-9.48
-15.21
-21.96
-28.98
-35.38
-40.58
-44.43
-47.39
-50.35
-54.31
-60.20
-68.47
-78.72
-89.39
-97.75
-100.54
-94.98
-79.98
-56.87
-29.16
-1.37
22.52
40.31
51.80
58.26
61.30
62.06
61.00
58.17
53.80
48.60
43.61
39.85
37.93
37.83
38.93
40.27
40.85
39.97
37.44
33.58
29.02
24.38
19.98
15.66
10.92
5.20
-1.77
-9.77
-18.06
-25.66
-31.79
-36.12
-38.95
-41.01
-43.22
-46.37
-51.07
-57.67
-66.26
-76.30
-86.28
-93.66
-95.24
-88.36
-72.08
-47.96
-19.76
7.81
30.71
46.91
56.55
61.28
63.10
63.38
62.52
60.43
57.02
52.64
48.18
44.63
42.67
42.38
43.14
43.89
43.62
41.69
38.11
33.47
28.57
24.10
20.25
16.69
12.69
7.52
0.79
-7.31
-16.05
-24.42
-31.58
-37.15
-41.33
-44.76
-48.15
-52.16
-57.29
-63.96
-72.48
-82.58
-92.90
-100.79
-102.79
-95.91
-79.02
-53.75
-24.15
4.69
28.53
45.28
55.24
60.23
62.23
62.52
61.42
58.82
54.78
49.93
45.23
41.60
39.49
38.76
38.80
38.85
38.30
36.80
34.32
31.05
27.30
23.32
19.30
15.25
11.01
6.36
1.05
-5.05
-11.85
-19.02
-26.06
-32.46
-37.84
-42.13
-45.59
-48.76
-52.35
-57.19
-63.95
-72.92
-83.52
-93.99
-101.39
-102.34
-94.20
-76.34
-50.71
-21.36
6.93
30.29
46.88
56.99
62.31
64.74
65.59
65.33
64.01
61.69
58.71
55.72
53.30
51.80
51.17
51.05
50.93
50.36
49.11
47.10
44.38
41.03
37.03
32.34
26.99
21.03
14.65
8.03
1.29
-5.48
-12.18
-18.66
-24.73
-30.20
-34.97
-39.11
-42.82
-46.50
-50.72
-56.20
-63.63
-73.25
-84.25
-94.47
-100.58
-99.09
-87.75
-66.73
-38.86
-8.83
18.52
39.74
53.68
61.23
64.27
64.57
63.16
60.38
56.35
51.46
46.48
42.33
39.67
38.63
38.70
38.99
38.53
36.64
33.20
28.60
23.56
18.85
14.92
11.68
8.58
4.82
-0.23
-6.64
-13.89
-21.03
-27.13
-31.75
-35.12
-38.02
-41.41
-46.00
-52.12
-59.77
-68.68
-78.20
-87.03
-92.95
-93.20
-85.42
-68.80
-44.86
-17.29
9.35
31.24
46.50
55.41
59.63
60.93
60.34
57.98
53.66
47.59
40.76
34.67
30.70
29.39
30.16
31.62
32.17
30.80
27.46
23.00
18.59
15.10
12.63
10.43
7.38
2.52
-4.45
-13.00
-21.99
-30.06
-36.19
-40.06
-42.09
-43.32
-44.99
-48.25
-53.90
-62.18
-72.51
-83.31
-91.94
-95.24
-90.39
-76.16
-53.69
-26.39
1.13
24.69
41.91
52.69
58.63
61.72
63.30
63.58
62.09
58.45
53.00
46.84
41.39
37.74
36.17
36.10
36.43
36.03
34.22
30.96
26.72
22.23
18.04
14.32
10.82
6.99
2.25
-3.70
-10.76
-18.31
-25.46
-31.34
-35.50
-38.05
-39.70
-41.42
-44.20
-48.76
-55.53
-64.46
-74.90
-85.25
-92.89
-94.69
-87.90
-71.47
-46.84
-17.73
11.05
35.26
52.59
63.02
68.14
70.02
70.07
68.77
66.01
61.72
56.30
50.73
46.10
43.15
41.99
42.07
42.40
42.06
40.44
37.49
33.56
29.24
24.99
21.00
17.15
13.07
8.39
2.90
-3.34
-9.98
-16.50
-22.39
-27.32
-31.26
-34.54
-37.66
-41.23
-45.80
-51.88
-59.80
-69.42
-79.74
-88.57
-92.87
-89.53
-76.79
-55.22
-27.92
0.45
25.32
43.81
55.37
61.36
63.84
64.36
63.47
60.98
56.68
50.96
44.88
39.77
36.58
35.52
35.97
36.84
37.11
36.10
33.74
30.40
26.66
22.98
19.54
16.17
12.38
7.64
1.56
-5.83
-14.05
-22.27
-29.62
-35.50
-39.80
-43.00
-45.86
-49.21
-53.70
-59.73
-67.38
-76.24
-85.13
-91.98
-94.10
-88.87
-74.96
-53.05
-26.04
1.84
26.38
44.75
56.17
61.49
62.38
60.26
55.97
49.93
42.78
35.65
30.01
27.11
27.24
29.48
31.97
32.82
31.01
26.93
22.09
18.34
16.89
17.52
18.67
18.02
13.52
4.32
-8.87
-24.06
-38.79
-51.05
-59.99
-66.02
-70.48
-74.98
-80.83
-88.59
-97.85
-107.17
-114.12
-115.71
-109.16
-92.96
-67.73
-36.39
-3.40
26.64
50.46
66.85
76.39
80.59
80.87
78.03
72.56
65.09
56.84
49.44
44.34
42.09
42.14
43.03
43.13
41.37
37.73
33.04
28.52
24.98
22.38
19.80
15.91
9.69
0.93
-9.50
-20.10
-29.25
-35.94
-40.12
-42.67
-45.09
-48.94
-55.43
-64.95
-76.81
-89.03
-98.49
-101.65
-95.66
-79.55
-54.91
-25.57
3.65
28.57
46.90
58.61
65.18
68.45
69.63
69.03
66.51
62.15
56.67
51.30
47.25
45.11
44.53
44.42
43.48
40.88
36.72
31.85
27.47
24.40
22.53
20.86
17.94
12.59
4.51
-5.42
-15.60
-24.34
-30.59
-34.38
-36.70
-39.10
-43.12
-49.85
-59.64
-71.85
-84.67
-95.18
-99.89
-95.76
-81.38
-57.86
-28.70
1.24
27.49
47.34
60.37
67.87
71.66
72.97
72.15
69.03
63.66
56.79
49.84
44.32
41.18
40.38
40.86
41.14
39.93
36.73
32.01
26.87
22.48
19.46
17.60
15.90
13.13
8.30
1.21
-7.54
-16.76
-25.14
-31.76
-36.39
-39.50
-42.04
-45.10
-49.63
-56.28
-65.24
-75.92
-86.70
-94.83
-97.10
-90.78
-74.89
-50.92
-22.56
5.53
29.28
46.48
57.01
62.12
63.40
61.91
58.07
52.15
44.78
37.16
30.75
26.67
25.17
25.58
26.63
27.04
26.06
23.70
20.63
17.64
15.30
13.41
11.13
7.34
1.22
-7.23
-16.99
-26.40
-33.87
-38.51
-40.56
-41.24
-42.23
-45.04
-50.61
-59.02
-69.41
-79.99
-88.03
-90.46
-84.71
-69.71
-46.66
-18.81
9.38
33.84
52.02
63.38
68.87
69.97
67.94
63.49
57.13
49.65
42.25
36.26
32.66
31.51
31.95
32.57
32.04
29.77
26.14
22.14
18.82
16.60
14.98
12.71
8.49
1.57
-7.69
-18.01
-27.72
-35.38
-40.45
-43.31
-45.11
-47.29
-51.20
-57.79
-67.33
-78.95
-90.53
-98.76
-100.03
-91.66
-73.09
-46.47
-16.05
13.21
37.33
54.38
64.55
69.36
70.49
69.10
65.71
60.66
54.52
48.34
43.23
39.92
38.42
37.98
37.47
35.94
33.06
29.25
25.42
22.43
20.53
19.13
16.97
12.75
5.75
-3.63
-14.00
-23.59
-30.95
-35.65
-38.41
-40.70
-44.25
-50.36
-59.58
-71.40
-84.17
-95.08
-100.67
-97.72
-84.54
-61.88
-32.99
-2.65
24.50
45.43
59.42
67.56
71.64
73.04
72.28
69.36
64.35
57.95
51.44
46.21
43.10
42.11
42.42
42.76
42.03
39.70
35.98
31.63
27.48
23.99
20.96
17.63
13.05
6.60
-1.68
-11.02
-20.23
-28.16
-34.17
-38.30
-41.18
-43.78
-47.07
-51.92
-58.97
-68.35
-79.36
-90.03
-97.24
-97.46
-88.05
-68.55
-41.29
-10.69
18.27
41.68
57.90
67.44
71.99
73.22
72.00
68.53
62.85
55.51
47.67
40.81
36.08
33.90
33.81
34.67
35.20
34.42
32.00
28.26
24.00
20.07
16.95
14.46
11.86
8.16
2.62
-4.84
-13.50
-22.11
-29.43
-34.79
-38.27
-40.68
-43.10
-46.52
-51.55
-58.45
-67.13
-76.88
-86.21
-92.59
-93.00
-84.92
-67.55
-42.54
-13.73
14.11
37.04
53.12
62.61
67.08
68.15
66.72
62.90
56.74
48.83
40.55
33.58
29.17
27.53
27.81
28.58
28.52
27.04
24.42
21.52
19.13
17.55
16.28
14.17
10.04
3.27
-5.87
-16.11
-25.76
-33.42
-38.47
-41.38
-43.49
-46.41
-51.52
-59.51
-70.10
-81.95
-92.64
-99.03
-98.00
-87.54
-67.71
-40.96
-11.54
15.83
37.60
52.31
60.58
64.15
64.74
63.31
60.03
54.89
48.42
41.78
36.45
33.48
32.99
34.01
34.97
34.46
31.89
27.74
23.19
19.43
17.03
15.49
13.52
9.64
2.91
-6.47
-17.25
-27.57
-35.85
-41.31
-44.33
-46.17
-48.49
-52.80
-60.09
-70.47
-82.93
-95.18
-103.81
-105.16
-96.52
-77.37
-50.01
-18.97
10.56
34.50
51.01
60.64
65.21
66.65
66.07
63.73
59.64
54.13
48.14
42.95
39.58
38.36
38.78
39.75
40.04
38.78
35.82
31.65
27.14
23.15
20.01
17.39
14.38
9.95
3.46
-4.97
-14.48
-23.77
-31.67
-37.59
-41.70
-44.83
-48.07
-52.54
-59.07
-68.06
-79.13
-90.87
-100.61
-104.97
-100.76
-86.34
-62.63
-33.00
-2.33
24.72
45.19
58.43
65.63
68.78
69.51
68.61
66.21
62.38
57.56
52.58
48.44
45.80
44.75
44.83
45.29
45.42
44.84
43.51
41.57
39.15
36.17
32.52
28.12
23.13
17.94
12.91
8.16
3.45
-1.69
-7.63
-14.41
-21.64
-28.58
-34.57
-39.34
-43.18
-46.81
-51.18
-57.22
-65.58
-76.22
-88.01
-98.47
-104.08
-101.31
-87.97
-64.38
-33.70
-0.97
28.59
51.37
66.19
74.11
77.23
77.41
75.60
71.94
66.42
59.53
52.39
46.39
42.56
41.11
41.31
41.85
41.48
39.53
36.09
31.91
27.86
24.52
21.81
19.13
15.55
10.34
3.24
-5.38
-14.65
-23.46
-30.88
-36.53
-40.56
-43.67
-46.80
-50.89
-56.70
-64.69
-74.79
-85.97
-96.02
-101.72
-99.70
-87.75
-65.98
-37.21
-6.13
22.25
44.36
58.95
66.81
69.68
69.05
65.63
59.60
51.36
42.03
33.39
27.14
24.18
24.08
25.43
26.45
25.92
23.60
20.24
16.97
14.63
13.27
12.08
9.77
5.17
-2.08
-11.37
-21.25
-29.99
-36.33
-40.01
-41.82
-43.28
-46.05
-51.41
-59.77
-70.50
-81.75
-90.70
-94.06
-88.97
-74.15
-50.62
-21.65
8.16
34.41
54.27
66.97
73.47
75.34
73.92
69.91
63.64
55.68
47.11
39.43
33.91
31.01
30.21
30.17
29.48
27.34
23.84
19.85
16.45
14.21
12.88
11.35
8.22
2.47
-5.97
-16.17
-26.50
-35.30
-41.59
-45.42
-47.81
-50.36
-54.68
-61.88
-72.17
-84.56
-96.72
-105.27
-106.60
-98.07
-79.20
-52.17
-21.33
8.28
32.60
49.70
59.88
64.81
66.28
65.39
62.50
57.74
51.60
45.15
39.67
36.08
34.42
33.92
33.31
31.60
28.48
24.51
20.71
17.96
16.46
15.51
13.82
10.15
3.94
-4.40
-13.59
-22.05
-28.54
-32.69
-35.06
-36.92
-39.86
-45.24
-53.88
-65.63
-79.13
-91.69
-99.75
-99.71
-89.30
-68.59
-40.34
-9.23
19.80
43.12
59.42
69.48
75.11
78.01
78.90
77.71
74.25
68.81
62.43
56.54
52.27
50.05
49.39
49.23
48.39
46.15
42.42
37.75
32.95
28.69
25.14
21.84
17.84
12.16
4.28
-5.47
-16.02
-25.87
-33.77
-39.21
-42.59
-45.05
-47.94
-52.45
-59.31
-68.77
-80.32
-92.53
-102.76
-107.58
-103.61
-89.00
-64.41
-33.25
-0.71
28.07
49.67
63.21
70.03
72.36
72.09
70.09
66.40
60.94
54.22
47.38
41.89
38.80
38.23
39.30
40.53
40.51
38.50
34.68
29.95
25.43
21.80
19.02
16.23
12.20
6.01
-2.52
-12.51
-22.41
-30.58
-36.01
-38.75
-39.83
-40.77
-43.02
-47.51
-54.55
-63.85
-74.37
-84.29
-90.90
-91.05
-82.26
-63.78
-37.39
-6.99
22.54
47.14
64.78
75.69
81.51
84.03
84.10
81.52
75.78
67.00
56.46
46.30
38.48
33.76
31.19
28.60
23.69
15.33
4.08
-8.03
-18.61
-26.10
-30.43
-32.90
-35.36
-39.22
-44.87
-51.54
-57.84
-62.42
-64.63
-64.70
-63.60
-62.66
-63.00
-65.47
-70.48
-78.05
-87.55
-97.28
-104.40
-105.35
-97.01
-78.08
-50.07
-17.06
15.60
43.18
63.08
75.28
81.42
83.61
83.23
80.74
76.15
69.82
62.80
56.62
52.58
51.17
51.76
52.91
53.09
51.32
47.56
42.61
37.62
33.46
30.28
27.41
23.67
17.92
9.68
-0.63
-11.75
-22.07
-30.26
-35.80
-39.17
-41.57
-44.54
-49.44
-57.17
-67.91
-80.90
-94.20
-104.70
-108.72
-103.10
-86.54
-60.54
-29.15
2.29
29.01
48.36
60.34
66.78
69.98
71.48
71.56
69.83
65.95
60.42
54.50
49.72
47.09
46.70
47.70
48.76
48.67
46.79
43.16
38.38
33.27
28.45
24.19
20.34
16.38
11.69
5.71
-1.64
-10.01
-18.57
-26.42
-32.92
-37.92
-41.85
-45.46
-49.58
-54.93
-62.06
-71.18
-81.88
-92.63
-100.68
-102.49
-94.91
-76.63
-49.11
-16.44
15.95
43.26
62.76
74.24
79.36
80.26
78.57
74.99
69.74
63.12
55.93
49.35
44.43
41.71
41.02
41.63
42.59
43.08
42.65
41.16
38.69
35.37
31.28
26.46
20.96
14.90
8.47
1.83
-4.93
-11.82
-18.91
-26.13
-33.23
-39.80
-45.34
-49.61
-52.71
-55.16
-57.75
-61.47
-67.24
-75.59
-86.13
-97.09
-105.26
-106.70
-98.19
-78.68
-50.15
-17.17
14.59
40.45
58.09
67.79
71.52
71.54
69.36
65.51
60.06
53.30
46.01
39.36
34.41
31.74
31.24
32.26
33.91
35.33
35.94
35.44
33.76
30.94
27.12
22.42
17.05
11.24
5.26
-0.69
-6.58
-12.49
-18.53
-24.68
-30.68
-36.12
-40.68
-44.28
-47.14
-49.84
-53.04
-57.40
-63.45
-71.39
-80.60
-89.34
-94.72
-93.40
-82.97
-63.29
-37.03
-8.99
15.69
33.44
43.30
46.68
46.07
43.60
40.33
36.31
31.38
25.78
20.30
15.96
13.46
12.97
14.21
16.61
19.67
22.87
25.81
28.12
29.44
29.57
28.47
26.18
22.83
18.44
13.02
6.57
-0.76
-8.58
-16.30
-23.30
-29.11
-33.62
-37.09
-40.06
-43.14
-46.94
-52.03
-58.93
-67.79
-77.98
-87.62
-93.67
-92.71
-82.28
-62.07
-34.51
-4.10
24.19
46.56
61.50
69.74
73.24
73.97
73.05
70.71
66.72
61.11
54.49
48.00
42.80
39.67
38.64
39.03
39.76
39.76
38.46
35.83
32.31
28.51
24.80
21.14
17.15
12.36
6.45
-0.50
-8.05
-15.59
-22.58
-28.68
-33.83
-38.18
-42.04
-45.88
-50.35
-56.28
-64.41
-75.01
-87.23
-98.74
-106.03
-105.34
-94.22
-72.67
-43.60
-11.89
17.29
40.16
55.36
63.80
67.54
68.55
67.89
65.67
61.69
56.13
49.87
44.21
40.36
38.88
39.41
40.90
42.04
41.77
39.73
36.21
32.02
28.03
24.76
22.14
19.50
15.87
10.36
2.62
-6.87
-16.93
-26.08
-33.19
-37.95
-40.97
-43.48
-46.76
-51.68
-58.53
-67.17
-77.17
-87.65
-96.93
-102.39
-100.98
-90.45
-70.76
-44.70
-17.25
6.39
22.83
31.74
35.30
36.66
37.93
39.41
39.90
38.01
33.41
27.15
21.04
16.69
14.71
14.66
15.55
16.54
17.35
18.32
19.91
22.39
25.48
28.49
30.50
30.89
29.44
26.35
22.07
16.96
11.20
4.86
-1.92
-8.85
-15.49
-21.38
-26.33
-30.49
-34.49
-39.22
-45.69
-54.50
-65.32
-76.45
-84.88
-87.09
-80.25
-63.53
-38.63
-9.49
19.16
43.43
61.28
72.76
79.14
81.92
81.96
79.42
74.27
66.87
58.23
49.88
43.30
39.36
38.06
38.55
39.60
40.09
39.36
37.37
34.49
31.27
28.01
24.63
20.71
15.66
9.06
0.98
-7.98
-16.83
-24.52
-30.42
-34.55
-37.59
-40.62
-44.71
-50.73
-59.10
-69.61
-81.17
-91.71
-98.34
-98.00
-88.59
-69.94
-44.22
-15.42
11.99
34.52
50.54
60.25
64.92
65.82
63.69
58.83
51.65
43.12
34.84
28.54
25.38
25.42
27.59
30.16
31.52
30.86
28.41
25.14
22.16
20.05
18.45
16.29
12.25
5.49
-3.86
-14.69
-25.34
-34.25
-40.60
-44.62
-47.36
-50.38
-55.15
-62.69
-73.15
-85.59
-97.81
-106.66
-108.69
-101.26
-83.71
-57.86
-27.65
2.14
27.49
46.27
58.39
65.13
68.04
68.10
65.65
60.80
54.11
46.79
40.39
36.24
34.80
35.54
37.11
38.06
37.35
34.77
30.90
26.65
22.78
19.45
16.10
11.73
5.37
-3.32
-13.84
-24.90
-34.95
-42.75
-47.88
-50.90
-53.03
-55.73
-60.28
-67.51
-77.50
-89.40
-101.18
-109.77
-111.71
-104.27
-86.62
-60.49
-29.82
0.57
26.54
45.90
58.62
66.10
70.11
71.84
71.69
69.59
65.70
60.67
55.67
51.89
50.05
50.03
50.93
51.45
50.48
47.64
43.38
38.73
34.72
31.75
29.38
26.46
21.67
14.17
4.08
-7.50
-18.92
-28.62
-35.76
-40.52
-43.95
-47.59
-52.91
-60.91
-71.83
-84.86
-98.04
-108.34
-112.29
-107.02
-91.44
-66.88
-37.01
-6.58
20.16
40.75
54.94
64.04
69.83
73.46
75.17
74.72
72.04
67.69
62.89
59.01
57.01
56.99
58.15
59.16
58.84
56.57
52.60
47.79
43.14
39.21
35.87
32.25
27.24
20.04
10.55
-0.43
-11.54
-21.38
-29.06
-34.53
-38.57
-42.46
-47.52
-54.82
-64.86
-77.34
-91.00
-103.52
-111.68
-112.20
-102.76
-83.16
-55.68
-24.57
5.32
30.16
48.17
59.65
66.12
69.21
69.84
68.25
64.51
59.07
52.98
47.65
44.24
43.14
43.83
45.14
45.78
44.85
42.22
38.39
34.20
30.36
26.99
23.60
19.25
13.05
4.62
-5.63
-16.51
-26.53
-34.43
-39.67
-42.59
-44.28
-46.15
-49.55
-55.45
-64.19
-75.32
-87.29
-97.41
-102.30
-98.83
-85.36
-62.65
-33.93
-3.88
22.87
43.30
56.57
63.69
66.37
66.04
63.38
58.55
51.85
44.07
36.55
30.74
27.57
27.05
28.30
29.87
30.36
29.00
25.86
21.77
17.84
14.78
12.55
10.34
6.84
1.07
-7.18
-17.08
-27.10
-35.70
-41.98
-46.01
-48.71
-51.45
-55.55
-61.94
-71.06
-82.71
-95.72
-107.82
-115.72
-115.88
-105.76
-85.03
-56.04
-23.27
8.20
34.40
53.49
65.77
72.80
76.24
77.08
75.65
72.11
66.98
61.34
56.51
53.49
52.44
52.62
52.73
51.57
48.58
44.10
39.15
34.82
31.75
29.69
27.59
24.10
18.16
9.55
-0.99
-12.02
-21.97
-29.75
-35.10
-38.68
-41.75
-45.74
-51.84
-60.78
-72.64
-86.52
-100.37
-111.02
-114.85
-108.95
-92.33
-66.59
-35.68
-4.54
22.49
43.02
56.87
65.37
70.28
72.78
73.25
71.65
68.11
63.32
58.45
54.72
52.82
52.68
53.51
54.19
53.80
51.91
48.72
44.80
40.76
36.98
33.43
29.67
25.06
19.04
11.41
2.43
-7.11
-16.20
-23.91
-29.82
-34.12
-37.62
-41.44
-46.70
-54.26
-64.48
-76.94
-90.16
-101.48
-107.45
-104.88
-92.02
-69.57
-40.78
-10.35
17.04
38.30
52.61
60.96
65.17
66.81
66.65
64.81
61.30
56.45
51.11
46.37
43.15
41.85
42.17
43.33
44.34
44.43
43.24
40.87
37.67
34.05
30.29
26.42
22.29
17.56
11.92
5.17
-2.61
-10.98
-19.27
-26.74
-32.88
-37.71
-41.67
-45.54
-50.17
-56.34
-64.59
-75.10
-87.25
-99.31
-108.39
-110.99
-104.23
-87.14
-61.42
-31.11
-1.22
23.97
42.22
53.55
59.47
61.72
61.44
58.97
54.40
48.24
41.67
36.22
33.16
32.83
34.48
36.59
37.56
36.48
33.42
29.32
25.47
22.71
21.00
19.42
16.60
11.47
3.79
-5.63
-15.27
-23.61
-29.71
-33.62
-36.25
-38.98
-43.10
-49.55
-58.64
-70.04
-82.42
-93.48
-100.06
-99.02
-88.42
-68.48
-41.93
-13.17
13.24
34.09
48.34
56.83
61.22
62.90
62.43
59.80
55.13
49.20
43.38
39.15
37.40
37.97
39.76
41.25
41.20
39.22
35.74
31.84
28.53
26.23
24.53
22.28
18.15
11.26
1.70
-9.46
-20.50
-29.80
-36.44
-40.57
-43.25
-45.99
-50.22
-56.92
-66.36
-77.90
-89.81
-99.33
-103.09
-98.16
-83.26
-59.56
-30.57
-1.06
24.61
43.86
56.36
63.46
67.04
68.45
68.06
65.62
60.96
54.59
47.74
41.92
38.30
37.14
37.69
38.57
38.40
36.40
32.64
27.85
22.99
18.68
14.93
11.18
6.55
0.37
-7.57
-16.90
-26.79
-36.26
-44.51
-51.12
-56.19
-60.21
-63.89
-68.08
-73.66
-81.37
-91.46
-103.24
-114.65
-122.48
-123.15
-114.07
-94.90
-67.96
-37.63
-8.82
14.68
31.28
41.46
46.96
49.57
50.36
49.69
47.58
44.32
40.61
37.44
35.58
35.29
36.24
37.63
38.64
38.67
37.57
35.52
32.88
29.96
26.89
23.56
19.67
14.91
9.06
2.17
-5.45
-13.20
-20.41
-26.54
-31.28
-34.77
-37.43
-39.85
-42.74
-46.76
-52.48
-60.15
-69.36
-78.60
-85.33
-86.51
-79.67
-64.08
-41.30
-14.82
11.08
32.85
48.67
58.62
64.03
66.36
66.58
64.96
61.51
56.55
50.92
45.90
42.64
41.66
42.63
44.51
46.04
46.28
44.96
42.51
39.68
37.13
35.08
33.22
30.86
27.26
21.95
14.99
7.01
-0.98
-8.00
-13.42
-17.24
-20.16
-23.15
-27.24
-33.12
-41.07
-50.90
-61.76
-72.03
-79.38
-81.22
-75.51
-61.75
-41.44
-17.83
5.16
24.21
37.64
45.46
48.82
49.06
47.07
43.23
37.76
31.23
24.60
19.02
15.25
13.35
12.66
12.16
11.08
9.30
7.34
6.03
5.89
6.71
7.60
7.31
4.88
0.13
-6.22
-12.90
-18.61
-22.52
-24.65
-25.74
-26.98
-29.59
-34.44
-41.86
-51.35
-61.55
-70.17
-74.47
-71.96
-61.35
-43.25
-20.19
4.12
26.02
43.03
54.37
60.64
63.04
62.60
59.87
55.13
48.88
42.08
35.99
31.71
29.61
29.22
29.49
29.29
27.99
25.63
22.81
20.21
18.08
16.09
13.38
9.07
2.70
-5.38
-14.16
-22.35
-28.90
-33.52
-36.69
-39.40
-42.87
-48.06
-55.48
-64.91
-75.28
-84.54
-89.95
-88.85
-79.57
-62.31
-39.37
-14.39
8.84
27.65
41.08
49.65
54.55
56.80
56.87
54.94
51.35
46.86
42.63
39.74
38.72
39.29
40.54
41.31
40.79
38.81
35.89
32.89
30.56
29.02
27.69
25.47
21.34
14.85
6.45
-2.72
-11.30
-18.27
-23.33
-26.97
-30.19
-34.15
-39.86
-47.84
-57.83
-68.56
-77.81
-82.72
-80.78
-70.71
-53.18
-30.74
-6.95
14.74
32.08
44.40
52.20
56.51
58.16
57.61
55.10
51.02
46.12
41.40
37.87
36.14
36.19
37.42
38.86
39.54
38.87
36.84
33.93
30.89
28.30
26.25
24.33
21.76
17.81
12.22
5.37
-1.85
-8.37
-13.43
-16.88
-19.23
-21.45
-24.53
-29.27
-36.09
-44.97
-55.35
-65.92
-74.59
-78.78
-76.16
-65.60
-47.87
-25.59
-2.47
18.03
33.74
44.20
50.25
53.14
53.93
53.09
50.80
47.31
43.22
39.35
36.48
35.05
35.00
35.89
37.10
38.06
38.37
37.80
36.38
34.22
31.54
28.46
25.04
21.16
16.63
11.26
5.05
-1.70
-8.48
-14.72
-20.04
-24.42
-28.19
-31.85
-35.90
-40.74
-46.58
-53.57
-61.64
-70.22
-78.01
-82.92
-82.57
-75.22
-60.63
-40.53
-18.17
2.77
19.44
30.63
36.76
39.25
39.54
38.50
36.36
33.03
28.67
23.91
19.75
17.17
16.74
18.35
21.26
24.38
26.64
27.37
26.47
24.35
21.68
19.05
16.66
14.27
11.33
7.28
1.91
-4.52
-11.24
-17.42
-22.47
-26.32
-29.39
-32.37
-35.88
-40.35
-45.92
-52.51
-59.59
-66.05
-70.17
-69.92
-63.66
-50.95
-32.98
-12.33
7.88
25.09
38.01
46.69
51.88
54.38
54.52
52.27
47.62
41.07
33.79
27.28
22.88
21.25
22.11
24.44
26.90
28.36
28.30
26.83
24.57
22.25
20.38
19.05
17.93
16.43
13.96
10.09
4.79
-1.58
-8.35
-14.80
-20.32
-24.69
-28.06
-30.90
-33.82
-37.45
-42.36
-48.85
-56.74
-65.07
-71.99
-75.05
-71.92
-61.40
-44.03
-22.23
0.53
20.84
36.46
46.78
52.53
55.06
55.54
54.60
52.45
49.23
45.27
41.20
37.68
35.10
33.48
32.43
31.42
30.01
28.03
25.56
22.86
20.17
17.60
15.07
12.38
9.33
5.77
1.66
-2.89
-7.68
-12.50
-17.12
-21.32
-24.98
-28.05
-30.64
-33.01
-35.57
-38.88
-43.51
-49.81
-57.58
-65.74
-72.32
-74.85
-71.16
-60.28
-43.03
-21.88
-0.16
19.00
33.69
43.46
48.99
51.41
51.68
50.35
47.68
43.96
39.71
35.58
32.22
29.96
28.76
28.23
27.92
27.44
26.69
25.72
24.62
23.35
21.72
19.45
16.40
12.71
8.71
4.81
1.24
-2.03
-5.30
-8.91
-13.02
-17.53
-22.09
-26.26
-29.75
-32.55
-34.95
-37.40
-40.51
-44.86
-50.90
-58.53
-66.83
-73.92
-77.24
-74.37
-64.03
-46.82
-25.22
-2.82
16.94
31.88
41.52
46.74
49.01
49.57
48.97
47.35
44.68
41.24
37.58
34.36
32.08
30.88
30.56
30.66
30.72
30.44
29.69
28.44
26.67
24.26
21.08
17.07
12.30
7.04
1.67
-3.48
-8.22
-12.57
-16.71
-20.80
-24.86
-28.72
-32.13
-34.93
-37.20
-39.31
-41.93
-45.73
-51.12
-57.79
-64.50
-69.16
-69.44
-63.57
-51.18
-33.67
-13.77
5.36
21.26
32.81
40.24
44.46
46.33
46.19
44.00
39.81
34.19
28.30
23.47
20.69
20.18
21.36
23.16
24.52
24.74
23.71
21.78
19.59
17.62
16.05
14.64
12.78
9.84
5.45
-0.27
-6.68
-12.81
-17.77
-21.04
-22.70
-23.37
-23.98
-25.46
-28.56
-33.71
-40.76
-48.86
-56.40
-61.15
-60.95
-54.53
-42.07
-25.40
-7.40
9.03
21.91
30.65
35.89
38.69
39.91
39.83
38.34
35.34
31.22
26.81
23.18
21.15
20.93
22.05
23.60
24.58
24.39
22.94
20.62
18.01
15.59
13.43
11.20
8.35
4.37
-0.91
-7.18
-13.76
-19.88
-24.91
-28.62
-31.21
-33.19
-35.24
-38.05
-42.21
-48.13
-55.77
-64.38
-72.32
-77.22
-76.67
-69.11
-54.58
-34.94
-13.32
6.87
23.09
34.25
40.69
43.53
44.02
42.98
40.79
37.66
33.96
30.34
27.58
26.24
26.44
27.76
29.39
30.50
30.56
29.49
27.65
25.60
23.83
22.51
21.43
20.06
17.76
14.06
8.83
2.46
-4.23
-10.28
-14.96
-18.04
-19.87
-21.23
-23.05
-26.11
-30.93
-37.62
-45.74
-54.12
-60.82
-63.39
-59.61
-48.40
-30.54
-8.60
13.78
33.25
47.81
57.25
62.78
66.11
68.55
70.58
72.06
72.60
72.06
70.67
68.90
67.23
65.89
64.87
63.94
62.82
61.33
59.41
57.17
54.89
52.90
51.54
50.84
50.44
49.40
46.38
40.09
29.76
15.62
-1.05
-18.27
-34.05
-47.03
-56.93
-64.44
-70.78
-77.26
-84.84
-93.94
-104.34
-115.00
-124.04
-128.98
-127.38
-117.78
-100.55
-78.06
-54.05
-32.37
-15.79
-5.18
0.39
2.77
3.89
4.96
6.37
8.06
9.86
11.85
14.29
17.43
21.23
25.27
28.83
31.13
31.73
30.65
28.42
25.80
23.54
21.99
21.04
20.14
18.63
15.99
12.22
7.77
3.39
-0.24
-2.91
-4.89
-6.91
-9.73
-13.88
-19.60
-26.81
-35.27
-44.42
-53.25
-60.10
-62.96
-60.14
-50.97
-36.35
-18.54
-0.41
15.50
27.71
35.90
40.53
42.27
41.65
39.06
35.03
30.34
25.97
22.81
21.38
21.57
22.84
24.45
25.79
26.62
27.01
27.10
26.93
26.26
24.65
21.72
17.42
12.13
6.60
1.68
-2.02
-4.35
-5.62
-6.54
-7.96
-10.73
-15.44
-22.15
-30.04
-37.28
-41.32
-39.53
-30.31
-13.87
7.50
30.03
49.71
63.62
70.58
71.22
67.19
60.31
51.99
43.12
34.37
26.42
19.96
15.36
12.39
10.22
7.67
3.86
-1.36
-7.34
-12.95
-17.17
-19.67
-21.00
-22.30
-24.82
-29.30
-35.59
-42.85
-49.91
-55.87
-60.60
-64.69
-69.26
-75.54
-84.44
-96.18
-110.03
-124.08
-135.41
-140.65
-136.89
-122.73
-99.06
-68.94
-36.69
-6.51
18.70
37.91
51.59
60.99
67.28
71.26
73.33
73.87
73.27
72.03
70.55
69.03
67.43
65.68
63.72
61.49
58.93
55.76
51.57
45.99
38.82
30.14
20.25
9.54
-1.71
-13.39
-25.57
-38.40
-52.01
-66.57
-82.12
-98.30
-113.93
-126.81
-134.02
-132.77
-121.59
-101.14
-74.26
-45.11
-17.75
5.04
22.28
34.49
42.80
48.21
51.23
52.01
50.73
47.84
44.12
40.48
37.68
36.18
35.99
36.71
37.61
37.80
36.51
33.18
27.73
20.46
11.99
3.08
-5.54
-13.33
-19.99
-25.54
-30.45
-35.60
-42.09
-50.72
-61.31
-72.28
-80.70
-83.23
-77.35
-62.57
-40.81
-15.85
8.08
27.60
41.09
48.63
51.31
50.45
47.14
42.18
36.38
30.67
26.07
23.38
22.84
24.04
26.07
27.94
28.95
28.95
28.25
27.30
26.32
25.10
23.06
19.60
14.43
7.83
0.51
-6.69
-13.13
-18.68
-23.69
-28.93
-35.33
-43.72
-54.40
-66.58
-78.19
-86.10
-87.01
-78.70
-61.10
-36.58
-9.28
16.33
36.90
50.92
58.69
61.54
60.86
57.69
52.69
46.52
40.10
34.58
30.94
29.60
30.11
31.43
32.35
32.07
30.52
28.28
26.17
24.68
23.60
22.16
19.24
14.04
6.51
-2.60
-12.02
-20.48
-27.16
-32.06
-35.87
-39.71
-44.70
-51.64
-60.65
-70.88
-80.40
-86.49
-86.30
-77.91
-61.25
-38.53
-13.70
8.85
25.73
35.49
38.70
37.11
32.62
26.55
19.53
11.95
4.37
-2.26
-6.93
-9.03
-8.66
-6.54
-3.76
-1.14
0.94
2.59
4.05
5.32
5.97
5.22
2.36
-2.88
-10.07
-18.21
-26.03
-32.52
-37.26
-40.50
-43.04
-45.97
-50.32
-56.63
-64.54
-72.59
-78.31
-78.84
-71.94
-56.99
-35.39
-10.36
14.17
34.83
49.70
58.53
62.20
61.89
58.61
53.00
45.67
37.49
29.72
23.60
19.93
18.69
19.12
20.07
20.53
20.12
19.08
18.02
17.50
17.59
17.76
17.00
14.32
9.14
1.64
-7.27
-16.21
-23.92
-29.66
-33.50
-36.32
-39.39
-44.06
-51.24
-61.01
-72.40
-83.32
-90.90
-92.17
-85.12
-69.48
-46.99
-21.00
4.69
26.96
44.14
56.11
63.62
67.63
68.71
67.11
63.15
57.52
51.41
46.12
42.65
41.25
41.39
42.06
42.25
41.39
39.45
36.86
34.14
31.57
28.92
25.57
20.75
13.98
5.39
-4.18
-13.48
-21.30
-26.99
-30.74
-33.44
-36.27
-40.35
-46.35
-54.39
-63.95
-73.75
-81.67
-85.11
-81.68
-70.11
-50.99
-26.84
-1.31
22.04
40.84
54.40
63.35
68.80
71.66
72.28
70.77
67.36
62.76
57.99
54.13
51.81
51.10
51.51
52.34
52.90
52.74
51.67
49.72
47.09
43.97
40.50
36.76
32.72
28.25
23.22
17.52
11.15
4.30
-2.68
-9.33
-15.25
-20.19
-24.22
-27.74
-31.42
-36.09
-42.52
-51.12
-61.59
-72.56
-81.59
-85.64
-82.08
-69.67
-49.33
-23.99
2.34
25.93
44.38
57.10
64.82
68.81
70.13
69.33
66.68
62.53
57.44
52.25
47.72
44.29
41.96
40.39
39.06
37.41
35.05
31.76
27.49
22.34
16.61
10.62
4.80
-0.56
-5.30
-9.49
-13.38
-17.26
-21.29
-25.46
-29.61
-33.56
-37.22
-40.66
-44.07
-47.75
-51.95
-56.97
-63.08
-70.26
-78.00
-84.88
-88.74
-87.16
-78.41
-62.29
-40.43
-15.91
7.73
27.61
42.19
51.27
55.57
56.01
53.36
48.20
41.23
33.51
26.45
21.49
19.61
20.98
24.84
29.77
34.23
37.07
37.94
37.17
35.53
33.69
31.87
29.81
26.96
22.83
17.32
10.87
4.26
-1.67
-6.39
-9.81
-12.28
-14.38
-16.81
-20.30
-25.49
-32.80
-42.01
-51.93
-60.28
-64.10
-60.80
-49.27
-30.53
-7.67
15.36
35.04
49.43
58.27
62.52
63.38
61.60
57.43
51.04
43.05
34.68
27.53
22.99
21.70
23.28
26.54
29.89
31.96
32.00
30.03
26.70
22.85
19.10
15.52
11.62
6.68
0.18
-7.86
-16.72
-25.32
-32.59
-37.93
-41.45
-43.89
-46.26
-49.66
-54.98
-62.83
-73.28
-85.52
-97.58
-106.41
-108.60
-101.51
-84.43
-59.17
-29.63
-0.46
24.41
42.91
54.92
61.70
64.81
65.41
64.02
60.83
56.10
50.48
44.94
40.52
37.95
37.37
38.28
39.71
40.53
39.98
37.84
34.48
30.65
26.97
23.62
20.20
15.89
9.87
1.77
-8.07
-18.71
-28.87
-37.44
-43.89
-48.41
-51.76
-55.01
-59.16
-65.00
-72.95
-82.90
-93.90
-103.93
-110.08
-109.19
-99.00
-79.23
-52.09
-21.72
7.14
30.72
47.20
56.85
61.21
62.03
60.53
57.30
52.59
46.86
40.94
35.90
32.68
31.68
32.65
34.82
37.23
39.10
40.01
39.83
38.61
36.39
33.10
28.65
23.08
16.67
9.82
2.97
-3.68
-10.13
-16.51
-22.85
-28.98
-34.46
-38.89
-42.15
-44.57
-46.94
-50.28
-55.54
-63.26
-73.19
-84.03
-93.35
-98.01
-95.01
-82.59
-61.17
-33.46
-3.76
23.41
44.73
58.88
66.42
68.98
68.27
65.45
61.08
55.51
49.25
43.05
37.76
33.85
31.35
29.81
28.65
27.56
26.54
25.81
25.56
25.62
25.42
24.15
21.12
16.09
9.47
2.15
-4.89
-11.01
-16.15
-20.78
-25.57
-30.92
-36.77
-42.61
-47.78
-51.86
-54.94
-57.50
-60.33
-64.26
-69.99
-77.94
-87.87
-98.51
-107.33
-110.95
-106.14
-91.18
-66.85
-36.46
-4.92
23.02
44.26
57.92
65.07
67.53
66.90
64.06
59.41
53.32
46.60
40.42
35.95
33.90
34.21
36.19
38.85
41.24
42.71
42.93
41.80
39.29
35.42
30.31
24.20
17.41
10.23
2.86
-4.61
-12.13
-19.62
-26.86
-33.61
-39.66
-44.99
-49.74
-54.20
-58.73
-63.73
-69.62
-76.83
-85.44
-94.82
-103.24
-107.98
-106.05
-95.29
-75.42
-48.49
-18.38
10.39
34.14
51.03
61.09
65.65
66.37
64.56
60.99
56.19
50.74
45.45
41.22
38.72
38.13
39.07
40.83
42.70
44.16
44.92
44.83
43.79
41.60
38.14
33.42
27.67
21.31
14.79
8.35
2.01
-4.42
-11.12
-18.10
-25.03
-31.51
-37.14
-41.78
-45.71
-49.55
-54.09
-60.19
-68.47
-79.05
-91.03
-102.33
-109.81
-110.10
-100.78
-81.53
-54.51
-23.80
5.92
30.93
49.33
61.12
67.46
69.78
69.23
66.54
62.37
57.50
52.85
49.23
47.08
46.32
46.48
46.96
47.30
47.31
46.95
46.17
44.81
42.55
39.17
34.57
28.96
22.74
16.35
9.99
3.66
-2.88
-9.82
-17.16
-24.64
-31.84
-38.28
-43.66
-47.99
-51.60
-55.16
-59.58
-65.81
-74.55
-85.69
-97.86
-108.33
-113.49
-110.02
-96.22
-72.93
-43.41
-12.42
15.47
37.20
51.83
60.19
63.94
64.64
63.32
60.56
56.85
52.80
49.17
46.57
45.28
45.09
45.49
45.95
46.19
46.22
46.17
46.05
45.54
44.06
40.93
35.78
28.74
20.56
12.25
4.76
-1.47
-6.65
-11.41
-16.51
-22.37
-28.87
-35.48
-41.49
-46.39
-50.07
-52.94
-55.76
-59.54
-65.24
-73.52
-84.25
-95.99
-105.95
-110.48
-106.22
-91.49
-67.18
-36.69
-4.86
23.65
45.83
60.77
69.28
72.92
73.06
70.56
65.96
59.94
53.46
47.78
43.88
42.20
42.44
43.79
45.33
46.46
47.10
47.42
47.72
47.91
47.47
45.58
41.50
34.98
26.50
17.19
8.43
1.31
-3.78
-7.37
-10.53
-14.54
-20.11
-27.20
-34.97
-42.21
-47.92
-51.80
-54.28
-56.40
-59.43
-64.47
-72.24
-82.62
-94.41
-105.15
-111.40
-109.68
-97.72
-75.53
-45.77
-13.00
17.85
43.01
60.80
71.50
76.55
77.57
75.80
72.07
67.12
61.80
57.16
54.03
52.77
53.16
54.54
56.13
57.46
58.41
59.15
59.78
60.07
59.35
56.69
51.32
43.02
32.39
20.70
9.44
-0.20
-7.78
-13.71
-18.96
-24.60
-31.19
-38.60
-46.07
-52.58
-57.42
-60.46
-62.28
-63.95
-66.76
-71.84
-79.77
-90.21
-101.46
-110.56
-113.80
-107.98
-91.66
-66.02
-34.70
-2.62
25.57
47.01
60.97
68.43
71.04
70.20
66.74
61.13
54.00
46.46
39.97
35.83
34.66
36.05
38.85
41.57
43.14
43.29
42.49
41.52
40.86
40.35
39.13
36.10
30.49
22.35
12.66
2.93
-5.34
-11.40
-15.43
-18.45
-21.86
-26.69
-33.16
-40.59
-47.74
-53.39
-56.94
-58.65
-59.57
-61.18
-65.01
-72.20
-83.01
-96.45
-110.07
-120.17
-122.69
-114.47
-94.60
-65.01
-30.14
4.53
34.22
56.18
70.08
77.38
80.08
79.77
77.28
72.93
67.07
60.60
54.78
50.87
49.55
50.64
53.11
55.63
57.08
56.99
55.58
53.55
51.56
49.80
47.86
44.86
39.89
32.53
23.13
12.82
3.09
-4.78
-10.30
-13.97
-17.05
-20.96
-26.65
-34.09
-42.31
-49.91
-55.64
-59.02
-60.56
-61.57
-63.67
-68.34
-76.61
-88.52
-102.86
-116.94
-126.90
-128.61
-119.10
-97.80
-67.16
-31.93
2.35
31.18
52.27
65.69
72.94
75.89
75.84
73.50
69.30
63.86
58.19
53.48
50.66
50.04
51.23
53.34
55.36
56.57
56.73
56.02
54.89
53.68
52.45
50.83
48.23
44.09
38.15
30.68
22.43
14.41
7.54
2.25
-1.68
-5.05
-8.94
-14.20
-21.09
-29.10
-37.18
-44.18
-49.33
-52.65
-54.89
-57.34
-61.38
-68.18
-78.31
-91.46
-106.03
-119.11
-126.78
-125.26
-112.25
-88.06
-55.88
-20.76
11.98
38.50
57.28
68.91
74.98
77.11
76.31
73.12
68.19
62.53
57.55
54.43
53.71
55.01
57.27
59.21
59.90
59.08
57.16
54.86
52.79
51.10
49.40
46.86
42.72
36.56
28.67
19.92
11.57
4.74
0.01
-2.89
-4.96
-7.52
-11.70
-17.94
-25.77
-34.06
-41.47
-47.07
-50.70
-53.11
-55.63
-59.78
-66.80
-77.26
-90.74
-105.45
-118.31
-125.41
-123.05
-109.12
-84.16
-51.50
-16.28
16.23
42.26
60.36
71.14
76.20
77.11
74.84
70.02
63.39
56.15
49.79
45.60
44.07
44.78
46.61
48.30
49.05
48.77
47.97
47.30
47.07
46.90
45.87
42.90
37.32
29.31
19.92
10.69
2.95
-2.68
-6.63
-10.10
-14.36
-20.18
-27.42
-35.11
-42.00
-47.12
-50.27
-52.04
-53.55
-56.10
-60.85
-68.54
-79.22
-91.87
-104.11
-112.40
-112.87
-102.70
-81.48
-51.65
-17.95
14.23
40.62
59.18
70.16
75.14
75.86
73.48
68.60
61.73
53.79
46.18
40.35
37.20
36.76
38.26
40.57
42.75
44.34
45.36
45.98
46.14
45.43
43.20
38.92
32.46
24.32
15.47
7.06
-0.10
-5.78
-10.45
-15.00
-20.30
-26.72
-34.00
-41.31
-47.73
-52.69
-56.29
-59.35
-63.11
-68.88
-77.66
-89.59
-103.55
-116.93
-125.96
-126.65
-116.18
-94.14
-63.03
-27.64
6.52
34.95
55.41
67.98
74.29
76.34
75.62
72.93
68.73
63.62
58.49
54.34
51.86
51.09
51.43
52.02
52.23
51.91
51.34
50.89
50.57
49.89
48.00
44.16
38.14
30.45
22.07
14.08
7.16
1.31
-4.00
-9.55
-15.94
-23.29
-31.11
-38.59
-44.91
-49.64
-52.93
-55.57
-58.78
-63.89
-71.88
-82.90
-95.69
-107.49
-114.44
-112.75
-100.15
-76.99
-46.44
-13.52
16.60
40.31
56.40
65.73
70.16
71.39
70.41
67.60
63.33
58.30
53.68
50.62
49.71
50.75
52.78
54.61
55.31
54.67
53.15
51.53
50.40
49.69
48.67
46.24
41.60
34.69
26.34
17.94
10.87
5.78
2.43
-0.26
-3.63
-8.64
-15.44
-23.34
-31.14
-37.68
-42.40
-45.51
-47.89
-50.75
-55.20
-62.05
-71.67
-83.64
-96.52
-107.61
-113.33
-110.19
-96.17
-71.84
-40.54
-7.41
22.40
45.33
60.27
68.15
70.94
70.46
67.92
63.93
59.03
53.99
49.78
47.16
46.35
46.90
47.91
48.52
48.29
47.33
46.14
45.12
44.27
43.03
40.51
35.91
29.03
20.39
11.15
2.67
-4.07
-8.79
-12.10
-15.11
-18.97
-24.31
-30.92
-38.00
-44.40
-49.31
-52.56
-54.65
-56.63
-59.73
-65.03
-73.07
-83.44
-94.41
-102.95
-105.39
-98.62
-81.42
-55.24
-24.05
7.05
33.46
52.54
63.99
69.24
70.30
68.72
65.23
60.03
53.46
46.36
40.05
35.90
34.69
36.31
39.77
43.62
46.47
47.51
46.54
43.94
40.30
36.09
31.48
26.33
20.38
13.44
5.54
-3.02
-11.74
-20.05
-27.44
-33.60
-38.48
-42.32
-45.68
-49.23
-53.80
-60.13
-68.67
-79.26
-90.66
-100.49
-105.46
-102.39
-89.34
-66.69
-37.33
-5.90
22.75
45.11
59.90
67.91
70.98
70.87
68.61
64.48
58.62
51.53
44.27
38.20
34.42
33.31
34.41
36.64
38.76
39.82
39.37
37.48
34.43
30.57
26.10
21.12
15.63
9.59
2.99
-4.20
-11.94
-20.06
-28.22
-35.90
-42.59
-47.94
-52.02
-55.31
-58.66
-63.05
-69.37
-78.22
-89.47
-101.85
-112.80
-118.74
-116.14
-102.84
-79.22
-48.42
-15.35
14.94
38.94
55.50
65.50
70.83
73.10
73.16
71.14
67.17
61.80
56.17
51.55
48.85
48.24
49.16
50.77
52.33
53.50
54.22
54.41
53.68
51.37
46.84
39.88
31.00
21.22
11.66
2.94
-5.15
-13.49
-23.26
-35.24
-49.43
-64.84
-79.79
-92.42
-101.27
-105.71
-106.15
-103.86
-100.59
-98.30
-98.71
-102.98
-111.15
-121.61
-130.91
-134.42
-127.85
-109.01
-79.19
-42.91
-6.48
24.41
46.59
60.03
66.93
70.09
71.37
71.41
70.14
67.60
64.56
62.24
61.66
63.07
65.81
68.67
70.54
70.92
70.03
68.45
66.63
64.56
61.72
57.40
51.17
43.23
34.40
25.84
18.55
12.97
8.78
5.11
1.02
-4.05
-10.06
-16.45
-22.46
-27.60
-31.86
-35.70
-39.93
-45.49
-53.16
-63.30
-75.40
-87.70
-97.36
-100.94
-95.68
-80.64
-57.38
-29.57
-1.74
22.22
40.22
52.07
58.92
62.22
63.05
61.95
59.16
55.18
50.77
46.96
44.53
43.81
44.55
46.05
47.54
48.44
48.53
47.86
46.60
44.80
42.29
38.85
34.25
28.57
22.14
15.50
9.13
3.30
-2.06
-7.28
-12.66
-18.34
-24.13
-29.64
-34.45
-38.42
-41.70
-44.88
-48.78
-54.26
-61.89
-71.47
-81.74
-90.27
-94.02
-90.25
-77.67
-57.24
-31.91
-5.82
17.22
34.85
46.53
53.11
56.02
56.40
54.91
51.91
47.79
43.30
39.34
36.67
35.66
36.15
37.63
39.39
40.79
41.31
40.60
38.48
34.95
30.25
24.81
19.14
13.54
8.04
2.40
-3.68
-10.30
-17.20
-23.85
-29.69
-34.41
-38.18
-41.44
-44.83
-48.86
-53.92
-60.36
-68.43
-77.98
-88.06
-96.61
-100.68
-97.45
-85.35
-65.02
-39.38
-12.61
11.32
29.88
42.49
50.03
53.92
55.31
54.76
52.54
49.07
45.15
41.79
39.84
39.63
40.82
42.66
44.36
45.42
45.72
45.38
44.55
43.19
41.07
37.87
33.42
27.92
21.82
15.65
9.82
4.38
-0.95
-6.59
-12.80
-19.53
-26.36
-32.75
-38.27
-42.83
-46.76
-50.73
-55.61
-62.18
-70.91
-81.52
-92.71
-102.05
-106.45
-103.11
-90.68
-69.94
-43.77
-16.20
8.91
29.01
43.24
52.22
57.15
59.22
59.32
57.95
55.67
53.11
50.92
49.58
49.24
49.69
50.44
51.04
51.15
50.73
49.93
48.90
47.58
45.65
42.65
38.24
32.51
25.95
19.31
13.21
7.81
2.80
-2.41
-8.37
-15.21
-22.56
-29.73
-35.99
-40.92
-44.60
-47.56
-50.68
-54.95
-61.21
-69.74
-79.95
-90.11
-97.50
-99.11
-92.65
-77.56
-55.43
-29.58
-3.96
18.12
34.91
46.29
53.23
57.02
58.61
58.52
57.08
54.73
52.18
50.20
49.46
50.12
51.88
54.05
55.87
56.77
56.60
55.50
53.81
51.81
49.54
46.82
43.35
38.85
33.29
26.91
20.21
13.80
8.23
3.78
0.32
-2.64
-5.76
-9.65
-14.53
-20.20
-26.07
-31.47
-35.87
-39.16
-41.58
-43.78
-46.56
-50.78
-57.16
-65.93
-76.50
-87.15
-95.15
-97.42
-91.57
-76.90
-54.90
-28.91
-2.98
19.44
36.43
47.81
54.58
58.01
59.04
58.09
55.33
51.18
46.46
42.23
39.44
38.50
39.13
40.55
41.86
42.44
42.14
41.23
40.12
39.06
37.93
36.31
33.68
29.68
24.36
18.19
11.93
6.38
2.02
-1.17
-3.76
-6.59
-10.39
-15.42
-21.38
-27.57
-33.20
-37.75
-41.13
-43.70
-46.06
-49.02
-53.30
-59.39
-67.25
-75.89
-83.31
-86.80
-83.85
-73.07
-54.96
-31.94
-7.55
14.64
32.14
43.99
50.60
53.14
52.90
50.88
47.71
43.92
39.98
36.47
33.85
32.45
32.23
32.86
33.82
34.65
35.05
34.87
34.09
32.66
30.38
27.04
22.56
17.12
11.23
5.55
0.60
-3.44
-6.77
-9.93
-13.43
-17.56
-22.18
-26.88
-31.08
-34.42
-36.91
-38.87
-41.00
-44.12
-49.02
-56.11
-65.05
-74.40
-81.80
-84.40
-79.93
-67.59
-48.51
-25.58
-2.40
17.82
33.21
43.42
49.23
51.82
52.25
51.17
49.01
46.14
43.07
40.35
38.42
37.46
37.27
37.47
37.61
37.42
36.83
35.92
34.66
32.90
30.30
26.53
21.55
15.72
9.70
4.20
-0.34
-4.04
-7.42
-11.15
-15.63
-20.80
-26.18
-31.07
-34.96
-37.75
-39.78
-41.69
-44.25
-48.22
-54.12
-61.97
-70.89
-79.02
-83.79
-82.66
-74.10
-58.41
-37.74
-15.34
5.47
22.42
34.71
42.72
47.43
49.76
50.28
49.37
47.41
44.95
42.65
41.03
40.28
40.20
40.38
40.37
39.98
39.29
38.61
38.21
38.06
37.74
36.60
33.95
29.51
23.49
16.68
10.02
4.31
-0.18
-3.74
-7.06
-10.87
-15.54
-20.92
-26.45
-31.43
-35.41
-38.35
-40.70
-43.20
-46.68
-51.86
-59.01
-67.68
-76.50
-83.27
-85.40
-80.78
-68.61
-49.87
-27.18
-3.93
16.72
32.78
43.71
50.11
53.10
53.76
52.80
50.69
47.89
44.95
42.55
41.21
41.09
41.90
43.00
43.69
43.53
42.48
40.85
39.04
37.29
35.49
33.19
29.94
25.49
20.05
14.21
8.74
4.23
0.84
-1.79
-4.35
-7.51
-11.62
-16.51
-21.59
-26.12
-29.56
-31.89
-33.58
-35.50
-38.65
-43.84
-51.38
-60.80
-70.65
-78.65
-82.12
-78.87
-67.97
-50.34
-28.59
-6.21
13.54
28.64
38.66
44.43
47.26
48.19
47.69
45.82
42.63
38.54
34.33
30.89
28.85
28.32
28.88
29.84
30.54
30.54
29.70
28.07
25.71
22.64
18.85
14.39
9.44
4.35
-0.53
-4.98
-9.03
-12.86
-16.70
-20.66
-24.67
-28.52
-32.03
-35.12
-37.92
-40.68
-43.76
-47.54
-52.38
-58.47
-65.42
-72.02
-76.21
-75.64
-68.56
-54.67
-35.52
-14.14
6.04
22.32
33.47
39.82
42.55
43.00
42.03
39.94
36.82
32.93
28.90
25.56
23.66
23.52
24.79
26.69
28.22
28.64
27.64
25.37
22.23
18.67
14.93
11.09
7.10
2.91
-1.46
-5.96
-10.50
-15.03
-19.48
-23.74
-27.65
-31.02
-33.80
-36.05
-38.14
-40.69
-44.45
-50.07
-57.71
-66.68
-75.25
-80.92
-81.11
-74.12
-59.91
-40.27
-18.32
2.57
19.83
32.33
40.34
44.98
47.38
48.26
47.83
46.06
43.05
39.29
35.55
32.61
30.99
30.74
31.42
32.33
32.81
32.40
31.04
28.86
26.07
22.84
19.21
15.18
10.77
6.06
1.11
-4.04
-9.38
-14.92
-20.54
-26.00
-30.99
-35.23
-38.67
-41.51
-44.23
-47.52
-52.10
-58.49
-66.68
-75.76
-83.79
-88.18
-86.41
-77.05
-60.48
-38.94
-15.81
5.49
22.67
34.99
42.98
47.76
50.27
51.00
50.17
48.03
45.19
42.44
40.48
39.64
39.74
40.26
40.63
40.52
39.86
38.73
37.18
35.16
32.53
29.23
25.28
20.85
16.10
11.11
5.77
-0.03
-6.32
-12.89
-19.36
-25.27
-30.28
-34.39
-37.86
-41.25
-45.21
-50.42
-57.34
-65.99
-75.56
-84.28
-89.65
-89.11
-81.09
-65.69
-44.91
-21.94
-0.12
18.15
31.82
41.10
46.84
49.90
50.90
50.24
48.37
45.90
43.54
41.88
41.17
41.31
41.90
42.48
42.74
42.54
41.94
40.99
39.62
37.60
34.63
30.51
25.32
19.51
13.67
8.37
3.88
0.08
-3.48
-7.28
-11.62
-16.46
-21.43
-26.07
-30.07
-33.40
-36.40
-39.69
-44.01
-50.04
-58.05
-67.51
-76.94
-83.90
-85.72
-80.39
-67.41
-48.18
-25.62
-3.12
16.54
31.87
42.74
49.82
53.95
55.73
55.52
53.68
50.87
47.95
45.82
45.00
45.44
46.59
47.62
47.84
46.91
44.96
42.39
39.70
37.16
34.70
31.97
28.55
24.18
19.02
13.57
8.55
4.63
2.07
0.54
-0.71
-2.58
-5.68
-10.09
-15.32
-20.63
-25.33
-29.13
-32.23
-35.18
-38.74
-43.65
-50.44
-59.17
-69.19
-78.92
-85.94
-87.55
-81.73
-67.98
-47.81
-24.33
-1.25
18.37
32.87
42.12
47.06
48.88
48.58
46.71
43.69
40.00
36.24
33.07
30.95
29.96
29.89
30.26
30.62
30.66
30.26
29.41
28.12
26.28
23.78
20.54
16.63
12.29
7.84
3.50
-0.73
-5.01
-9.57
-14.51
-19.70
-24.82
-29.46
-33.37
-36.45
-38.90
-41.13
-43.79
-47.66
-53.36
-60.96
-69.52
-77.00
-80.73
-78.20
-68.15
-51.22
-29.88
-7.50
12.72
28.74
39.99
47.02
50.78
52.07
51.38
49.04
45.54
41.64
38.24
36.07
35.44
36.13
37.54
38.94
39.79
39.84
39.15
37.86
36.02
33.51
30.04
25.43
19.77
13.58
7.55
2.24
-2.17
-6.04
-10.04
-14.73
-20.26
-26.24
-31.94
-36.69
-40.20
-42.73
-44.98
-47.87
-52.34
-59.00
-67.89
-78.08
-87.52
-93.42
-93.02
-84.65
-68.57
-47.04
-23.56
-1.64
16.30
29.49
38.45
44.30
47.99
50.00
50.47
49.61
47.86
45.98
44.67
44.33
44.87
45.78
46.39
46.21
45.10
43.34
41.39
39.66
38.18
36.53
34.08
30.24
24.92
18.59
12.18
6.66
2.56
-0.28
-2.63
-5.56
-9.87
-15.70
-22.51
-29.29
-35.03
-39.13
-41.66
-43.34
-45.34
-48.91
-54.99
-63.84
-74.71
-85.71
-94.14
-97.08
-92.40
-79.55
-59.91
-36.42
-12.63
8.41
24.94
36.66
44.33
49.13
52.01
53.50
53.82
53.19
52.00
50.82
50.14
50.18
50.72
51.23
51.10
50.03
48.11
45.81
43.71
42.16
41.05
39.91
38.00
34.75
29.98
24.07
17.85
12.28
8.11
5.40
3.61
1.69
-1.38
-6.11
-12.27
-19.03
-25.37
-30.53
-34.38
-37.38
-40.37
-44.26
-49.84
-57.56
-67.34
-78.28
-88.53
-95.47
-96.33
-89.25
-74.06
-52.57
-28.14
-4.47
15.54
30.46
40.39
46.30
49.36
50.43
50.05
48.59
46.50
44.35
42.71
41.87
41.83
42.22
42.52
42.33
41.49
40.23
38.95
38.02
37.57
37.30
36.62
34.86
31.59
26.88
21.33
15.80
11.18
7.97
6.09
4.98
3.75
1.57
-1.99
-6.82
-12.33
-17.67
-22.15
-25.49
-27.91
-29.98
-32.48
-36.17
-41.62
-49.03
-57.93
-67.04
-74.20
-76.83
-72.76
-61.13
-42.98
-21.08
0.93
19.83
33.77
42.54
47.14
48.96
49.05
47.91
45.69
42.56
38.99
35.68
33.33
32.32
32.57
33.64
34.93
36.00
36.61
36.75
36.47
35.82
34.68
32.90
30.27
26.66
22.24
17.47
13.11
9.89
8.19
7.64
7.14
5.27
0.97
-5.87
-14.26
-22.59
-29.45
-34.45
-38.33
-42.53
-48.38
-56.45
-66.38
-77.21
-87.96
-97.71
-105.45
-109.79
-108.91
-101.20
-86.12
-64.88
-40.43
-16.56
3.38
17.60
26.13
30.33
31.93
32.22
31.78
30.76
29.32
27.86
26.97
27.11
28.37
30.46
32.77
34.71
35.94
36.32
35.91
34.77
32.86
30.09
26.37
21.83
16.83
11.91
7.59
4.12
1.34
-1.30
-4.49
-8.69
-13.91
-19.67
-25.22
-29.94
-33.59
-36.46
-39.25
-42.82
-47.97
-55.06
-63.73
-72.61
-79.41
-81.42
-76.40
-63.59
-44.21
-21.30
1.32
20.32
33.87
41.92
45.72
46.90
46.72
45.71
43.98
41.50
38.58
35.87
34.06
33.58
34.33
35.77
37.20
38.03
38.10
37.52
36.49
35.07
33.06
30.16
26.22
21.36
16.03
10.75
5.95
1.71
-2.15
-5.99
-10.12
-14.60
-19.30
-23.85
-27.87
-31.12
-33.70
-36.10
-39.05
-43.44
-49.91
-58.46
-68.12
-76.88
-82.06
-81.15
-72.71
-57.07
-36.41
-14.05
6.63
23.24
34.83
41.78
45.18
46.15
45.47
43.58
40.92
38.00
35.45
33.75
33.10
33.28
33.80
34.21
34.28
34.10
33.87
33.72
33.51
32.85
31.22
28.28
24.04
18.93
13.67
8.98
5.26
2.40
-0.18
-3.24
-7.36
-12.55
-18.25
-23.56
-27.76
-30.60
-32.54
-34.51
-37.61
-42.64
-49.83
-58.60
-67.54
-74.43
-76.79
-72.55
-60.90
-42.74
-20.58
2.17
22.40
38.16
48.98
55.59
59.18
60.74
60.79
59.55
57.36
54.85
52.93
52.46
53.86
56.89
60.76
64.44
67.19
68.78
69.53
69.98
70.57
71.32
71.88
71.64
70.05
66.78
61.70
54.80
45.97
35.03
21.85
6.66
-9.89
-26.66
-42.40
-56.09
-67.24
-75.99
-82.98
-89.08
-95.16
-102.01
-110.22
-119.95
-130.48
-139.97
-145.48
-143.78
-132.59
-111.71
-83.45
-52.08
-22.35
2.05
19.49
30.38
36.38
39.32
40.42
40.18
38.69
36.21
33.34
31.05
30.13
30.97
33.29
36.32
39.15
41.02
41.59
40.83
38.94
36.16
32.66
28.57
24.05
19.33
14.63
10.09
5.70
1.30
-3.31
-8.23
-13.38
-18.53
-23.35
-27.61
-31.28
-34.57
-37.97
-42.14
-47.83
-55.46
-64.80
-74.56
-82.36
-85.28
-80.83
-68.01
-47.95
-23.69
0.77
21.91
37.63
47.63
52.86
54.72
54.30
52.19
48.66
44.04
38.95
34.23
30.68
28.73
28.37
29.19
30.56
31.90
32.80
32.99
32.34
30.74
28.14
24.56
20.19
15.34
10.42
5.74
1.42
-2.73
-6.99
-11.65
-16.77
-22.10
-27.20
-31.62
-35.16
-37.95
-40.44
-43.24
-47.06
-52.44
-59.51
-67.70
-75.53
-80.66
-80.50
-73.13
-58.22
-37.43
-14.03
8.21
26.26
38.68
45.68
48.54
48.63
46.87
43.59
38.96
33.44
27.90
23.51
21.20
21.27
23.26
26.13
28.74
30.21
30.26
29.06
27.10
24.79
22.30
19.49
15.99
11.44
5.69
-1.11
-8.47
-15.73
-22.27
-27.74
-32.14
-35.81
-39.27
-43.07
-47.66
-53.40
-60.45
-68.61
-77.03
-84.05
-87.39
-84.73
-74.72
-57.61
-35.45
-11.54
10.73
28.84
41.75
49.81
54.09
55.76
55.59
53.97
51.10
47.31
43.17
39.39
36.61
35.11
34.76
35.02
35.17
34.58
32.97
30.44
27.34
24.14
21.10
18.21
15.21
11.67
7.21
1.72
-4.61
-11.27
-17.58
-23.02
-27.34
-30.74
-33.77
-37.10
-41.38
-47.09
-54.50
-63.51
-73.44
-82.74
-89.09
-89.87
-83.11
-68.37
-47.23
-22.90
0.84
20.90
35.76
45.49
51.24
54.33
55.63
55.46
53.85
51.01
47.47
44.07
41.62
40.56
40.81
41.80
42.75
42.99
42.15
40.23
37.44
34.06
30.27
26.14
21.65
16.73
11.37
5.55
-0.67
-7.14
-13.61
-19.69
-25.04
-29.48
-33.12
-36.33
-39.67
-43.73
-49.06
-56.03
-64.63
-74.21
-83.23
-89.33
-89.81
-82.69
-67.54
-46.01
-21.40
2.44
22.37
36.80
45.85
50.68
52.68
52.88
51.76
49.53
46.47
43.10
40.17
38.36
38.07
39.22
41.26
43.46
45.06
45.51
44.58
42.31
38.89
34.57
29.64
24.35
18.94
13.53
8.13
2.64
-3.09
-9.10
-15.26
-21.24
-26.67
-31.21
-34.79
-37.59
-40.08
-42.98
-47.16
-53.39
-61.97
-72.33
-82.71
-90.34
-92.15
-85.88
-71.00
-49.14
-23.61
1.62
23.20
39.25
49.53
54.92
56.72
56.04
53.60
49.90
45.51
41.08
37.40
35.02
34.13
34.38
35.16
35.78
35.89
35.45
34.68
33.75
32.51
30.56
27.45
23.00
17.47
11.52
5.96
1.26
-2.59
-6.08
-9.89
-14.48
-19.81
-25.42
-30.57
-34.67
-37.58
-39.67
-41.78
-44.86
-49.79
-56.98
-66.06
-75.63
-83.31
-86.28
-82.05
-69.52
-49.53
-24.81
0.80
23.65
41.23
52.69
58.60
60.21
58.82
55.34
50.37
44.39
38.04
32.19
27.78
25.47
25.47
27.30
30.01
32.49
33.80
33.46
31.53
28.42
24.67
20.66
16.47
11.97
6.85
0.88
-5.95
-13.33
-20.71
-27.41
-32.95
-37.17
-40.36
-43.13
-46.22
-50.31
-55.93
-63.34
-72.36
-82.10
-90.76
-95.80
-94.56
-85.20
-67.68
-44.05
-17.96
6.52
26.26
39.83
47.62
51.04
51.70
50.68
48.46
45.15
41.04
36.76
33.23
31.27
31.26
32.96
35.53
37.92
39.27
39.15
37.63
35.08
31.92
28.40
24.57
20.27
15.39
9.84
3.66
-3.00
-9.89
-16.67
-22.98
-28.49
-33.06
-36.83
-40.18
-43.72
-48.15
-54.11
-62.02
-71.68
-81.98
-90.73
-95.10
-92.40
-81.24
-62.20
-37.88
-12.08
11.47
30.18
43.18
51.04
55.06
56.56
56.43
55.17
53.12
50.65
48.26
46.39
45.32
45.04
45.27
45.62
45.77
45.49
44.66
43.16
40.84
37.51
33.10
27.71
21.66
15.40
9.29
3.41
-2.30
-8.10
-14.08
-20.17
-26.04
-31.40
-35.98
-39.83
-43.16
-46.41
-50.13
-54.97
-61.57
-70.16
-80.21
-89.98
-96.78
-97.53
-90.02
-73.84
-50.80
-24.42
1.28
23.06
39.27
49.91
55.96
58.61
58.77
56.99
53.78
49.84
46.13
43.52
42.54
43.11
44.66
46.41
47.76
48.53
48.83
48.96
48.99
48.70
47.60
45.14
40.97
35.15
28.21
20.97
14.27
8.66
4.17
0.30
-3.75
-8.63
-14.54
-21.06
-27.40
-32.82
-37.00
-40.23
-43.32
-47.33
-53.25
-61.65
-72.27
-83.75
-93.58
-98.55
-95.77
-83.75
-63.23
-37.12
-9.62
15.23
34.69
47.92
55.58
59.04
59.52
57.80
54.31
49.52
44.22
39.42
36.00
34.35
34.27
35.04
35.89
36.33
36.30
36.00
35.56
34.84
33.34
30.53
26.16
20.44
13.99
7.61
1.85
-3.14
-7.62
-12.00
-16.63
-21.53
-26.43
-30.92
-34.69
-37.78
-40.52
-43.56
-47.66
-53.50
-61.40
-70.90
-80.51
-87.72
-89.59
-83.69
-69.19
-47.50
-21.97
3.22
24.43
39.73
49.11
53.92
55.83
56.06
55.06
52.78
49.27
45.01
40.90
38.02
37.10
38.29
41.08
44.59
47.85
50.09
50.90
50.14
47.97
44.65
40.51
35.96
31.38
27.11
23.40
20.31
17.66
15.09
12.16
8.53
4.16
-0.68
-5.59
-10.42
-15.56
-22.04
-31.25
-44.33
-61.45
-81.22
-100.67
-115.93
-123.34
-120.80
-108.56
-89.22
-66.72
-44.98
-26.65
-12.65
-2.54
4.57
9.25
11.65
11.75
10.04
7.69
6.32
7.29
11.06
16.94
23.37
28.58
31.27
31.12
28.74
25.27
21.86
19.07
16.71
13.97
9.85
3.80
-4.08
-12.96
-21.67
-29.18
-34.98
-39.24
-42.72
-46.44
-51.42
-58.40
-67.63
-78.62
-89.92
-99.17
-103.48
-100.36
-88.63
-69.09
-44.40
-18.28
5.70
25.17
39.34
48.76
54.57
57.78
58.98
58.43
56.38
53.34
50.10
47.47
46.06
45.95
46.74
47.67
47.99
47.18
45.11
42.06
38.45
34.64
30.72
26.48
21.57
15.68
8.72
0.96
-7.02
-14.58
-21.17
-26.59
-31.06
-35.08
-39.37
-44.67
-51.62
-60.59
-71.43
-83.17
-93.85
-100.82
-101.33
-93.61
-77.55
-54.97
-29.09
-3.53
18.82
36.37
48.87
56.95
61.50
63.27
62.78
60.53
57.10
53.27
49.87
47.57
46.73
47.21
48.55
50.06
51.16
51.45
50.84
49.33
46.98
43.79
39.74
34.93
29.56
23.95
18.36
12.87
7.37
1.65
-4.37
-10.61
-16.80
-22.64
-27.98
-32.87
-37.67
-42.92
-49.32
-57.53
-67.84
-79.66
-91.34
-100.12
-102.90
-97.33
-82.80
-60.88
-34.87
-8.72
14.30
32.34
45.12
53.37
58.11
60.23
60.36
59.13
57.30
55.74
55.16
55.81
57.42
59.36
61.01
62.07
62.69
63.22
63.96
64.82
65.34
64.93
63.21
60.18
56.22
51.79
47.23
42.65
37.93
32.82
26.97
20.00
11.51
1.26
-10.71
-23.99
-37.92
-51.83
-65.41
-78.92
-93.13
-108.86
-126.13
-143.44
-157.66
-164.71
-160.90
-144.61
-117.26
-83.10
-47.79
-16.43
7.98
25.05
36.19
43.30
47.69
49.69
49.22
46.43
42.21
38.09
35.54
35.37
37.43
40.72
44.00
46.31
47.26
47.05
46.05
44.47
42.26
39.12
34.81
29.36
23.17
16.78
10.68
5.01
-0.40
-5.93
-11.88
-18.29
-24.90
-31.29
-37.09
-42.22
-46.98
-52.09
-58.46
-66.91
-77.62
-89.62
-100.66
-107.55
-107.17
-97.62
-79.09
-54.00
-26.20
0.28
22.52
39.29
50.86
58.32
62.78
64.96
65.23
63.92
61.54
58.90
56.82
55.86
56.10
57.13
58.25
58.85
58.62
57.56
55.93
53.85
51.23
47.68
42.80
36.47
28.98
21.09
13.68
7.38
2.25
-2.25
-6.96
-12.59
-19.35
-26.90
-34.46
-41.28
-46.92
-51.46
-55.48
-59.92
-65.82
-73.97
-84.45
-96.17
-106.73
-112.80
-111.18
-99.94
-79.40
-52.21
-22.50
5.52
28.80
46.09
57.67
64.64
68.17
69.10
68.04
65.61
62.64
60.07
58.67
58.77
60.02
61.61
62.59
62.35
60.82
58.43
55.84
53.51
51.41
49.06
45.74
40.95
34.63
27.27
19.71
12.85
7.27
3.09
-0.07
-2.95
-6.37
-10.87
-16.51
-22.83
-29.07
-34.51
-38.80
-42.14
-45.24
-49.06
-54.59
-62.47
-72.66
-84.13
-94.66
-101.31
-101.10
-92.18
-74.61
-50.59
-23.74
2.07
23.92
40.48
51.88
58.97
62.73
63.84
62.80
60.20
56.88
53.88
52.12
52.00
53.38
55.61
57.82
59.30
59.66
58.96
57.47
55.49
53.06
49.94
45.70
39.99
32.80
24.63
16.29
8.72
2.54
-2.18
-5.88
-9.36
-13.39
-18.32
-24.02
-29.92
-35.32
-39.68
-42.90
-45.37
-47.88
-51.45
-57.00
-65.08
-75.42
-86.65
-96.26
-101.07
-98.18
-86.15
-65.77
-40.01
-13.11
10.90
29.36
41.62
48.57
51.72
52.35
51.05
47.99
43.35
37.83
32.56
28.75
27.19
27.91
30.24
33.08
35.42
36.61
36.45
35.09
32.80
29.75
26.07
21.85
17.16
12.11
6.79
1.21
-4.62
-10.63
-16.58
-22.14
-26.91
-30.73
-33.68
-36.20
-38.93
-42.62
-47.87
-55.00
-63.73
-72.98
-80.79
-84.60
-81.98
-71.56
-53.71
-30.70
-6.07
16.52
34.37
46.43
53.16
55.86
55.90
54.17
51.05
46.75
41.65
36.49
32.23
29.67
29.14
30.36
32.51
34.60
35.82
35.73
34.28
31.71
28.32
24.40
20.14
15.63
10.89
5.83
0.33
-5.69
-12.19
-18.92
-25.46
-31.40
-36.47
-40.68
-44.36
-48.02
-52.31
-57.85
-65.10
-74.04
-83.78
-92.37
-97.09
-95.26
-85.20
-67.17
-43.43
-17.63
6.43
26.03
40.01
48.74
53.40
55.24
55.14
53.64
51.12
48.02
44.92
42.44
40.94
40.53
40.92
41.60
42.01
41.74
40.55
38.43
35.49
31.89
27.77
23.26
18.49
13.56
8.55
3.43
-1.89
-7.49
-13.36
-19.36
-25.22
-30.73
-35.72
-40.22
-44.49
-48.95
-54.26
-61.12
-69.98
-80.63
-91.69
-100.63
-104.33
-100.10
-86.90
-65.93
