1705481326.00
64.000000
-0.00
-0.00
-0.00
-0.00
-0.00
-0.00
-0.00
-0.00
-0.00
-0.00
0.00
0.01
0.01
-0.00
-0.03
-0.05
-0.05
0.00
0.13
0.36
0.66
1.01
1.37
1.72
2.06
2.40
2.79
3.24
3.80
4.42
5.06
5.66
6.20
6.68
7.15
7.68
8.31
9.14
10.09
11.04
11.88
12.56
13.14
13.76
14.65
15.96
17.91
20.32
22.90
25.38
27.58
29.57
31.68
34.32
37.81
42.54
48.15
54.10
59.83
64.97
69.58
74.14
79.34
85.71
93.76
103.00
112.62
121.73
129.77
136.75
143.30
150.75
157.77
166.64
177.95
191.79
206.97
220.57
228.25
225.36
208.53
176.87
132.76
80.05
23.07
-34.94
-92.44
-149.16
-205.23
-260.37
-313.74
-363.87
-409.82
-450.88
-486.46
-515.67
-537.13
-549.09
-549.79
-538.15
-513.94
-478.35
-433.49
-382.00
-326.50
-269.26
-211.98
-155.93
-102.15
-51.49
-4.94
36.64
72.58
102.61
126.87
145.87
160.33
170.94
178.33
182.90
184.94
184.67
182.38
178.40
173.15
167.04
160.41
153.51
146.49
139.41
132.33
125.27
118.31
111.52
104.96
98.70
92.76
87.16
81.91
77.02
72.49
68.35
64.58
61.20
58.22
55.64
53.45
51.64
50.18
49.05
48.16
47.43
46.73
45.88
44.72
43.08
40.80
37.76
33.92
29.30
23.94
17.98
11.64
5.16
-1.20
-7.19
-12.58
-17.19
-20.90
-23.65
-25.44
-26.31
-26.38
-25.74
-24.54
-22.87
-20.87
-18.62
-16.18
-13.60
-10.93
-8.22
-5.51
-2.80
-0.11
2.58
5.27
7.99
10.80
13.66
16.58
19.57
22.64
25.78
29.04
32.41
35.95
39.70
43.58
47.54
51.58
55.71
59.97
64.42
69.09
74.07
79.48
85.14
90.98
96.91
102.87
108.81
114.71
120.55
126.32
132.07
137.51
142.42
146.60
149.83
151.85
152.31
150.76
146.52
140.95
134.59
127.78
120.75
113.71
106.79
100.08
93.69
87.71
82.25
77.09
72.11
67.21
62.36
57.53
52.75
48.07
43.60
39.46
35.58
31.92
28.48
25.28
22.34
19.68
17.29
15.22
13.49
11.96
10.57
9.23
7.91
6.60
5.27
3.95
2.67
1.48
0.37
-0.64
-1.53
-2.28
-2.87
-3.29
-3.56
-3.67
-3.66
-3.57
-3.45
-3.37
-3.33
-3.38
-3.50
-3.70
-3.97
-4.32
-4.74
-5.23
-5.81
-6.43
-7.05
-7.61
-8.07
-8.40
-8.60
-8.73
-8.82
-8.94
-9.10
-9.30
-9.52
-9.75
-9.98
-10.28
-10.71
-11.37
-12.31
-13.51
-14.88
-16.29
-17.62
-18.85
-20.04
-21.42
-23.20
-25.56
-28.50
-31.82
-35.24
-38.47
-41.40
-44.20
-47.27
-51.05
-55.87
-61.74
-68.32
-75.08
-81.51
-87.43
-93.14
-99.30
-106.71
-115.91
-126.95
-139.34
-152.29
-165.03
-177.16
-188.74
-200.32
-212.73
-227.01
-244.21
-265.10
-289.52
-315.81
-340.62
-359.46
-368.17
-364.43
-348.74
-324.33
-295.81
-267.55
-242.25
-220.66
-202.16
-185.68
-170.51
-156.43
-143.49
-131.61
-120.51
-109.85
-99.49
-89.59
-80.54
-72.71
-66.23
-60.90
-56.31
-52.09
-48.12
-44.72
-42.51
-42.17
-43.85
-46.91
-49.80
-50.42
-46.81
-37.94
-24.11
-6.91
11.33
28.30
42.37
52.89
60.05
64.44
66.74
67.42
66.77
65.00
62.46
59.69
57.31
55.94
55.80
56.76
58.24
59.58
60.26
60.10
59.33
58.35
57.47
56.68
55.65
53.89
51.07
47.14
42.44
37.55
33.04
29.31
26.44
24.26
22.36
20.37
17.95
15.00
11.59
7.97
4.44
1.27
-1.38
-3.56
-5.52
-7.72
-10.72
-15.04
-20.84
-27.76
-34.70
-40.04
-42.07
-39.48
-31.91
-20.10
-5.64
9.51
23.57
35.29
44.13
50.04
53.31
54.29
53.44
51.27
48.38
45.39
42.91
41.39
40.99
41.61
42.98
44.72
46.53
48.11
49.24
49.73
49.43
48.27
46.26
43.49
40.07
36.11
31.78
27.23
22.72
18.51
14.76
11.53
8.69
5.96
3.09
-0.12
-3.66
-7.42
-11.12
-14.54
-17.55
-20.17
-22.64
-25.39
-28.94
-33.63
-39.40
-45.51
-50.60
-53.03
-51.37
-44.99
-34.30
-20.72
-6.17
7.45
18.78
27.18
32.64
35.53
36.33
35.51
33.49
30.76
27.76
25.01
22.95
21.84
21.82
22.78
24.43
26.44
28.39
29.96
30.88
31.03
30.35
28.90
26.73
23.94
20.60
16.81
12.68
8.37
4.09
-0.03
-3.87
-7.43
-10.76
-13.90
-16.89
-19.83
-22.95
-26.63
-31.25
-36.87
-42.94
-48.15
-50.79
-49.40
-43.21
-32.74
-19.47
-5.43
7.48
18.01
25.65
30.44
32.74
32.96
31.50
28.79
25.40
21.92
18.99
17.08
16.45
17.11
18.86
21.32
24.07
26.68
28.86
30.45
31.35
31.47
30.66
28.71
25.46
20.95
15.56
9.88
4.64
0.32
-2.95
-5.45
-7.65
-10.07
-12.90
-16.08
-19.26
-22.06
-24.25
-25.91
-27.37
-29.19
-31.92
-35.99
-41.51
-48.10
-54.85
-60.36
-62.99
-61.34
-54.77
-43.64
-29.30
-13.72
1.17
13.90
23.79
30.81
35.28
37.62
38.21
37.33
35.30
32.50
29.35
26.27
23.64
21.65
20.41
19.88
19.91
20.34
21.03
21.90
22.93
24.07
25.11
25.76
25.74
24.84
23.07
20.67
17.94
15.13
12.43
9.86
7.46
5.23
3.21
1.46
-0.12
-1.74
-3.69
-6.24
-9.51
-13.51
-18.12
-23.17
-28.46
-33.90
-39.41
-45.03
-50.80
-56.73
-62.71
-68.34
-72.84
-75.12
-73.96
-68.39
-58.03
-43.33
-25.53
-6.50
11.79
27.62
39.73
47.41
50.48
49.19
44.27
36.87
28.55
21.00
15.72
13.57
14.68
18.43
23.79
29.60
34.79
38.38
39.52
37.56
32.18
23.65
12.86
1.00
-10.70
-21.32
-30.25
-36.92
-40.45
-39.90
-34.63
-24.98
-12.34
1.43
14.84
27.40
39.47
51.41
62.74
71.87
76.68
75.68
68.82
57.52
44.00
30.16
17.25
5.90
-3.30
-9.42
-11.44
-8.78
-1.93
7.56
17.58
26.23
32.38
35.92
37.49
37.87
37.78
37.48
37.11
36.74
36.57
36.98
38.38
41.08
45.12
50.29
56.16
62.21
68.03
73.31
77.95
81.92
85.31
88.17
90.57
92.57
94.28
95.89
97.60
99.60
101.86
104.12
105.91
106.73
106.29
104.60
101.98
98.88
95.57
91.96
87.55
81.54
72.99
61.01
44.98
24.72
0.64
-26.18
-54.11
-81.13
-105.26
-124.97
-139.44
-148.87
-154.33
-157.49
-160.06
-163.09
-166.61
-169.61
-170.56
-168.05
-161.61
-151.70
-139.50
-126.21
-112.58
-98.79
-84.79
-70.73
-57.22
-45.26
-35.76
-29.11
-24.92
-22.21
-19.86
-17.03
-13.47
-9.40
-5.24
-1.26
2.60
6.67
11.25
16.37
21.72
26.92
31.64
35.89
39.99
44.35
49.12
54.02
58.37
61.30
62.18
60.93
58.02
54.26
50.43
47.03
44.13
41.50
38.82
35.87
32.62
29.13
25.56
22.01
18.53
15.05
11.48
7.67
3.53
-0.82
-5.05
-8.68
-11.30
-12.67
-12.86
-12.08
-10.59
-8.59
-6.15
-3.40
-0.60
1.92
3.74
4.62
4.54
3.69
2.37
0.89
-0.50
-1.69
-2.62
-3.44
-4.38
-5.74
-7.74
-10.45
-13.64
-16.90
-19.82
-22.09
-23.71
-24.84
-25.78
-26.81
-28.16
-29.88
-31.82
-33.49
-34.10
-32.83
-29.06
-22.79
-14.72
-6.04
2.02
8.62
13.55
17.13
19.90
22.22
24.08
25.25
25.43
24.62
23.08
21.28
19.65
18.31
17.19
16.08
14.88
13.68
12.73
12.19
12.01
11.93
11.57
10.64
9.17
7.45
5.80
4.45
3.33
2.15
0.55
-1.68
-4.41
-7.28
-9.81
-11.67
-12.77
-13.30
-13.47
-13.50
-13.48
-13.53
-13.89
-14.82
-16.36
-17.84
-17.82
-14.38
-5.87
8.12
26.32
45.90
63.24
75.10
79.39
75.39
63.56
45.03
21.22
-6.17
-35.25
-63.93
-90.35
-113.30
-132.52
-148.68
-162.99
-176.51
-189.81
-202.76
-214.71
-224.84
-232.31
-236.35
-236.24
-231.16
-220.26
-202.81
-178.48
-147.52
-110.78
-69.77
-26.38
17.29
59.10
97.02
129.31
154.68
172.37
182.32
185.13
181.84
173.79
162.37
148.90
134.61
120.64
108.05
97.64
89.89
84.71
81.56
79.58
77.76
75.30
71.67
66.71
60.52
53.35
45.42
36.99
28.22
19.46
11.11
3.70
-2.40
-6.96
-9.99
-11.63
-12.01
-11.14
-9.07
-5.94
-2.13
1.72
4.91
6.92
7.47
6.75
5.13
3.11
1.18
-0.41
-1.53
-2.21
-2.60
-2.83
-3.01
-3.24
-3.74
-4.73
-6.48
-9.21
-12.98
-17.65
-23.00
-28.55
-33.73
-37.81
-40.00
-39.74
-36.87
-31.78
-25.40
-18.85
-13.15
-8.90
-6.25
-4.98
-4.76
-5.30
-6.42
-7.98
-9.73
-11.30
-12.23
-12.08
-10.63
-7.98
-4.53
-0.88
2.39
4.98
6.84
8.15
9.02
9.43
9.16
8.01
5.99
3.38
0.68
-1.69
-3.53
-4.95
-6.24
-7.68
-9.35
-11.12
-12.77
-14.17
-15.26
-16.15
-16.94
-17.69
-18.36
-18.91
-19.26
-19.45
-19.52
-19.49
-19.25
-18.54
-16.94
-13.96
-9.26
-2.72
5.47
14.76
24.44
33.80
42.11
48.72
52.95
54.16
51.84
46.03
37.47
27.52
17.69
9.03
1.43
-6.25
-15.64
-27.84
-42.73
-58.84
-74.07
-86.63
-95.95
-102.62
-107.71
-111.86
-114.83
-115.63
-113.36
-107.91
-100.11
-91.32
-82.69
-74.65
-67.02
-59.66
-52.73
-46.72
-41.84
-37.61
-32.76
-25.90
-16.34
-4.59
7.84
19.36
29.07
37.02
43.80
49.80
54.84
58.35
59.94
60.07
60.06
61.67
66.35
74.79
86.64
100.77
115.65
129.75
141.78
151.11
157.81
162.80
167.72
174.27
183.39
194.57
205.59
212.99
213.25
204.04
185.15
158.65
127.94
96.72
67.78
42.55
21.30
3.77
-10.32
-21.00
-28.41
-33.07
-35.93
-38.25
-41.06
-44.81
-49.32
-53.99
-58.20
-61.63
-64.35
-66.65
-68.83
-71.07
-73.34
-75.58
-77.76
-79.92
-82.11
-84.23
-85.97
-86.94
-86.63
-84.61
-80.68
-74.92
-67.76
-59.95
-52.38
-45.88
-41.02
-37.99
-36.64
-36.76
-38.12
-40.57
-43.93
-47.87
-51.86
-55.24
-57.56
-58.72
-59.09
-59.30
-59.96
-61.26
-62.93
-64.40
-65.20
-65.34
-65.44
-66.53
-69.63
-75.26
-83.25
-92.74
-102.68
-112.23
-121.13
-129.77
-138.89
-149.33
-161.95
-177.72
-197.67
-222.63
-252.34
-284.75
-315.95
-341.08
-355.94
-358.64
-350.34
-334.51
-315.42
-296.31
-278.55
-261.88
-245.41
-228.64
-211.81
-195.57
-180.35
-165.98
-151.75
-136.95
-121.24
-104.91
-88.79
-73.82
-60.62
-49.31
-39.46
-30.28
-21.05
-11.29
-0.96
9.53
19.64
28.84
36.92
43.97
50.48
57.08
64.39
72.73
82.05
91.93
101.71
110.75
118.70
125.70
132.33
139.53
148.12
158.61
170.90
184.41
198.36
212.06
225.32
238.39
251.97
266.93
284.30
305.04
329.66
357.61
386.74
413.29
432.64
440.77
435.79
418.62
392.69
362.45
331.86
303.18
277.06
253.16
231.12
211.00
193.18
177.85
164.55
152.32
140.06
127.13
113.55
100.00
87.42
76.51
67.37
59.53
52.15
44.40
35.89
26.81
17.84
9.88
3.65
-0.67
-3.50
-5.78
-8.55
-12.61
-18.08
-24.42
-30.58
-35.39
-37.95
-37.89
-35.37
-30.92
-25.27
-19.08
-12.94
-7.26
-2.37
1.53
4.36
6.18
7.07
7.23
6.80
5.94
4.90
3.92
3.22
3.01
3.33
4.06
4.99
5.89
6.58
6.98
7.10
6.95
6.49
5.58
4.02
1.67
-1.50
-5.29
-9.38
-13.39
-17.08
-20.37
-23.37
-26.28
-29.25
-32.44
-35.86
-39.42
-42.85
-45.66
-47.19
-46.79
-43.97
-38.66
-31.27
-22.62
-13.67
-5.33
1.74
7.24
11.14
13.59
14.82
15.03
14.46
13.31
11.89
10.50
9.49
9.05
9.22
9.89
10.82
11.79
12.58
13.02
12.97
12.39
11.35
10.02
8.69
7.54
6.63
5.79
4.69
3.02
0.57
-2.65
-6.42
-10.35
-14.10
-17.42
-20.34
-23.11
-26.12
-29.78
-34.21
-39.16
-43.95
-47.66
-49.35
-48.42
-44.75
-38.72
-31.05
-22.60
-14.12
-6.13
1.02
7.14
12.07
15.61
17.68
18.39
18.00
17.01
15.92
15.09
14.68
14.60
14.70
14.80
14.92
15.08
15.37
15.78
16.17
16.33
16.05
15.21
13.81
11.89
9.51
6.78
3.77
0.58
-2.64
-5.76
-8.67
-11.27
-13.47
-15.20
-16.37
-17.00
-17.23
-17.42
-18.12
-19.93
-23.19
-27.75
-32.91
-37.48
-40.20
-40.13
-36.95
-31.07
-23.44
-15.27
-7.64
-1.35
3.29
6.29
7.98
8.77
9.08
9.26
9.51
9.92
10.48
11.21
12.15
13.39
15.02
17.04
19.34
21.72
23.89
25.53
26.40
26.30
25.14
23.03
20.13
16.77
13.29
9.96
6.90
4.06
1.31
-1.55
-4.62
-7.98
-11.55
-15.22
-18.77
-21.98
-24.67
-26.79
-28.58
-30.44
-32.85
-36.13
-40.15
-44.25
-47.37
-48.32
-46.31
-41.12
-33.28
-23.85
-14.01
-4.82
3.02
9.28
13.97
17.24
19.29
20.26
20.36
19.89
19.27
18.97
19.38
20.62
22.47
24.36
25.72
26.17
25.83
25.16
24.75
24.90
25.45
25.82
25.33
23.54
20.43
16.47
12.31
8.53
5.40
2.87
0.67
-1.52
-3.91
-6.57
-9.39
-12.22
-14.87
-17.19
-19.09
-20.57
-21.81
-23.20
-25.30
-28.62
-33.31
-38.98
-44.63
-48.85
-50.35
-48.33
-42.85
-34.75
-25.30
-15.83
-7.26
-0.04
5.78
10.40
13.99
16.60
18.24
18.95
18.95
18.56
18.13
17.93
18.02
18.27
18.47
18.48
18.28
18.07
18.06
18.33
18.74
18.95
18.59
17.35
15.21
12.35
9.12
5.86
2.83
0.12
-2.33
-4.67
-7.03
-9.43
-11.87
-14.29
-16.63
-18.95
-21.34
-24.02
-27.15
-30.77
-34.69
-38.52
-41.67
-43.39
-43.07
-40.30
-35.10
-28.00
-19.82
-11.55
-4.04
2.16
6.89
10.17
12.21
13.18
13.27
12.66
11.58
10.32
9.20
8.52
8.56
9.55
11.60
14.65
18.38
22.28
25.71
28.08
28.91
27.90
25.01
20.44
14.67
8.48
2.72
-1.92
-5.16
-7.25
-8.85
-10.73
-13.31
-16.50
-19.71
-22.20
-23.44
-23.39
-22.51
-21.56
-21.24
-22.03
-23.97
-26.77
-29.84
-32.42
-33.71
-32.98
-29.86
-24.43
-17.32
-9.59
-2.28
3.89
8.71
12.35
15.11
17.13
18.28
18.37
17.40
15.66
13.66
11.79
10.13
8.47
6.60
4.61
3.04
2.67
4.06
7.22
11.46
15.73
19.06
20.90
21.18
20.18
18.31
15.95
13.40
10.96
8.84
7.09
5.52
3.73
1.22
-2.30
-6.82
-11.99
-17.22
-21.84
-25.26
-27.08
-27.27
-26.22
-24.68
-23.50
-23.20
-23.67
-24.12
-23.27
-19.96
-13.59
-4.46
6.35
17.31
27.00
34.44
39.24
41.64
42.15
41.39
39.84
37.78
35.37
32.75
30.17
27.93
26.28
25.28
24.75
24.37
23.89
23.22
22.50
21.87
21.37
20.79
19.77
18.01
15.44
12.32
9.13
6.37
4.22
2.60
1.05
-0.91
-3.66
-7.27
-11.54
-16.07
-20.50
-24.59
-28.32
-31.80
-35.26
-38.91
-42.95
-47.38
-51.91
-55.89
-58.36
-58.25
-54.88
-48.13
-38.72
-27.87
-16.89
-6.79
1.91
9.00
14.39
17.80
18.99
17.95
15.21
11.82
9.03
7.82
8.49
10.61
13.29
15.65
17.20
17.92
18.12
18.11
18.04
17.89
17.60
17.17
16.84
16.79
17.13
17.62
17.76
16.99
15.06
12.15
8.93
6.30
4.81
4.47
4.55
3.92
1.57
-2.92
-9.22
-16.38
-23.25
-28.81
-32.42
-33.73
-32.59
-28.98
-23.14
-15.69
-7.65
-0.20
5.71
9.78
12.50
14.88
17.94
22.15
27.25
32.34
36.39
38.66
38.88
37.34
34.49
30.81
26.64
22.15
17.50
12.83
8.29
4.02
0.14
-3.29
-6.24
-8.73
-10.83
-12.67
-14.45
-16.38
-18.69
-21.57
-25.03
-28.85
-32.63
-35.86
-38.20
-39.64
-40.50
-41.33
-42.52
-44.12
-45.73
-46.58
-45.91
-43.24
-38.54
-32.21
-24.90
-17.27
-9.92
-3.24
2.51
7.21
10.89
13.65
15.66
17.10
18.09
18.72
19.03
19.05
18.80
18.34
17.73
17.12
16.61
16.24
16.01
15.80
15.45
14.78
13.74
12.29
10.51
8.54
6.47
4.44
2.54
0.88
-0.53
-1.81
-3.22
-5.09
-7.62
-10.92
-14.79
-18.90
-22.88
-26.39
-29.16
-30.90
-31.28
-29.91
-26.52
-21.17
-14.24
-6.40
1.60
9.15
15.94
21.92
27.21
31.85
35.68
38.43
39.81
39.78
38.69
37.27
36.48
37.14
39.53
43.32
47.59
51.24
53.41
53.91
53.18
52.01
51.12
50.76
50.76
50.73
50.45
49.72
48.03
44.35
37.47
27.07
14.48
2.68
-5.12
-7.48
-6.06
-5.00
-8.75
-19.30
-34.68
-49.91
-59.43
-59.92
-51.77
-38.28
-23.95
-12.35
-5.24
-2.72
-3.94
-7.51
-11.73
-14.78
-15.09
-11.95
-5.83
1.86
9.35
15.23
18.82
19.95
18.74
15.43
10.44
4.39
-1.85
-7.51
-12.27
-16.36
-20.37
-24.76
-29.45
-33.85
-37.43
-40.03
-42.09
-44.24
-46.81
-49.51
-51.58
-52.30
-51.35
-49.12
-46.33
-43.72
-41.61
-39.83
-37.95
-35.61
-32.86
-30.28
-28.69
-28.73
-30.39
-32.93
-35.01
-35.27
-32.94
-28.18
-22.00
-15.77
-10.56
-6.80
-4.25
-2.31
-0.49
1.38
3.16
4.59
5.54
6.08
6.46
6.96
7.81
9.08
10.71
12.49
14.18
15.58
16.54
16.99
16.94
16.40
15.38
14.00
12.41
10.92
9.79
9.09
8.66
8.07
6.90
4.84
1.90
-1.59
-5.16
-8.35
-10.90
-12.88
-14.56
-16.29
-18.34
-20.73
-23.25
-25.47
-26.92
-27.18
-26.11
-23.68
-20.04
-15.37
-9.88
-3.88
2.18
7.73
12.18
15.16
16.61
16.91
16.61
16.31
16.35
16.69
17.00
16.94
16.31
15.25
14.15
13.44
13.43
14.14
15.22
16.15
16.36
15.55
13.71
11.09
8.12
5.14
2.26
-0.54
-3.40
-6.38
-9.34
-12.02
-14.21
-15.84
-17.07
-18.28
-19.86
-22.13
-25.26
-29.12
-33.30
-37.20
-40.07
-41.21
-40.18
-36.91
-31.82
-25.60
-18.95
-12.40
-6.14
-0.24
5.23
10.07
14.05
16.90
18.62
19.45
19.69
19.62
19.36
18.97
18.52
18.17
18.05
18.18
18.39
18.48
18.34
18.03
17.72
17.39
16.74
15.24
12.44
8.32
3.44
-1.26
-4.96
-7.35
-8.79
-10.03
-11.78
-14.36
-17.56
-20.84
-23.65
-25.70
-27.02
-27.85
-28.53
-29.32
-30.43
-32.07
-34.34
-37.19
-40.22
-42.75
-43.94
-43.03
-39.60
-33.75
-26.10
-17.60
-9.23
-1.74
4.45
9.34
13.14
16.23
18.84
21.09
22.91
24.13
24.63
24.44
23.72
22.72
21.69
20.83
20.33
20.38
21.15
22.66
24.75
26.91
28.42
28.57
26.93
23.54
18.95
14.00
9.46
5.75
2.76
0.03
-2.98
-6.65
-10.94
-15.47
-19.67
-23.11
-25.70
-27.66
-29.49
-31.66
-34.60
-38.48
-43.34
-48.86
-54.36
-58.76
-60.73
-59.13
-53.41
-43.90
-31.75
-18.57
-5.92
5.15
14.30
21.76
27.92
33.11
37.46
40.96
43.63
45.70
47.60
49.89
52.98
57.06
61.97
67.19
71.96
75.55
77.57
78.03
77.38
76.23
74.91
73.30
70.83
66.92
61.38
54.66
47.58
40.76
34.17
27.13
18.81
8.88
-2.19
-13.33
-23.54
-32.37
-39.83
-45.92
-49.97
-50.60
-46.39
-36.92
-23.58
-9.43
1.85
7.60
7.25
2.62
-3.05
-6.63
-6.36
-2.59
2.60
6.47
6.81
2.76
-4.95
-14.62
-24.37
-32.84
-39.46
-44.33
-47.69
-49.71
-50.44
-50.08
-49.13
-48.39
-48.53
-49.76
-51.59
-52.88
-52.33
-49.00
-42.67
-34.05
-24.49
-15.60
-8.69
-4.37
-2.40
-2.02
-2.30
-2.56
-2.60
-2.48
-2.33
-2.26
-2.32
-2.64
-3.54
-5.46
-8.71
-13.29
-18.68
-23.99
-28.15
-30.16
-29.38
-25.68
-19.56
-11.97
-4.11
2.92
8.45
12.28
14.67
16.08
16.90
17.34
17.44
17.19
16.68
16.19
16.08
16.68
18.07
20.14
22.54
24.82
26.55
27.49
27.57
26.93
25.75
24.17
22.26
19.95
17.15
13.82
10.11
6.28
2.68
-0.43
-3.03
-5.32
-7.64
-10.38
-13.89
-18.29
-23.55
-29.35
-35.00
-39.50
-41.73
-40.76
-36.28
-28.69
-19.09
-8.78
1.06
9.75
17.04
22.90
27.33
30.11
31.14
30.45
28.43
25.78
23.28
21.57
20.96
21.34
22.38
23.69
24.96
25.95
26.54
26.65
26.21
25.14
23.45
21.16
18.35
15.11
11.52
7.66
3.56
-0.76
-5.35
-10.21
-15.46
-21.07
-26.99
-33.04
-38.92
-44.22
-48.41
-50.87
-50.92
-48.07
-42.19
-33.66
-23.41
-12.61
-2.38
6.52
13.75
19.27
23.05
25.01
25.02
23.19
20.04
16.50
13.63
12.12
12.03
12.75
13.41
13.31
12.24
10.58
8.91
7.71
7.12
6.96
6.92
6.80
6.53
6.08
5.37
4.07
1.79
-1.65
-6.14
-11.23
-16.29
-20.93
-25.11
-29.14
-33.48
-38.26
-43.08
-47.07
-49.10
-48.24
-44.17
-37.22
-28.22
-18.21
-8.09
1.65
10.83
19.48
27.61
34.95
41.01
45.17
47.03
46.60
44.49
41.69
39.34
38.34
39.08
41.45
44.89
48.70
52.27
55.21
57.40
58.87
59.71
60.00
59.72
58.78
57.07
54.49
51.03
46.96
42.63
38.50
34.82
31.53
28.22
24.29
19.24
12.81
5.04
-3.83
-13.34
-22.77
-31.00
-36.59
-38.08
-34.71
-26.88
-16.30
-5.45
3.41
9.12
11.85
12.64
12.52
11.78
9.93
6.18
0.15
-7.63
-16.02
-23.76
-29.91
-34.05
-36.06
-35.87
-33.36
-28.58
-21.93
-14.28
-6.65
0.05
5.23
8.67
10.34
10.31
8.77
6.23
3.58
2.01
2.40
4.86
8.42
11.41
12.09
9.53
4.07
-2.96
-9.91
-15.78
-20.83
-26.35
-33.86
-44.17
-56.69
-69.56
-80.31
-86.80
-87.99
-84.02
-75.99
-65.49
-54.12
-43.21
-33.78
-26.49
-21.53
-18.75
-17.51
-16.98
-16.40
-15.22
-13.19
-10.37
-6.93
-3.01
1.16
5.39
9.46
13.20
16.59
19.71
22.62
25.18
27.01
27.52
26.25
23.24
18.99
14.38
10.19
6.69
3.70
0.69
-2.74
-6.64
-10.72
-14.59
-18.04
-21.16
-24.28
-27.65
-31.42
-35.48
-39.55
-43.25
-46.03
-47.15
-45.81
-41.43
-34.00
-24.26
-13.55
-3.41
5.02
11.27
15.47
18.18
19.87
20.86
21.22
21.04
20.47
19.73
19.08
18.58
18.18
17.77
17.33
16.86
16.40
15.96
15.44
14.72
13.63
12.03
9.84
7.07
3.85
0.42
-2.91
-5.91
-8.38
-10.33
-11.87
-13.18
-14.43
-15.64
-16.80
-18.02
-19.62
-21.99
-25.52
-30.13
-35.14
-39.26
-41.01
-39.25
-33.70
-25.10
-14.80
-4.34
5.18
13.23
19.70
24.67
28.13
30.03
30.40
29.59
28.12
26.65
25.61
25.05
24.66
23.94
22.46
20.10
17.15
14.16
11.75
10.36
9.99
10.20
10.32
9.66
7.82
4.85
1.05
-3.09
-7.27
-11.38
-15.52
-19.91
-24.73
-30.05
-35.81
-41.90
-47.95
-53.45
-57.69
-59.90
-59.51
-56.34
-50.80
-43.76
-36.32
-29.42
-23.60
-18.90
-15.07
-11.87
-9.35
-7.90
-8.11
-10.28
-14.11
-18.76
-23.11
-26.29
-28.14
-29.13
-30.10
-31.70
-34.08
-36.84
-39.34
-40.93
-41.13
-39.71
-36.66
-32.36
-27.44
-22.69
-18.62
-15.15
-11.72
-7.75
-3.19
1.05
3.35
2.09
-3.53
-13.08
-25.10
-37.69
-49.09
-57.97
-63.34
-64.44
-60.75
-52.31
-39.88
-25.07
-9.81
4.17
15.78
24.79
31.51
36.52
40.28
43.06
45.00
46.30
47.25
48.13
49.18
50.47
52.02
53.76
55.68
57.71
59.73
61.50
62.69
62.99
62.20
60.28
57.35
53.69
49.67
45.60
41.66
37.75
33.50
28.42
22.22
14.96
7.15
-0.50
-7.35
-13.17
-18.17
-22.87
-27.92
-33.83
-40.97
-49.35
-58.62
-67.82
-75.36
-79.22
-77.67
-69.84
-56.22
-38.69
-19.90
-2.38
12.20
23.29
31.28
36.86
40.63
42.84
43.56
43.00
41.69
40.34
39.64
39.96
41.26
43.16
45.15
46.80
47.94
48.53
48.65
48.36
47.61
46.27
44.16
41.07
36.81
31.41
25.10
18.34
11.69
5.66
0.48
-3.98
-8.13
-12.57
-17.83
-24.26
-31.92
-40.52
-49.31
-57.11
-62.46
-63.94
-60.68
-52.60
-40.65
-26.50
-12.06
1.08
12.10
20.97
28.19
34.38
39.84
44.40
47.52
48.74
47.96
45.70
42.96
40.72
39.61
39.63
40.34
41.09
41.42
41.17
40.42
39.30
37.93
36.34
34.48
32.29
29.57
26.08
21.55
15.88
9.20
1.93
-5.41
-12.41
-19.02
-25.52
-32.56
-40.89
-51.14
-63.46
-77.18
-90.81
-102.19
-109.16
-110.24
-105.24
-95.27
-82.44
-69.05
-56.86
-46.76
-38.86
-32.90
-28.84
-27.00
-28.03
-32.51
-40.50
-51.33
-63.54
-75.20
-84.39
-89.72
-90.75
-88.20
-83.78
-79.87
-78.79
-82.17
-90.31
-101.84
-113.92
-122.93
-125.79
-121.24
-110.58
-97.43
-86.37
-81.04
-82.69
-89.84
-99.24
-107.56
-112.70
-114.33
-113.32
-110.75
-107.29
-103.05
-98.08
-92.66
-87.48
-83.20
-80.20
-78.22
-76.19
-72.42
-64.74
-50.97
-29.70
-0.87
33.86
71.45
108.60
142.93
173.38
199.57
220.67
234.94
240.46
236.91
226.87
215.49
208.34
208.60
215.43
224.49
230.59
230.68
225.30
217.66
211.21
207.27
204.39
199.66
190.76
177.43
161.41
145.15
130.29
116.81
103.23
87.76
69.55
49.26
28.91
10.74
-3.86
-15.07
-24.48
-34.08
-45.07
-56.96
-67.56
-73.91
-73.81
-66.98
-55.33
-42.25
-31.07
-23.68
-19.96
-18.34
-16.87
-14.40
-10.91
-7.27
-4.40
-2.65
-1.60
-0.42
1.60
4.66
8.39
12.23
15.80
19.18
22.76
26.90
31.59
36.27
40.02
41.85
41.11
37.69
31.99
24.78
16.88
8.94
1.32
-5.90
-12.90
-20.00
-27.59
-35.92
-44.79
-53.54
-60.85
-65.12
-64.98
-59.75
-49.75
-36.31
-21.31
-6.60
6.50
17.33
25.82
32.13
36.49
39.01
39.82
39.11
37.34
35.08
32.94
31.41
30.70
30.75
31.35
32.24
33.24
34.20
34.95
35.17
34.43
32.31
28.63
23.56
17.59
11.45
5.73
0.68
-3.85
-8.39
-13.68
-20.36
-28.62
-37.97
-47.14
-54.35
-57.77
-56.21
-49.45
-38.40
-24.71
-10.24
3.41
15.22
24.68
31.65
36.15
38.36
38.54
37.12
34.70
31.92
29.37
27.53
26.60
26.61
27.36
28.59
29.97
31.21
31.99
31.96
30.74
28.06
23.79
18.11
11.42
4.29
-2.70
-9.15
-14.90
-20.16
-25.37
-31.15
-38.01
-46.02
-54.54
-62.14
-66.94
-67.17
-61.86
-51.22
-36.61
-20.08
-3.69
11.04
23.40
33.30
40.98
46.71
50.67
53.02
53.96
53.89
53.18
52.25
51.34
50.60
50.07
49.77
49.75
49.96
50.24
50.24
49.50
47.56
44.15
39.30
33.38
26.92
20.52
14.60
9.32
4.50
-0.33
-5.80
-12.40
-20.22
-28.67
-36.40
-41.67
-42.81
-38.89
-30.01
-17.40
-2.97
11.28
23.77
33.60
40.51
44.67
46.39
46.05
44.00
40.69
36.62
32.39
28.57
25.60
23.75
23.00
23.08
23.62
24.20
24.43
24.00
22.66
20.25
16.75
12.30
7.16
1.70
-3.74
-8.95
-13.94
-18.92
-24.25
-30.27
-37.15
-44.64
-51.93
-57.70
-60.45
-58.95
-52.77
-42.50
-29.60
-15.93
-3.15
7.62
15.92
21.68
25.03
26.10
25.13
22.55
19.04
15.44
12.45
10.41
9.34
9.01
9.19
9.75
10.64
11.76
12.88
13.57
13.38
12.01
9.42
5.83
1.65
-2.72
-6.99
-11.06
-14.99
-19.03
-23.49
-28.78
-35.13
-42.42
-49.91
-56.30
-59.89
-59.18
-53.43
-42.90
-28.96
-13.58
1.25
14.06
24.11
31.34
36.06
38.58
39.14
37.96
35.36
31.90
28.30
25.32
23.49
22.94
23.38
24.28
25.02
25.21
24.73
23.70
22.32
20.68
18.64
15.89
12.10
7.12
1.16
-5.25
-11.38
-16.64
-20.76
-23.96
-26.80
-29.97
-34.07
-39.31
-45.46
-51.80
-57.22
-60.41
-60.20
-55.88
-47.49
-35.89
-22.45
-8.77
3.80
14.32
22.33
27.64
30.21
30.11
27.57
23.26
18.22
13.73
10.90
10.37
12.01
15.05
18.49
21.40
23.35
24.36
24.78
24.87
24.65
23.81
21.95
18.83
14.51
9.42
4.10
-0.89
-5.22
-8.77
-11.59
-13.89
-16.04
-18.55
-21.97
-26.65
-32.33
-38.10
-42.44
-43.72
-40.75
-33.29
-22.17
-8.96
4.45
16.47
26.07
32.86
36.84
38.24
37.38
34.64
30.62
26.01
21.61
18.12
15.90
15.01
15.10
15.71
16.36
16.77
16.82
16.63
16.28
15.75
14.84
13.17
10.40
6.38
1.36
-4.09
-9.27
-13.67
-17.19
-20.11
-22.95
-26.21
-30.26
-35.19
-40.91
-47.01
-52.71
-56.82
-57.94
-54.93
-47.34
-35.77
-21.74
-7.20
6.09
17.00
25.13
30.57
33.57
34.38
33.15
30.14
25.84
20.98
16.42
12.89
10.92
10.58
11.57
13.30
15.09
16.40
16.98
16.87
16.28
15.43
14.41
13.01
10.95
8.04
4.26
-0.03
-4.37
-8.23
-11.36
-13.84
-15.98
-18.21
-20.93
-24.37
-28.67
-33.80
-39.44
-44.90
-49.05
-50.62
-48.50
-42.34
-32.67
-20.83
-8.51
2.77
12.07
19.00
23.62
26.08
26.49
24.89
21.54
17.00
12.18
8.08
5.47
4.65
5.33
6.84
8.45
9.59
10.06
9.96
9.47
8.75
7.76
6.32
4.16
1.14
-2.75
-7.25
-11.93
-16.29
-19.97
-22.89
-25.22
-27.43
-30.03
-33.40
-37.73
-42.79
-47.95
-52.20
-54.37
-53.36
-48.62
-40.34
-29.50
-17.56
-6.03
3.96
11.84
17.53
21.16
22.84
22.67
20.76
17.43
13.28
9.08
5.54
3.10
1.87
1.64
2.07
2.83
3.61
4.11
3.96
2.76
0.16
-3.92
-9.21
-15.22
-21.32
-27.00
-32.07
-36.59
-40.86
-45.29
-50.27
-56.11
-62.94
-70.46
-77.89
-83.95
-87.16
-86.32
-80.97
-71.76
-60.15
-47.95
-36.61
-26.73
-18.01
-9.62
-0.81
8.72
18.70
28.62
38.10
47.19
56.24
65.64
75.54
85.81
96.20
106.56
117.00
127.76
138.68
148.90
156.72
159.94
156.62
145.78
127.88
104.70
78.80
52.84
29.02
8.66
-7.73
-20.48
-30.57
-39.48
-48.84
-59.96
-73.27
-87.94
-101.93
-112.62
-117.64
-115.75
-107.25
-93.79
-77.81
-61.72
-47.30
-35.50
-26.52
-20.22
-16.36
-14.74
-14.99
-16.61
-18.83
-20.83
-21.94
-21.91
-20.93
-19.58
-18.57
-18.49
-19.50
-21.32
-23.34
-24.88
-25.39
-24.66
-22.72
-19.71
-15.56
-10.00
-2.71
6.44
17.08
28.20
38.33
45.88
49.59
48.74
43.40
34.16
21.98
7.90
-6.98
-21.52
-34.60
-45.06
-51.97
-54.78
-53.39
-48.12
-39.50
-28.19
-14.85
-0.28
14.50
28.21
39.55
47.48
51.53
52.03
49.89
46.34
42.54
39.24
36.77
35.19
34.50
34.77
36.12
38.55
41.69
44.90
47.35
48.39
47.79
45.81
43.01
40.01
37.17
34.62
32.34
30.32
28.60
27.30
26.36
25.58
24.60
23.21
21.55
20.23
20.13
22.07
26.47
33.06
41.03
49.21
56.53
62.25
66.16
68.40
69.27
69.04
67.88
66.00
63.71
61.49
59.82
58.97
58.96
59.47
60.07
60.32
59.99
58.93
57.04
54.23
50.33
45.25
38.94
31.46
22.86
13.29
3.06
-7.31
-17.05
-25.38
-31.68
-35.81
-38.09
-39.24
-40.12
-41.39
-43.36
-45.94
-48.78
-51.39
-53.44
-54.84
-55.72
-56.46
-57.38
-58.72
-60.55
-62.89
-65.70
-68.91
-72.28
-75.30
-77.24
-77.35
-75.26
-71.28
-66.43
-62.15
-59.73
-59.86
-62.39
-66.60
-71.54
-76.49
-81.06
-85.17
-88.82
-91.96
-94.46
-96.19
-97.12
-97.35
-97.04
-96.26
-95.01
-93.29
-91.14
-88.79
-86.50
-84.59
-83.21
-82.41
-82.14
-82.32
-82.80
-83.44
-83.94
-83.95
-83.08
-81.04
-77.71
-73.19
-67.70
-61.45
-54.61
-47.40
-40.06
-32.96
-26.47
-20.78
-15.92
-11.65
-7.68
-3.86
-0.39
2.20
3.19
1.95
-1.67
-7.16
-13.31
-18.54
-21.30
-20.56
-16.03
-8.25
1.67
12.34
22.57
31.49
38.66
44.01
47.65
49.88
50.97
51.25
51.04
50.62
50.27
50.19
50.48
51.14
52.07
53.17
54.29
55.33
56.21
56.82
57.02
56.71
55.82
54.33
52.34
50.00
47.49
44.93
42.33
39.71
37.07
34.49
32.05
29.81
27.71
25.67
23.58
21.37
19.08
16.83
14.65
12.53
10.25
7.55
4.15
-0.15
-5.49
-11.83
-18.94
-26.29
-32.95
-37.71
-39.40
-37.25
-31.25
-22.28
-11.75
-1.24
8.03
15.46
21.01
25.00
27.78
29.61
30.64
31.05
31.05
30.95
31.07
31.66
32.82
34.49
36.52
38.72
40.96
43.11
45.07
46.71
47.82
48.20
47.68
46.20
43.80
40.59
36.65
32.04
26.84
21.19
15.36
9.70
4.51
-0.01
-3.92
-7.44
-10.87
-14.50
-18.42
-22.57
-26.71
-30.58
-33.97
-36.84
-39.36
-41.90
-44.89
-48.70
-53.44
-58.86
-64.23
-68.52
-70.52
-69.26
-64.30
-55.94
-45.17
-33.42
-22.13
-12.42
-4.82
0.67
4.36
6.67
7.93
8.35
8.14
7.53
6.96
6.92
7.88
10.06
13.38
17.45
21.71
25.63
28.88
31.34
33.00
33.85
33.79
32.65
30.33
26.92
22.78
18.50
14.65
11.56
9.24
7.31
5.28
2.75
-0.39
-3.93
-7.49
-10.72
-13.51
-15.97
-18.35
-20.98
-24.15
-28.15
-33.16
-39.16
-45.75
-52.02
-56.63
-58.09
-55.32
-48.04
-36.96
-23.64
-9.90
2.69
13.24
21.53
27.82
32.47
35.75
37.81
38.83
39.07
39.00
39.02
39.45
40.36
41.56
42.78
43.84
44.69
45.47
46.42
47.76
49.55
51.62
53.59
54.96
55.18
53.80
50.57
45.50
38.84
31.07
22.73
14.34
6.22
-1.46
-8.68
-15.43
-21.61
-27.03
-31.50
-34.93
-37.44
-39.34
-41.02
-42.85
-45.07
-47.91
-51.50
-55.83
-60.67
-65.38
-68.92
-70.06
-67.85
-61.92
-52.76
-41.50
-29.55
-18.03
-7.44
2.40
11.98
21.71
31.61
41.23
49.93
57.24
63.08
67.78
71.92
75.96
80.12
84.27
88.05
91.03
92.82
93.14
91.80
88.71
83.94
77.67
70.32
62.37
54.38
46.92
40.42
35.09
30.97
27.92
25.71
24.06
22.64
21.18
19.37
17.02
14.09
10.72
7.21
3.80
0.59
-2.65
-6.24
-10.48
-15.44
-20.90
-26.51
-31.87
-36.78
-40.99
-44.24
-46.06
-45.93
-43.44
-38.57
-31.74
-23.68
-15.26
-7.21
-0.15
5.41
8.92
9.87
7.93
3.24
-3.45
-10.88
-17.47
-21.80
-22.94
-20.67
-15.44
-8.14
0.18
8.63
16.61
23.88
30.25
35.56
39.47
41.65
41.94
40.50
37.83
34.52
31.06
27.63
24.04
19.98
15.17
9.62
3.59
-2.46
-8.08
-12.90
-16.90
-20.36
-23.73
-27.54
-32.19
-37.81
-44.12
-50.59
-56.45
-60.88
-63.24
-63.20
-60.88
-56.80
-51.77
-46.65
-42.18
-38.75
-36.39
-34.87
-33.88
-33.16
-32.60
-32.12
-31.69
-31.19
-30.37
-28.90
-26.50
-23.11
-18.93
-14.39
-10.01
-6.24
-3.32
-1.27
0.03
0.67
0.66
-0.13
-1.86
-4.57
-8.09
-12.04
-15.92
-19.30
-21.99
-24.10
-26.00
-28.07
-30.56
-33.49
-36.58
-39.47
-41.86
-43.64
-44.91
-45.96
-47.16
-48.90
-51.47
-54.89
-58.86
-62.65
-65.21
-65.42
-62.40
-55.86
-46.22
-34.55
-22.28
-10.86
-1.41
5.52
9.88
11.98
12.25
11.15
9.06
6.42
3.75
1.58
0.39
0.36
1.41
3.15
5.08
6.78
8.00
8.70
8.98
9.00
8.88
8.63
8.11
7.13
5.57
3.45
1.11
-0.93
-2.11
-2.14
-1.14
0.36
1.60
1.91
0.89
-1.40
-4.70
-8.57
-12.67
-16.84
-20.98
-25.07
-29.05
-32.94
-36.84
-40.91
-45.21
-49.50
-53.12
-55.04
-54.24
-50.07
-42.65
-32.87
-22.08
-11.67
-2.62
4.71
10.45
14.90
18.36
20.85
22.31
22.75
22.42
21.84
21.62
22.21
23.70
25.80
27.99
29.80
30.92
31.29
31.02
30.21
28.91
27.02
24.48
21.22
17.33
13.02
8.58
4.35
0.65
-2.29
-4.36
-5.55
-5.86
-5.32
-3.91
-1.80
0.64
2.78
3.81
3.08
0.29
-4.25
-9.67
-14.59
-17.53
-17.19
-12.87
-4.70
6.44
19.06
31.53
42.42
50.78
56.17
58.67
58.63
56.61
53.28
49.26
45.06
40.96
37.10
33.49
30.20
27.46
25.54
24.74
25.17
26.73
29.16
32.06
35.11
38.11
41.10
44.18
47.65
51.68
56.29
61.21
65.95
69.86
72.22
72.50
70.38
65.91
59.57
52.21
44.89
38.48
33.40
29.39
25.62
20.95
14.38
5.28
-6.52
-20.82
-37.07
-54.37
-71.52
-86.97
-99.12
-106.69
-109.00
-106.11
-98.66
-87.64
-73.98
-58.54
-42.10
-25.55
-9.78
4.41
16.67
27.22
36.73
46.01
55.66
65.89
76.58
87.57
98.77
110.24
122.07
134.02
145.40
155.00
161.38
163.18
159.54
150.47
136.85
120.26
102.48
85.00
68.63
53.40
38.82
24.38
9.80
-4.79
-18.99
-32.40
-44.66
-55.45
-64.42
-71.18
-75.56
-77.80
-78.57
-78.63
-78.22
-76.64
-72.23
-62.96
-47.30
-25.08
2.33
32.32
61.77
87.79
108.31
122.32
129.98
132.34
131.07
127.87
123.92
119.46
113.78
105.61
93.64
77.11
56.04
31.32
4.58
-22.23
-47.21
-68.99
-87.02
-101.45
-112.97
-122.33
-129.98
-136.11
-140.92
-144.94
-149.22
-155.09
-163.73
-175.68
-190.48
-206.78
-222.68
-236.21
-245.91
-251.11
-252.07
-249.81
-245.73
-241.03
-236.28
-231.15
-224.48
-214.58
-199.82
-179.02
-151.84
-118.88
-81.63
-42.25
-3.25
32.94
64.35
89.77
108.89
122.14
130.50
135.12
137.05
137.01
135.40
132.38
128.06
122.72
116.81
110.97
105.79
101.62
98.41
95.78
93.07
89.65
85.04
79.06
71.93
64.21
56.63
49.71
43.48
37.46
30.92
23.29
14.65
5.78
-2.25
-8.67
-13.35
-16.86
-20.02
-23.27
-26.52
-29.23
-30.93
-31.61
-31.85
-32.52
-34.41
-37.97
-43.24
-49.85
-57.12
-64.01
-69.24
-71.45
-69.60
-63.38
-53.31
-40.71
-27.18
-14.25
-2.98
6.04
12.62
16.90
19.18
19.98
19.92
19.64
19.64
20.22
21.43
23.16
25.24
27.45
29.53
31.27
32.48
33.12
33.23
32.97
32.48
31.86
31.00
29.69
27.70
24.98
21.73
18.39
15.38
12.94
11.02
9.25
7.25
4.81
2.03
-0.81
-3.44
-5.74
-7.90
-10.22
-13.05
-16.65
-21.13
-26.48
-32.52
-38.72
-44.18
-47.70
-48.11
-44.62
-37.29
-27.03
-15.41
-4.10
5.55
12.92
18.05
21.43
23.62
25.02
25.80
26.00
25.70
25.12
24.55
24.27
24.43
25.06
26.15
27.82
30.32
33.91
38.75
44.64
51.01
57.04
61.86
64.70
65.10
62.94
58.46
52.13
44.54
36.22
27.55
18.69
9.59
0.04
-10.30
-21.67
-34.02
-46.67
-58.30
-67.09
-71.33
-69.97
-63.11
-51.95
-38.35
-24.13
-10.55
1.95
13.47
24.31
34.56
44.12
52.67
59.89
65.48
69.13
70.49
69.17
64.82
57.32
46.98
34.67
21.65
9.29
-1.30
-9.64
-15.94
-20.94
-25.51
-30.26
-35.27
-40.14
-44.21
-46.94
-48.16
-48.03
-47.03
-45.68
-44.45
-43.60
-43.36
-43.87
-45.20
-47.32
-50.09
-53.27
-56.65
-60.13
-63.71
-67.32
-70.70
-73.30
-74.35
-73.10
-69.19
-62.78
-54.52
-45.43
-36.53
-28.60
-22.12
-17.29
-14.07
-12.17
-11.13
-10.24
-8.69
-5.69
-0.61
6.81
16.36
27.44
39.19
50.74
61.37
70.65
78.35
84.32
88.42
90.48
90.51
88.79
85.94
82.74
79.88
77.70
76.17
74.96
73.76
72.43
71.03
69.68
68.36
66.80
64.52
61.06
56.06
49.39
41.05
31.06
19.39
6.15
-8.37
-23.66
-39.17
-54.68
-70.51
-87.26
-105.20
-123.66
-140.64
-153.34
-159.10
-156.65
-146.67
-131.71
-115.06
-99.62
-86.94
-77.08
-69.21
-62.33
-55.93
-50.12
-45.23
-41.43
-38.50
-35.94
-33.43
-30.98
-28.83
-27.01
-24.86
-21.00
-13.83
-2.43
12.76
29.94
46.52
60.17
69.63
74.88
76.73
76.10
73.61
69.47
63.88
57.29
50.42
43.98
38.31
33.25
28.35
23.21
17.90
12.82
8.45
4.86
1.51
-2.64
-8.57
-16.70
-26.34
-35.74
-42.50
-44.38
-40.02
-29.46
-14.21
3.36
20.79
36.35
49.47
60.50
70.27
79.39
87.93
95.45
101.29
104.77
105.30
102.35
95.40
84.05
68.23
48.44
25.77
1.82
-21.58
-42.73
-60.19
-73.04
-81.13
-85.09
-86.33
-86.73
-88.03
-91.42
-97.13
-104.49
-112.37
-119.67
-125.63
-130.04
-132.95
-134.35
-133.86
-130.73
-124.04
-113.14
-98.07
-79.71
-59.57
-39.35
-20.30
-2.92
13.00
28.08
42.73
56.96
70.24
81.80
90.97
97.50
101.47
103.11
102.56
99.90
95.41
89.98
85.12
82.65
84.05
89.91
99.68
111.71
123.74
133.31
138.31
137.37
130.04
116.92
99.40
79.10
57.36
34.87
11.79
-11.79
-35.27
-57.41
-76.69
-91.93
-102.80
-109.90
-114.20
-116.50
-117.00
-115.54
-112.01
-106.84
-101.05
-95.96
-92.57
-91.16
-91.31
-92.20
-93.07
-93.35
-92.48
-89.55
-83.20
-71.97
-55.20
-33.90
-10.91
9.85
24.79
32.11
32.67
29.59
27.08
28.90
37.15
51.94
71.66
93.66
115.00
132.89
145.06
150.03
147.32
137.57
122.41
103.92
84.20
64.91
47.08
31.06
16.78
3.81
-8.39
-20.37
-32.47
-44.83
-57.26
-69.40
-80.74
-90.65
-98.40
-103.16
-104.09
-100.69
-93.04
-82.01
-69.09
-55.93
-43.94
-33.88
-25.87
-19.58
-14.61
-10.68
-7.69
-5.64
-4.54
-4.27
-4.57
-5.11
-5.47
-5.41
-4.75
-3.44
-1.58
0.78
3.59
6.82
10.34
13.88
16.95
19.01
19.72
19.04
17.34
15.21
13.15
11.37
9.70
7.68
4.76
0.51
-5.23
-12.21
-19.78
-27.00
-32.77
-36.08
-36.31
-33.33
-27.58
-19.98
-11.69
-3.85
2.58
7.06
9.44
9.97
9.17
7.78
6.46
5.73
5.89
6.97
8.84
11.23
13.80
16.17
18.07
19.30
19.81
19.70
18.97
17.67
15.68
12.97
9.59
5.78
1.89
-1.83
-5.32
-8.82
-12.75
-17.52
-23.25
-29.59
-35.75
-40.59
-42.98
-42.00
-37.35
-29.37
-19.01
-7.58
3.58
13.42
21.32
27.08
30.78
32.67
33.10
32.41
30.95
29.08
27.06
25.09
23.26
21.68
20.51
20.03
20.50
22.10
24.60
27.42
29.72
30.73
30.13
28.14
25.56
23.27
21.84
21.22
20.81
19.79
17.49
13.76
8.94
3.80
-0.73
-3.81
-4.83
-3.53
-0.00
5.47
12.54
20.82
29.87
39.00
47.23
53.39
56.57
56.34
52.70
45.60
34.54
18.95
-0.83
-22.66
-42.68
-56.76
-62.62
-61.22
-56.35
-52.46
-52.18
-55.09
-58.65
-60.51
-60.49
-60.84
-64.40
-72.22
-81.96
-88.31
-85.41
-69.48
-40.78
-3.84
34.05
65.13
83.62
87.38
78.22
61.13
42.33
27.36
19.55
19.42
25.26
34.21
43.51
51.38
57.23
61.21
63.48
63.81
61.51
55.96
47.23
36.36
25.01
14.66
5.86
-2.10
-10.83
-21.79
-35.40
-50.53
-64.89
-75.86
-81.62
-81.98
-78.50
-73.98
-71.59
-73.51
-80.20
-90.26
-101.11
-110.25
-116.39
-120.09
-123.32
-128.59
-137.67
-150.70
-166.03
-180.61
-190.88
-193.92
-188.40
-174.99
-155.94
-134.09
-111.56
-89.04
-66.07
-41.96
-16.84
8.04
30.85
50.29
66.23
79.50
91.00
100.95
108.79
113.96
116.83
118.97
122.49
128.80
137.81
147.98
157.16
163.54
166.08
164.26
157.63
145.54
127.46
103.51
74.86
43.60
12.11
-17.76
-45.11
-69.89
-92.37
-112.54
-129.56
-141.98
-148.06
-146.41
-136.62
-119.68
-97.94
-74.80
-53.84
-37.81
-27.94
-23.69
-23.28
-24.39
-25.17
-24.59
-22.28
-18.16
-12.16
-4.42
4.36
12.64
18.45
20.34
18.50
14.97
12.91
15.09
22.49
34.02
47.37
60.45
72.61
84.60
97.78
112.83
129.03
144.30
156.02
161.94
160.81
152.58
138.25
119.65
99.08
79.10
61.90
48.95
40.69
36.63
35.69
36.66
38.46
40.24
41.37
41.27
39.54
36.01
30.89
24.78
18.49
12.80
8.17
4.68
2.16
0.29
-1.17
-2.39
-3.46
-4.58
-6.01
-8.06
-10.90
-14.47
-18.48
-22.50
-26.18
-29.45
-32.53
-35.90
-40.12
-45.52
-52.05
-59.02
-65.16
-68.91
-68.73
-63.64
-53.53
-39.31
-22.73
-5.93
9.11
21.04
29.26
33.88
35.48
34.73
32.20
28.33
23.52
18.22
13.02
8.58
5.48
4.01
4.00
4.92
6.02
6.63
6.37
5.26
3.59
1.72
-0.09
-1.81
-3.59
-5.61
-8.06
-11.16
-15.10
-20.12
-26.29
-33.27
-40.16
-45.52
-47.73
-45.53
-38.53
-27.41
-13.74
0.48
13.49
24.08
31.79
36.72
39.17
39.53
38.14
35.33
31.53
27.31
23.28
19.96
17.67
16.38
15.88
15.84
15.97
16.00
15.72
14.87
13.20
10.57
7.09
3.12
-0.73
-3.96
-6.37
-8.18
-10.03
-12.74
-16.99
-22.99
-30.30
-37.75
-43.64
-46.21
-44.13
-37.04
-25.66
-11.66
2.87
16.10
26.87
34.79
40.07
43.18
44.46
44.16
42.47
39.74
36.53
33.52
31.30
30.16
30.07
30.69
31.67
32.77
33.89
34.94
35.72
35.86
34.93
32.63
28.88
23.88
18.10
12.09
6.38
1.41
-2.55
-5.44
-7.41
-8.85
-10.28
-12.19
-14.82
-17.97
-20.90
-22.51
-21.53
-17.02
-8.69
2.94
16.65
30.88
44.14
55.39
64.11
70.29
74.21
76.32
77.07
76.94
76.27
75.31
74.04
72.20
69.22
64.45
57.37
47.86
36.46
24.25
12.59
2.53
-5.50
-11.94
-17.74
-23.95
-31.21
-39.54
-48.42
-57.11
-64.95
-71.47
-76.43
-79.75
-81.66
-82.72
-83.83
-85.99
-89.98
-96.02
-103.70
-112.23
-120.85
-129.05
-136.66
-143.51
-149.18
-152.85
-153.54
-150.51
-143.70
-133.89
-122.53
-111.30
-101.55
-93.91
-88.17
-83.48
-78.83
-73.44
-66.99
-59.62
-51.69
-43.45
-34.94
-25.93
-16.20
-5.75
5.06
15.59
25.06
32.87
38.73
42.71
45.12
46.33
46.66
46.27
45.20
43.51
41.34
38.89
36.39
33.95
31.57
29.22
26.92
24.81
23.16
22.31
22.48
23.57
25.18
26.55
26.92
25.86
23.75
21.88
22.16
26.58
36.29
51.00
69.00
87.64
104.41
117.69
127.31
134.34
140.52
147.69
157.22
169.79
185.29
202.96
221.67
240.24
257.81
274.01
288.86
302.29
313.52
320.65
320.83
310.99
288.79
253.54
206.49
150.70
90.42
30.19
-25.98
-75.14
-115.69
-147.36
-170.76
-187.10
-197.74
-203.97
-206.94
-207.63
-206.88
-205.28
-203.17
-200.48
-196.80
-191.50
-183.92
-173.59
-160.37
-144.55
-126.81
-108.13
-89.56
-72.11
-56.55
-43.37
-32.84
-25.04
-19.84
-16.90
-15.73
-15.56
-15.58
-15.07
-13.57
-10.92
-7.36
-3.36
0.55
3.94
6.64
8.74
10.47
12.00
13.27
13.95
13.61
11.89
8.72
4.40
-0.49
-5.27
-9.46
-12.89
-15.69
-18.31
-21.28
-25.09
-29.98
-35.79
-41.90
-47.17
-50.28
-50.02
-45.75
-37.59
-26.49
-13.92
-1.48
9.48
18.15
24.23
27.84
29.31
28.99
27.25
24.44
20.97
17.31
13.95
11.35
9.83
9.48
10.12
11.44
12.97
14.31
15.13
15.23
14.53
13.04
10.87
8.10
4.84
1.21
-2.69
-6.72
-10.74
-14.61
-18.19
-21.41
-24.27
-26.80
-29.14
-31.47
-34.06
-37.22
-41.27
-46.32
-52.01
-57.38
-61.02
-61.41
-57.50
-49.17
-37.26
-23.42
-9.50
2.92
12.89
20.09
24.70
27.15
27.92
27.52
26.36
24.85
23.33
22.16
21.63
21.92
23.04
24.79
26.82
28.73
30.28
31.37
32.00
32.18
31.78
30.59
28.54
25.69
22.33
18.86
15.60
12.64
9.82
6.91
3.75
0.39
-2.90
-5.83
-8.21
-10.12
-11.83
-13.73
-16.18
-19.38
-23.24
-27.45
-31.60
-35.23
-38.19
-40.61
-42.95
-45.91
-50.11
-55.75
-62.35
-68.65
-72.84
-73.10
-68.19
-57.91
-43.29
-26.25
-9.10
6.17
18.28
26.84
32.04
34.41
34.52
32.94
30.24
27.09
24.17
22.05
21.03
21.12
22.09
23.63
25.44
27.34
29.25
31.16
33.00
34.60
35.77
36.24
35.76
34.14
31.42
27.77
23.65
19.61
16.11
13.41
11.48
10.11
8.98
7.80
6.36
4.56
2.48
0.29
-1.74
-3.42
-4.65
-5.60
-6.61
-8.08
-10.27
-13.22
-16.75
-20.55
-24.30
-27.84
-31.10
-34.17
-37.26
-40.68
-44.84
-50.04
-56.12
-62.30
-67.13
-68.82
-65.86
-57.65
-44.77
-28.90
-12.27
3.09
15.79
25.27
31.63
35.26
36.57
35.93
33.69
30.35
26.51
22.86
19.99
18.26
17.80
18.51
20.13
22.34
24.78
27.04
28.85
29.99
30.43
30.18
29.30
27.89
26.02
23.81
21.44
19.06
16.80
14.68
12.64
10.58
8.50
6.40
4.37
2.39
0.35
-1.99
-4.81
-8.16
-11.92
-15.77
-19.36
-22.42
-24.95
-27.18
-29.57
-32.65
-36.88
-42.43
-49.04
-55.85
-61.56
-64.62
-63.69
-57.99
-47.70
-33.91
-18.34
-2.90
10.82
21.76
29.52
34.11
35.88
35.30
32.91
29.33
25.29
21.46
18.46
16.62
15.94
16.12
16.68
17.20
17.42
17.27
16.84
16.18
15.30
14.03
12.19
9.62
6.36
2.69
-0.92
-3.88
-5.62
-5.82
-4.56
-2.38
-0.14
1.25
1.18
-0.41
-3.00
-5.70
-7.61
-8.19
-7.37
-5.60
-3.64
-2.42
-2.83
-5.69
-11.51
-20.21
-30.79
-41.39
-49.58
-53.14
-50.83
-42.94
-31.17
-18.08
-6.13
3.01
8.79
11.59
12.34
12.02
11.44
11.06
11.11
11.60
12.42
13.39
14.38
15.32
16.28
17.38
18.78
20.54
22.53
24.47
25.93
26.51
25.89
23.96
20.82
16.81
12.40
8.06
4.15
0.77
-2.20
-5.08
-8.17
-11.56
-15.17
-18.69
-21.81
-24.33
-26.27
-27.92
-29.72
-32.23
-35.84
-40.62
-46.04
-50.92
-53.66
-52.75
-47.34
-37.68
-25.04
-11.32
1.55
12.20
19.97
24.84
27.15
27.39
26.04
23.61
20.65
17.66
15.12
13.33
12.47
12.55
13.51
15.10
16.99
18.77
20.07
20.66
20.49
19.70
18.45
16.86
14.87
12.35
9.17
5.35
1.16
-3.02
-6.83
-10.03
-12.62
-14.77
-16.68
-18.54
-20.53
-22.90
-26.02
-30.25
-35.69
-41.88
-47.71
-51.56
-51.87
-47.78
-39.41
-27.99
-15.33
-3.22
7.01
14.85
20.31
23.76
25.51
25.82
24.89
23.05
20.78
18.69
17.35
17.04
17.72
18.99
20.36
21.38
21.90
22.03
22.02
21.99
21.83
21.15
19.46
16.40
11.92
6.36
0.27
-5.74
-11.22
-16.00
-20.14
-23.88
-27.53
-31.51
-36.16
-41.67
-47.87
-54.06
-59.05
-61.37
-59.79
-53.68
-43.38
-30.10
-15.58
-1.58
10.53
20.07
26.88
31.12
33.11
33.17
31.70
29.17
26.15
23.19
20.77
19.15
18.44
18.59
19.48
20.95
22.75
24.54
25.93
26.52
26.05
24.38
21.62
18.06
14.11
10.21
6.67
3.63
1.03
-1.40
-3.91
-6.67
-9.64
-12.63
-15.39
-17.79
-19.94
-22.20
-25.11
-29.15
-34.55
-41.08
-47.87
-53.56
-56.50
-55.26
-49.15
-38.56
-24.90
-10.15
3.69
15.16
23.61
29.06
31.97
32.92
32.40
30.89
28.84
26.76
25.20
24.62
25.25
27.00
29.54
32.34
34.84
36.60
37.42
37.36
36.57
35.26
33.54
31.41
28.82
25.77
22.35
18.73
15.13
11.69
8.53
5.69
3.13
0.77
-1.52
-3.88
-6.44
-9.23
-12.15
-15.03
-17.68
-19.99
-21.98
-23.83
-25.80
-28.19
-31.29
-35.38
-40.57
-46.69
-53.09
-58.59
-61.67
-60.90
-55.43
-45.44
-32.13
-17.35
-3.10
9.14
18.61
25.21
29.27
31.24
31.52
30.46
28.44
25.92
23.47
21.62
20.82
21.22
22.75
25.10
27.92
30.85
33.61
36.05
38.05
39.43
39.95
39.37
37.56
34.65
31.04
27.25
23.82
21.08
19.05
17.51
16.07
14.34
12.13
9.36
6.15
2.74
-0.62
-3.68
-6.32
-8.62
-10.89
-13.66
-17.49
-22.86
-29.82
-37.79
-45.56
-51.41
-53.60
-50.98
-43.36
-31.68
-17.73
-3.54
9.20
19.51
27.19
32.47
35.70
37.11
36.78
34.83
31.67
27.94
24.42
21.80
20.47
20.41
21.33
22.80
24.42
25.97
27.40
28.76
30.06
31.24
31.98
31.89
30.57
27.80
23.70
18.71
13.45
8.54
4.33
0.88
-1.98
-4.63
-7.36
-10.34
-13.57
-16.89
-20.02
-22.68
-24.71
-26.12
-27.24
-28.67
-31.14
-35.26
-41.28
-48.96
-57.36
-65.09
-70.42
-71.75
-68.07
-59.25
-46.18
-30.62
-14.68
-0.30
11.15
19.09
23.68
25.49
25.28
23.74
21.57
19.33
17.59
16.72
16.84
17.78
19.23
20.87
22.55
24.37
26.52
29.09
31.88
34.42
36.09
36.32
34.91
32.07
28.42
24.74
21.71
19.75
18.84
18.54
18.26
17.44
15.79
13.43
10.75
8.24
6.28
4.89
3.85
2.79
1.32
-0.69
-3.13
-5.75
-8.25
-10.50
-12.54
-14.66
-17.31
-21.02
-26.19
-32.91
-40.68
-48.29
-54.07
-56.28
-53.76
-46.35
-35.03
-21.58
-8.04
3.91
13.29
19.84
23.81
25.71
26.04
25.32
24.05
22.70
21.73
21.42
21.92
23.12
24.81
26.70
28.61
30.34
31.79
32.85
33.31
32.93
31.51
28.96
25.41
21.18
16.80
12.81
9.64
7.34
5.72
4.36
2.88
1.10
-0.85
-2.72
-4.23
-5.30
-6.11
-6.98
-8.25
-10.16
-12.68
-15.57
-18.47
-21.07
-23.26
-25.19
-27.24
-29.88
-33.51
-38.31
-44.11
-50.39
-56.26
-60.52
-61.88
-59.27
-52.19
-40.98
-26.79
-11.33
3.68
16.90
27.69
35.91
41.74
45.33
46.72
45.93
43.22
39.16
34.54
30.24
26.86
24.64
23.45
22.94
22.75
22.64
22.48
22.19
21.73
20.90
19.56
17.55
14.85
11.58
8.02
4.48
1.17
-1.76
-4.34
-6.57
-8.44
-9.90
-10.98
-11.90
-12.95
-14.50
-16.69
-19.41
-22.26
-24.84
-26.91
-28.51
-29.91
-31.46
-33.45
-36.15
-39.73
-44.18
-49.16
-53.84
-56.91
-56.94
-52.87
-44.49
-32.59
-18.78
-4.90
7.50
17.42
24.53
28.94
31.01
31.17
29.97
27.95
25.63
23.45
21.62
20.15
18.90
17.72
16.58
15.61
15.00
14.96
15.54
16.69
18.13
19.51
20.55
21.03
20.94
20.38
19.44
18.05
16.02
13.05
8.95
3.82
-1.94
-7.71
-12.89
-17.11
-20.40
-23.08
-25.67
-28.79
-32.92
-38.31
-44.68
-51.21
-56.46
-58.75
-56.72
-49.78
-38.54
-24.57
-9.97
3.33
14.05
21.78
26.84
29.90
31.60
32.33
32.20
31.16
29.15
26.30
22.97
19.63
16.72
14.43
12.81
11.74
11.15
11.05
11.56
12.69
14.27
15.91
17.09
17.36
16.56
14.83
12.56
10.22
8.20
6.62
5.35
4.04
2.35
-0.03
-3.19
-7.00
-11.11
-15.09
-18.50
-20.97
-22.41
-23.01
-23.24
-23.80
-25.43
-28.68
-33.72
-40.10
-46.74
-52.10
-54.56
-52.89
-46.69
-36.52
-23.76
-10.15
2.69
13.64
22.16
28.22
32.08
34.11
34.68
34.18
32.98
31.48
30.16
29.47
29.85
31.50
34.31
37.78
41.11
43.49
44.36
43.64
41.64
38.89
35.76
32.28
28.19
23.13
17.02
10.19
3.36
-2.64
-7.19
-10.14
-11.78
-12.61
-13.10
-13.38
-13.35
-12.78
-11.66
-10.33
-9.50
-9.98
-12.34
-16.62
-22.21
-28.14
-33.39
-37.37
-40.02
-41.84
-43.56
-45.90
-49.40
-54.26
-60.29
-66.81
-72.56
-75.91
-75.25
-69.53
-58.77
-44.20
-27.82
-11.87
1.91
12.62
20.13
24.90
27.51
28.52
28.43
27.69
26.75
25.99
25.69
25.93
26.73
27.96
29.46
31.07
32.67
34.18
35.63
37.07
38.47
39.74
40.64
40.93
40.50
39.47
38.12
36.85
35.91
35.26
34.68
33.82
32.44
30.47
28.11
25.66
23.36
21.36
19.55
17.68
15.43
12.58
9.05
4.93
0.46
-4.05
-8.32
-12.13
-15.45
-18.44
-21.48
-25.05
-29.64
-35.43
-42.05
-48.44
-52.95
-53.83
-49.87
-40.96
-28.21
-13.68
0.30
11.83
19.92
24.48
25.94
24.93
21.99
17.53
12.02
6.11
0.58
-3.78
-6.41
-7.11
-6.10
-3.85
-0.98
2.01
4.82
7.38
9.71
11.84
13.69
14.96
15.35
14.59
12.62
9.67
6.15
2.54
-0.81
-3.73
-6.22
-8.45
-10.63
-12.81
-14.93
-16.81
-18.24
-19.10
-19.44
-19.50
-19.59
-20.03
-20.97
-22.40
-24.16
-26.08
-28.04
-30.00
-31.95
-33.91
-35.92
-38.13
-40.76
-44.14
-48.41
-53.29
-57.82
-60.61
-60.10
-55.24
-45.89
-32.99
-18.22
-3.54
9.47
19.86
27.37
32.19
34.67
35.18
34.13
32.02
29.41
26.92
25.01
23.92
23.66
24.07
24.87
25.85
26.86
27.83
28.68
29.36
29.78
29.87
29.59
28.90
27.79
26.25
24.24
21.82
19.08
16.20
13.43
10.97
8.90
7.10
5.39
3.54
1.49
-0.66
-2.77
-4.67
-6.44
-8.27
-10.43
-13.03
-15.97
-18.94
-21.63
-23.89
-25.81
-27.75
-30.08
-33.12
-37.07
-41.90
-47.35
-52.74
-57.06
-58.96
-57.22
-51.13
-40.92
-27.78
-13.53
-0.04
11.32
19.91
25.80
29.39
31.10
31.28
30.22
28.23
25.72
23.20
21.01
19.35
18.21
17.42
16.88
16.60
16.72
17.40
18.65
20.33
22.16
23.77
24.87
25.33
25.12
24.37
23.16
21.58
19.67
17.41
14.81
11.93
8.87
5.74
2.61
-0.57
-3.86
-7.26
-10.59
-13.52
-15.69
-16.85
-17.12
-16.90
-16.82
-17.44
-19.15
-22.08
-26.12
-30.89
-35.80
-40.03
-42.60
-42.69
-39.86
-34.25
-26.58
-17.94
-9.45
-2.01
3.85
8.00
10.58
11.90
12.36
12.32
12.09
11.82
11.55
11.29
11.08
11.07
11.48
12.41
13.81
15.42
16.90
17.96
18.49
18.55
18.30
17.74
16.75
15.12
12.73
9.66
6.32
3.18
0.64
-1.23
-2.78
-4.61
-7.40
-11.57
-17.21
-23.98
-31.24
-38.32
-44.66
-50.03
-54.47
-58.22
-61.65
-65.26
-69.66
-75.32
-82.19
-89.24
-94.36
-94.79
-88.12
-73.31
-51.22
-24.43
3.67
29.90
52.14
69.42
81.73
89.48
93.26
93.71
91.57
87.75
83.21
78.82
75.12
72.32
70.18
68.35
66.62
65.30
65.18
67.33
72.49
80.63
90.73
101.12
110.12
116.53
119.88
120.33
118.39
114.52
109.10
102.38
94.48
85.35
74.97
63.47
51.33
39.29
27.99
17.42
6.65
-5.89
-21.34
-39.32
-57.22
-70.81
-75.85
-70.07
-54.46
-32.97
-10.97
6.79
17.75
21.84
20.68
16.30
10.28
3.48
-3.56
-10.21
-15.57
-18.93
-20.22
-20.33
-20.82
-23.09
-27.59
-33.45
-38.99
-42.61
-43.89
-43.95
-45.06
-49.56
-58.86
-72.88
-90.27
-109.07
-127.49
-144.34
-158.97
-170.86
-179.30
-183.56
-183.58
-180.31
-175.60
-171.33
-168.40
-166.21
-162.96
-156.62
-146.07
-131.55
-114.46
-96.62
-79.53
-64.09
-50.71
-39.50
-30.34
-22.76
-15.83
-8.49
-0.03
9.44
19.10
27.75
34.23
37.79
38.18
35.79
31.50
26.44
21.59
17.51
14.16
11.08
7.85
4.42
1.28
-0.90
-1.67
-1.00
0.67
2.69
4.61
6.29
7.93
9.83
12.20
15.02
18.10
21.13
23.85
26.10
27.96
29.55
31.09
32.61
33.98
35.07
35.82
36.29
36.55
36.63
36.39
35.67
34.44
32.89
31.45
30.54
30.41
30.89
31.48
31.48
30.38
27.95
24.40
20.13
15.61
11.17
6.91
2.83
-1.16
-5.19
-9.45
-14.23
-19.74
-26.05
-32.77
-38.98
-43.51
-45.20
-43.36
-37.97
-29.74
-19.66
-8.80
2.02
12.28
21.67
29.97
36.95
42.40
46.19
48.29
48.84
48.12
46.51
44.47
42.45
40.83
39.87
39.55
39.70
39.99
40.10
39.83
39.17
38.27
37.29
36.35
35.48
34.62
33.73
32.80
31.84
30.90
29.88
28.69
27.21
25.50
23.75
22.27
21.27
20.75
20.40
19.74
18.41
16.35
13.81
11.17
8.79
6.75
4.93
3.19
1.56
0.34
-0.04
0.77
2.77
5.65
8.90
12.04
14.87
17.46
19.99
22.61
25.20
27.41
28.71
28.70
27.15
24.09
19.67
14.06
7.41
-0.02
-7.76
-15.06
-21.02
-24.90
-26.37
-25.80
-24.04
-22.15
-21.02
-21.09
-22.34
-24.30
-26.37
-27.86
-28.17
-26.86
-23.68
-18.71
-12.31
-5.06
2.40
9.59
16.41
23.05
29.90
37.35
45.55
54.37
63.50
72.45
80.62
87.23
91.39
92.32
89.59
83.45
74.83
65.06
55.34
46.28
37.81
29.49
20.92
12.18
3.82
-3.41
-9.03
-13.03
-15.86
-18.08
-20.07
-21.88
-23.28
-24.03
-24.07
-23.55
-22.75
-21.93
-21.13
-20.25
-19.12
-17.66
-16.02
-14.51
-13.51
-13.27
-13.81
-14.92
-16.21
-17.30
-17.93
-17.92
-17.25
-15.94
-14.07
-11.83
-9.49
-7.35
-5.66
-4.54
-3.93
-3.65
-3.46
-3.18
-2.72
-2.09
-1.39
-0.82
-0.58
-0.80
-1.48
-2.45
-3.49
-4.31
-4.77
-4.90
-4.87
-4.88
-5.09
-5.44
-5.81
-6.01
-5.94
-5.66
-5.34
-5.22
-5.47
-6.15
-7.23
-8.57
-10.01
-11.40
-12.60
-13.58
-14.43
-15.34
-16.68
-18.80
-21.98
-26.25
-31.25
-36.25
-40.23
-42.15
-41.28
-37.44
-31.05
-23.04
-14.58
-6.70
-0.10
4.93
8.40
10.52
11.57
11.84
11.65
11.33
11.15
11.26
11.65
12.16
12.58
12.71
12.54
12.17
11.75
11.44
11.28
11.18
11.00
10.61
9.90
8.90
7.64
6.26
4.95
3.92
3.34
3.22
3.40
3.55
3.35
2.64
1.47
0.07
-1.36
-2.74
-4.14
-5.67
-7.41
-9.27
-11.10
-12.78
-14.30
-15.75
-17.25
-18.86
-20.53
-22.23
-23.93
-25.72
-27.73
-30.10
-32.93
-36.22
-39.76
-43.18
-45.93
-47.40
-47.04
-44.58
-40.03
-33.76
-26.39
-18.70
-11.46
-5.31
-0.58
2.63
4.51
5.44
5.84
6.11
6.52
7.20
8.18
9.37
10.60
11.67
12.41
12.75
12.81
12.85
13.08
13.62
14.35
15.03
15.34
15.05
14.10
12.58
10.68
8.65
6.72
5.11
3.98
3.35
3.12
3.01
2.67
1.87
0.51
-1.29
-3.29
-5.18
-6.80
-8.18
-9.54
-11.13
-13.13
-15.55
-18.22
-20.95
-23.55
-25.90
-28.05
-30.15
-32.36
-34.76
-37.29
-39.60
-41.16
-41.30
-39.47
-35.40
-29.25
-21.58
-13.21
-4.97
2.42
8.47
12.95
15.82
17.20
17.39
16.83
16.04
15.60
15.90
17.11
19.13
21.71
24.53
27.33
29.99
32.45
34.63
36.45
37.80
38.63
38.98
38.89
38.34
37.22
35.28
32.38
28.55
24.12
19.58
15.43
11.95
9.09
6.57
4.08
1.39
-1.57
-4.67
-7.77
-10.83
-13.83
-16.84
-19.89
-22.90
-25.82
-28.61
-31.37
-34.31
-37.54
-40.96
-44.08
-46.18
-46.57
-44.83
-41.01
-35.66
-29.54
-23.39
-17.70
-12.71
-8.55
-5.35
-3.30
-2.55
-3.10
-4.59
-6.37
-7.56
-7.32
-5.11
-0.75
5.47
13.00
21.14
29.22
36.73
43.28
48.69
52.93
56.05
58.12
59.16
59.12
57.91
55.45
51.75
47.06
41.78
36.45
31.55
27.37
23.96
21.10
18.42
15.55
12.30
8.61
4.64
0.52
-3.63
-7.83
-12.19
-16.85
-21.93
-27.53
-33.69
-40.24
-46.70
-52.30
-56.05
-57.05
-54.80
-49.42
-41.63
-32.60
-23.49
-15.29
-8.62
-3.76
-0.71
0.76
0.95
0.20
-1.19
-3.00
-5.08
-7.29
-9.38
-11.07
-12.13
-12.52
-12.47
-12.45
-12.97
-14.39
-16.71
-19.51
-22.10
-23.67
-23.51
-21.29
-17.14
-11.68
-5.79
-0.48
3.44
5.49
5.60
3.95
1.04
-2.57
-6.28
-9.54
-11.84
-12.95
-12.88
-11.90
-10.51
-9.30
-8.81
-9.44
-11.33
-14.32
-17.97
-21.51
-23.95
-24.32
-21.92
-16.59
-8.82
0.30
9.45
17.46
23.60
27.71
30.04
31.07
31.17
30.53
29.15
26.97
24.06
20.64
17.08
13.72
10.85
8.58
6.83
5.52
4.48
3.56
2.59
1.43
-0.07
-1.94
-4.03
-6.04
-7.55
-8.21
-7.80
-6.35
-4.11
-1.45
1.31
3.92
6.31
8.47
10.47
12.31
13.96
15.30
16.17
16.44
16.05
15.00
13.32
11.11
8.39
5.17
1.35
-3.23
-8.67
-14.99
-21.97
-29.11
-35.66
-40.69
-43.35
-43.03
-39.59
-33.44
-25.42
-16.63
-8.17
-0.89
4.62
8.04
9.29
8.43
5.71
1.58
-3.29
-8.04
-11.77
-13.69
-13.38
-10.85
-6.56
-1.10
4.96
11.35
18.03
25.05
32.34
39.55
46.12
51.55
55.61
58.51
60.77
63.00
65.56
68.46
71.32
73.51
74.39
73.43
70.44
65.55
59.13
51.63
43.40
34.66
25.46
15.87
6.07
-3.56
-12.53
-20.47
-27.24
-32.99
-38.09
-42.88
-47.60
-52.36
-57.22
-62.23
-67.37
-72.33
-76.37
-78.40
-77.30
-72.29
-63.38
-51.34
-37.51
-23.31
-9.81
2.39
13.15
22.65
31.21
39.29
47.56
56.72
67.33
79.40
92.10
103.77
112.38
116.06
113.96
106.55
95.49
82.93
70.73
59.71
49.57
39.32
27.96
15.20
1.62
-11.54
-22.82
-31.13
-35.91
-37.24
-35.64
-31.92
-27.05
-22.01
-17.77
-15.03
-14.22
-15.27
-17.66
-20.46
-22.62
-23.31
-22.22
-19.87
-17.53
-16.83
-19.24
-25.41
-34.79
-45.71
-55.82
-62.83
-65.31
-63.09
-57.25
-49.65
-42.22
-36.35
-32.64
-30.96
-30.76
-31.51
-32.78
-34.26
-35.57
-36.19
-35.51
-33.04
-28.56
-22.16
-14.25
-5.41
3.75
12.61
20.66
27.56
33.07
37.16
39.92
41.43
41.77
41.06
39.45
37.26
35.02
33.32
32.71
33.52
35.69
38.78
42.07
44.73
46.04
45.60
43.42
39.90
35.56
30.87
26.09
21.18
15.85
9.85
3.15
-3.87
-10.26
-14.72
-15.92
-12.89
-5.51
5.44
18.40
31.38
42.47
50.16
53.61
52.66
47.78
39.90
30.25
20.09
10.46
2.07
-4.75
-9.88
-13.30
-14.97
-14.94
-13.36
-10.58
-7.07
-3.13
1.12
5.81
11.08
16.88
22.83
28.26
32.51
35.15
36.21
36.17
35.74
35.59
36.14
37.47
39.36
41.45
43.43
45.10
46.39
47.31
47.87
48.09
48.02
47.83
47.81
48.28
49.40
51.10
52.96
54.39
54.79
53.74
51.16
47.29
42.71
38.22
34.71
32.90
33.14
35.19
38.31
41.44
43.59
44.09
42.78
39.90
35.91
31.26
26.26
21.14
16.15
11.59
7.91
5.53
4.74
5.55
7.64
10.38
12.97
14.59
14.57
12.51
8.38
2.54
-4.29
-11.27
-17.61
-22.87
-27.06
-30.64
-34.30
-38.71
-44.25
-50.97
-58.58
-66.61
-74.51
-81.87
-88.37
-93.91
-98.57
-102.60
-106.33
-110.14
-114.21
-118.52
-122.80
-126.59
-129.42
-130.99
-131.17
-130.02
-127.62
-123.94
-118.77
-111.77
-102.70
-91.59
-78.85
-65.25
-51.61
-38.71
-26.98
-16.57
-7.41
0.69
7.97
14.67
21.18
27.93
35.20
43.03
50.95
58.06
63.28
65.68
64.89
61.24
55.63
49.33
43.64
39.51
37.43
37.41
39.04
41.60
44.26
46.28
47.13
46.70
45.17
42.97
40.49
37.96
35.34
32.38
28.74
24.16
18.57
12.10
5.18
-1.62
-7.73
-12.70
-16.49
-19.49
-22.51
-26.47
-32.01
-39.14
-47.17
-54.91
-61.06
-64.65
-65.28
-63.19
-59.17
-54.22
-49.36
-45.37
-42.70
-41.43
-41.38
-42.24
-43.71
-45.50
-47.33
-48.86
-49.80
-49.91
-49.14
-47.64
-45.72
-43.68
-41.69
-39.70
-37.53
-34.99
-32.16
-29.34
-27.13
-26.13
-26.71
-28.81
-31.97
-35.45
-38.55
-40.91
-42.59
-43.95
-45.36
-46.85
-48.06
-48.31
-47.00
-43.84
-39.11
-33.51
-27.93
-23.08
-19.27
-16.49
-14.50
-13.06
-12.06
-11.47
-11.29
-11.64
-12.68
-14.70
-17.91
-22.28
-27.27
-31.82
-34.66
-34.63
-31.23
-24.68
-15.91
-6.21
3.15
11.20
17.30
21.30
23.29
23.64
22.89
21.61
20.26
19.09
18.21
17.54
17.05
16.75
16.72
17.11
17.94
19.13
20.41
21.42
21.79
21.27
19.73
17.19
13.85
10.11
6.48
3.59
2.05
2.32
4.63
8.86
14.60
21.19
27.86
33.83
38.50
41.53
42.83
42.61
41.22
39.03
36.35
33.37
30.15
26.64
22.66
17.86
11.86
4.45
-4.10
-12.93
-20.69
-25.92
-27.60
-25.56
-20.50
-13.72
-6.57
-0.10
5.20
9.22
11.94
13.31
13.17
11.47
8.46
4.75
1.12
-1.74
-3.37
-3.73
-3.06
-1.75
-0.18
1.38
2.82
4.12
5.32
6.46
7.43
8.02
7.92
6.85
4.67
1.42
-2.60
-6.98
-11.34
-15.48
-19.36
-23.06
-26.64
-30.03
-33.04
-35.44
-37.07
-37.89
-37.99
-37.50
-36.52
-35.13
-33.39
-31.50
-29.87
-29.04
-29.55
-31.71
-35.40
-39.96
-44.26
-46.96
-46.83
-43.17
-35.97
-25.94
-14.24
-2.27
8.69
17.64
24.07
27.94
29.66
29.91
29.47
29.08
29.30
30.42
32.58
35.72
39.70
44.23
48.96
53.52
57.63
61.18
64.17
66.70
68.68
69.98
70.34
69.63
67.96
65.73
63.48
61.64
60.48
59.96
59.99
60.44
61.31
62.61
64.21
65.86
67.15
67.74
67.37
65.98
63.61
60.26
55.81
50.03
42.61
33.33
22.11
9.19
-4.86
-19.02
-31.95
-42.24
-48.78
-51.05
-49.36
-44.75
-38.65
-32.53
-27.44
-23.86
-21.69
-20.43
-19.52
-18.46
-16.99
-15.04
-12.63
-9.73
-6.26
-2.06
2.96
8.78
15.12
21.55
27.55
32.74
36.94
40.18
42.67
44.57
45.96
46.84
47.15
46.84
45.84
43.99
41.04
36.74
31.05
24.25
16.96
9.97
3.86
-1.12
-5.22
-9.06
-13.31
-18.52
-24.86
-32.07
-39.44
-46.03
-50.79
-52.93
-52.14
-48.74
-43.55
-37.70
-32.25
-27.96
-25.17
-23.85
-23.77
-24.65
-26.18
-28.07
-30.01
-31.70
-32.82
-33.13
-32.50
-30.88
-28.35
-24.97
-20.88
-16.28
-11.46
-6.85
-2.90
0.01
1.70
2.23
1.93
1.22
0.55
0.20
0.32
0.84
1.55
2.21
2.59
2.65
2.49
2.35
2.51
3.12
4.18
5.46
6.61
7.20
6.82
5.14
2.03
-2.28
-7.21
-11.78
-14.91
-15.71
-13.83
-9.64
-4.08
1.62
6.43
9.74
11.52
12.05
11.74
10.91
9.70
8.18
6.40
4.56
2.89
1.67
1.12
1.29
2.13
3.44
4.96
6.45
7.76
8.79
9.45
9.65
9.24
8.15
6.48
4.59
2.99
2.17
2.39
3.53
5.13
6.58
7.26
6.77
4.95
1.89
-2.13
-6.72
-11.43
-15.89
-19.92
-23.58
-27.20
-31.13
-35.62
-40.54
-45.35
-49.15
-50.96
-50.04
-46.10
-39.48
-31.03
-21.95
-13.39
-6.31
-1.18
1.96
3.42
3.63
2.98
1.80
0.29
-1.31
-2.71
-3.58
-3.58
-2.50
-0.33
2.70
6.27
9.98
13.44
16.34
18.42
19.44
19.20
17.59
14.71
10.96
7.04
3.75
1.79
1.43
2.41
4.09
5.71
6.67
6.73
5.86
4.15
1.65
-1.69
-5.95
-11.12
-17.09
-23.64
-30.54
-37.57
-44.37
-50.42
-55.00
-57.27
-56.69
-53.14
-47.12
-39.50
-31.18
-22.76
-14.50
-6.34
1.80
9.86
17.56
24.51
30.35
34.90
38.05
39.86
40.44
40.03
38.97
37.61
36.22
34.97
33.84
32.73
31.56
30.30
28.99
27.61
26.08
24.31
22.17
19.73
17.18
14.81
12.88
11.47
10.44
9.44
8.09
6.16
3.67
0.89
-1.82
-4.11
-5.85
-7.08
-8.08
-9.21
-10.86
-13.37
-16.89
-21.31
-26.22
-30.86
-34.24
-35.37
-33.56
-28.67
-21.24
-12.35
-3.29
4.83
11.38
16.27
19.83
22.55
24.76
26.53
27.64
27.70
26.42
23.69
19.74
15.06
10.33
6.17
3.00
0.97
0.05
0.11
1.06
2.81
5.19
7.83
10.18
11.59
11.60
10.04
7.18
3.57
-0.21
-3.71
-6.62
-8.82
-10.20
-10.70
-10.40
-9.58
-8.76
-8.53
-9.35
-11.35
-14.35
-17.90
-21.50
-24.62
-26.81
-27.68
-26.98
-24.64
-20.88
-16.17
-11.12
-6.30
-2.12
1.16
3.49
4.90
5.55
5.62
5.40
5.09
4.85
4.69
4.56
4.46
4.41
4.51
4.82
5.30
5.80
6.20
6.42
6.50
6.51
6.46
6.18
5.44
4.00
1.82
-0.91
-3.81
-6.45
-8.64
-10.39
-11.96
-13.67
-15.74
-18.15
-20.63
-22.68
-23.75
-23.41
-21.42
-17.87
-13.08
-7.59
-2.03
2.98
6.95
9.59
10.81
10.79
9.85
8.39
6.76
5.24
4.04
3.25
2.90
2.93
3.17
3.40
3.46
3.26
2.81
2.21
1.48
0.59
-0.57
-2.04
-3.76
-5.49
-6.97
-8.04
-8.72
-9.25
-10.00
-11.31
-13.37
-16.18
-19.49
-22.85
-25.65
-27.27
-27.21
-25.19
-21.36
-16.15
-10.20
-4.24
1.14
5.55
8.88
11.14
12.46
13.00
12.88
12.30
11.47
10.66
10.16
10.15
10.76
11.91
13.40
14.95
16.34
17.44
18.32
19.12
19.91
20.68
21.22
21.28
20.71
19.55
18.00
16.33
14.70
13.12
11.47
9.68
7.76
5.78
3.83
1.91
-0.06
-2.18
-4.52
-7.03
-9.60
-12.07
-14.36
-16.49
-18.55
-20.71
-23.14
-25.86
-28.75
-31.58
-34.10
-36.20
-37.92
-39.48
-41.03
-42.60
-44.05
-45.18
-45.74
-45.47
-44.07
-41.15
-36.43
-29.81
-21.59
-12.49
-3.37
4.93
11.84
17.11
20.73
22.84
23.65
23.55
22.98
22.45
22.33
22.81
23.80
25.03
26.20
27.09
27.67
28.02
28.27
28.53
28.89
29.30
29.64
29.77
29.48
28.66
27.29
25.46
23.34
21.20
19.21
17.45
15.94
14.63
13.46
12.38
11.39
10.46
9.55
8.53
7.19
5.25
2.44
-1.35
-5.97
-11.01
-15.89
-20.09
-23.34
-25.65
-27.28
-28.63
-30.03
-31.68
-33.69
-35.96
-38.22
-39.95
-40.47
-39.04
-35.21
-29.01
-21.02
-12.30
-4.03
2.87
7.96
11.33
13.46
14.89
16.11
17.34
18.65
20.04
21.47
22.84
24.07
25.01
25.53
25.63
25.42
25.16
25.14
25.58
26.49
27.68
28.75
29.29
28.97
27.68
25.56
22.92
20.16
17.61
15.45
13.66
12.09
10.56
8.96
7.34
5.89
4.78
4.12
3.84
3.75
3.52
2.89
1.66
-0.17
-2.52
-5.17
-7.88
-10.40
-12.57
-14.29
-15.65
-16.82
-18.03
-19.46
-21.18
-23.03
-24.61
-25.43
-24.93
-22.76
-18.84
-13.51
-7.41
-1.35
3.96
8.05
10.79
12.37
13.09
13.25
13.02
12.47
11.69
10.80
9.95
9.32
8.96
8.87
8.96
9.17
9.52
10.07
10.88
11.94
13.09
14.13
14.82
15.02
14.73
13.99
12.93
11.69
10.40
9.17
8.13
7.29
6.60
5.91
5.05
3.94
2.58
1.16
-0.21
-1.44
-2.58
-3.78
-5.12
-6.54
-7.87
-8.86
-9.36
-9.40
-9.20
-9.09
-9.37
-10.26
-11.78
-13.73
-15.75
-17.30
-17.89
-17.16
-15.07
-11.91
-8.24
-4.76
-1.99
-0.17
0.78
1.17
1.32
1.42
1.50
1.55
1.56
1.65
2.02
2.86
4.20
5.89
7.58
8.93
9.72
9.94
9.73
9.25
8.68
8.13
7.62
7.14
6.60
5.87
4.84
3.48
1.83
0.08
-1.55
-2.86
-3.74
-4.22
-4.47
-4.63
-4.85
-5.23
-5.85
-6.79
-8.07
-9.62
-11.19
-12.47
-13.19
-13.24
-12.84
-12.35
-12.24
-12.89
-14.39
-16.55
-18.91
-20.83
-21.76
-21.32
-19.40
-16.24
-12.28
-8.09
-4.09
-0.60
2.24
4.33
5.65
6.19
6.03
5.41
4.61
3.92
3.57
3.71
4.42
5.63
7.19
8.79
10.05
10.69
10.67
10.20
9.64
9.28
9.14
8.95
8.28
6.92
4.95
2.85
1.27
0.80
1.68
3.74
6.42
8.92
10.38
10.02
7.39
2.41
-4.53
-12.53
-20.37
-26.85
-31.10
-32.91
-32.81
-31.84
-31.11
-31.35
-32.60
-34.37
-35.93
-36.63
-36.24
-34.89
-32.86
-30.34
-27.37
-23.84
-19.67
-15.02
-10.20
-5.72
-2.00
0.72
2.44
3.35
3.72
3.80
3.71
3.47
3.04
2.49
1.97
1.76
2.14
3.23
4.93
6.93
8.79
10.14
10.83
10.92
10.54
9.86
8.98
7.94
6.72
5.37
3.90
2.34
0.65
-1.16
-3.11
-5.11
-7.04
-8.86
-10.67
-12.64
-14.94
-17.52
-20.12
-22.33
-23.87
-24.59
-24.76
-24.73
-24.84
-25.15
-25.45
-25.30
-24.28
-22.14
-18.90
-14.82
-10.32
-5.88
-1.85
1.54
4.23
6.28
7.74
8.62
8.94
8.73
8.14
7.40
6.81
6.52
6.59
6.87
7.19
7.45
7.65
7.82
7.93
7.98
7.92
7.76
7.53
7.32
7.08
6.69
5.98
4.78
3.14
1.22
-0.74
-2.56
-4.22
-5.81
-7.47
-9.24
-11.02
-12.63
-13.96
-14.99
-15.85
-16.76
-17.98
-19.69
-21.95
-24.61
-27.25
-29.29
-30.02
-28.91
-25.86
-21.24
-15.77
-10.27
-5.34
-1.20
2.19
5.03
7.39
9.24
10.55
11.42
12.04
12.64
13.34
14.11
14.85
15.53
16.22
17.09
18.27
19.68
21.09
22.23
22.96
23.33
23.49
23.50
23.31
22.71
21.50
19.58
17.09
14.27
11.48
9.08
7.27
6.04
5.12
3.93
1.75
-2.16
-8.23
-16.41
-26.05
-36.09
-45.29
-52.46
-56.97
-58.78
-58.66
-57.85
-57.65
-58.89
-61.62
-65.04
-67.87
-68.84
-67.17
-62.71
-55.95
-47.71
-38.87
-30.25
-22.49
-16.04
-11.20
-8.04
-6.45
-6.16
-6.75
-7.74
-8.62
-8.96
-8.42
-6.93
-4.63
-1.82
1.04
3.59
5.62
7.17
8.43
9.59
10.79
12.02
13.10
13.79
13.87
13.31
12.22
10.92
9.78
9.08
8.84
8.77
8.38
7.18
4.96
1.85
-1.72
-5.15
-8.03
-10.25
-11.99
-13.66
-15.67
-18.31
-21.70
-25.82
-30.41
-35.00
-38.82
-40.95
-40.60
-37.31
-31.22
-22.97
-13.58
-4.05
4.77
12.38
18.54
23.22
26.53
28.64
29.82
30.39
30.70
31.02
31.56
32.39
33.53
34.94
36.49
38.04
39.36
40.28
40.62
40.36
39.52
38.29
36.85
35.33
33.77
32.09
30.20
28.02
25.64
23.21
20.86
18.64
16.48
14.20
11.70
8.92
6.00
3.19
0.74
-1.21
-2.69
-3.92
-5.27
-7.14
-9.94
-13.91
-19.02
-24.96
-31.05
-36.31
-39.72
-40.38
-37.81
-32.08
-23.73
-13.71
-3.11
7.09
16.06
23.27
28.48
31.71
33.21
33.42
32.79
31.80
30.80
30.03
29.60
29.56
29.95
30.74
31.90
33.37
35.00
36.65
38.09
39.06
39.30
38.60
36.83
34.06
30.48
26.46
22.41
18.65
15.40
12.64
10.14
7.57
4.59
1.03
-3.08
-7.43
-11.61
-15.20
-17.94
-19.86
-21.33
-22.95
-25.36
-29.00
-33.92
-39.66
-45.27
-49.52
-51.24
-49.60
-44.35
-35.85
-25.01
-13.10
-1.43
8.79
16.77
22.10
24.89
25.54
24.67
22.92
20.82
18.81
17.23
16.36
16.39
17.44
19.42
22.11
25.15
28.23
31.08
33.55
35.50
36.81
37.25
36.59
34.69
31.62
27.74
23.60
19.83
16.91
14.98
13.77
12.72
11.16
8.69
5.31
1.39
-2.50
-5.79
-8.20
-9.85
-11.21
-12.91
-15.57
-19.59
-25.03
-31.46
-38.02
-43.54
-46.75
-46.61
-42.68
-35.22
-25.14
-13.86
-2.85
6.70
14.11
19.25
22.43
24.09
24.62
24.33
23.41
22.06
20.52
19.15
18.33
18.39
19.49
21.50
24.14
26.98
29.62
31.76
33.24
34.11
34.45
34.33
33.70
32.48
30.55
27.95
24.86
21.55
18.37
15.57
13.31
11.56
10.18
8.85
7.26
5.14
2.37
-0.99
-4.69
-8.41
-11.88
-14.94
-17.63
-20.11
-22.64
-25.54
-29.18
-33.87
-39.54
-45.66
-51.10
-54.37
-54.05
-49.43
-40.84
-29.53
-17.27
-5.70
4.13
11.84
17.64
21.89
24.88
26.85
28.00
28.60
29.03
29.68
30.80
32.46
34.53
36.67
38.57
39.95
40.66
40.79
40.55
40.26
40.09
40.03
39.83
39.11
37.56
35.06
31.75
28.00
24.30
21.20
19.25
18.86
20.22
23.06
26.54
29.32
29.87
26.89
19.87
9.23
-3.67
-16.93
-28.65
-37.46
-42.74
-44.76
-44.47
-43.10
-41.93
-41.96
-43.79
-47.53
-52.79
-58.75
-64.20
-67.76
-68.11
-64.41
-56.56
-45.33
-32.25
-19.09
-7.45
1.67
8.01
11.94
14.17
15.41
16.19
16.71
17.10
17.45
17.89
18.63
19.82
21.42
23.29
25.16
26.82
28.16
29.20
29.98
30.45
30.51
29.98
28.78
26.94
24.66
22.19
19.77
17.53
15.47
13.42
11.23
8.73
5.95
3.04
0.25
-2.21
-4.32
-6.28
-8.37
-10.90
-13.92
-17.24
-20.56
-23.55
-26.15
-28.51
-30.96
-33.82
-37.36
-41.65
-46.51
-51.53
-55.94
-58.66
-58.60
-54.95
-47.57
-37.13
-24.93
-12.46
-0.96
8.83
16.67
22.56
26.61
28.97
29.82
29.54
28.62
27.62
27.02
27.13
28.07
29.80
32.16
34.85
37.52
39.75
41.21
41.75
41.41
40.39
38.92
37.18
35.23
33.08
30.79
28.52
26.49
24.90
23.78
22.91
21.95
20.59
18.67
16.31
13.75
11.16
8.55
5.72
2.36
-1.67
-6.27
-11.08
-15.75
-20.00
-23.81
-27.41
-31.17
-35.44
-40.37
-45.72
-50.84
-54.69
-56.12
-54.24
-48.74
-40.12
-29.50
-18.30
-7.85
0.93
7.68
12.46
15.57
17.37
18.17
18.21
17.67
16.73
15.60
14.54
13.83
13.68
14.16
15.17
16.42
17.55
18.25
18.40
18.03
17.27
16.22
14.93
13.32
11.31
8.89
6.16
3.38
0.84
-1.27
-2.87
-4.04
-4.95
-5.81
-6.84
-8.25
-10.11
-12.35
-14.74
-17.03
-19.05
-20.87
-22.80
-25.30
-28.76
-33.25
-38.50
-43.83
-48.28
-50.80
-50.47
-46.81
-39.84
-30.27
-19.23
-8.02
2.30
11.02
17.84
22.71
25.72
27.01
26.79
25.38
23.23
20.85
18.75
17.27
16.58
16.67
17.37
18.38
19.41
20.25
20.84
21.25
21.59
21.87
21.94
21.53
20.41
18.53
16.11
13.52
11.11
9.03
7.21
5.40
3.32
0.82
-2.10
-5.37
-8.92
-12.71
-16.69
-20.78
-24.78
-28.50
-31.86
-35.03
-38.34
-42.21
-46.84
-52.02
-57.04
-60.78
-62.07
-60.03
-54.41
-45.67
-34.76
-22.93
-11.44
-1.32
6.72
12.33
15.55
16.76
16.57
15.68
14.70
13.99
13.73
13.95
14.64
15.84
17.54
19.65
21.97
24.18
26.01
27.21
27.67
27.35
26.27
24.50
22.15
19.44
16.51
13.55
10.67
7.92
5.34
2.98
0.92
-0.88
-2.53
-4.14
-5.85
-7.69
-9.66
-11.65
-13.57
-15.42
-17.18
-18.86
-20.55
-22.46
-24.95
-28.49
-33.34
-39.27
-45.40
-50.29
-52.36
-50.43
-44.21
-34.39
-22.44
-10.08
1.22
10.55
17.62
22.55
25.65
27.19
27.40
26.47
24.74
22.69
20.97
20.20
20.75
22.58
25.32
28.26
30.75
32.42
33.26
33.60
33.83
34.12
34.28
33.88
32.47
29.89
26.33
22.32
18.43
15.04
12.23
9.86
7.64
5.39
3.10
0.91
-0.98
-2.41
-3.33
-3.88
-4.31
-4.89
-5.89
-7.42
-9.51
-12.11
-15.10
-18.32
-21.62
-24.87
-28.03
-31.25
-34.84
-39.16
-44.37
-50.18
-55.76
-59.86
-61.18
-58.78
-52.49
-42.91
-31.27
-19.09
-7.79
1.60
8.54
12.97
15.15
15.55
14.72
13.23
11.54
10.03
8.97
8.45
8.37
8.58
8.83
8.97
9.06
9.26
9.77
10.77
12.19
13.84
15.42
16.70
17.60
18.14
18.51
18.96
19.67
20.69
21.87
22.93
23.50
23.27
22.13
20.13
17.42
14.17
10.44
6.23
1.60
-3.30
-8.18
-12.68
-16.50
-19.52
-21.81
-23.71
-25.76
-28.55
-32.52
-37.63
-43.28
-48.21
-50.90
-50.07
-45.16
-36.62
-25.73
-14.18
-3.48
5.44
12.31
17.33
20.91
23.33
24.78
25.40
25.40
25.17
25.18
25.86
27.37
29.60
32.17
34.59
36.44
37.49
37.74
37.37
36.53
35.27
33.58
31.37
28.66
25.57
22.37
19.33
16.67
14.54
13.00
12.07
11.71
11.80
12.06
12.08
11.49
9.97
7.39
3.85
-0.41
-5.09
-9.93
-14.68
-19.08
-22.95
-26.12
-28.53
-30.35
-31.93
-33.79
-36.44
-40.18
-44.88
-49.91
-54.14
-56.19
-54.91
-49.75
-40.94
-29.58
-17.19
-5.30
4.90
12.80
18.41
22.07
24.27
25.45
25.90
25.83
25.45
25.04
24.88
25.29
26.45
28.39
31.03
34.15
37.55
40.99
44.13
46.47
47.36
46.16
42.41
36.05
27.45
17.49
7.35
-1.72
-8.55
-12.40
-13.06
-10.98
-7.08
-2.56
1.40
3.79
3.95
1.60
-3.16
-9.75
-17.28
-24.63
-30.83
-35.34
-38.19
-39.99
-41.62
-43.96
-47.51
-52.20
-57.39
-61.89
-64.24
-63.09
-57.67
-48.14
-35.69
-22.12
-9.33
1.32
9.33
14.92
18.71
21.30
22.99
23.85
23.97
23.57
23.02
22.75
23.02
23.91
25.28
26.87
28.48
29.93
31.18
32.20
33.04
33.71
34.19
34.43
34.26
33.49
31.94
29.57
26.42
22.70
18.66
14.61
10.81
7.48
4.72
2.48
0.52
-1.45
-3.69
-6.29
-9.20
-12.19
-14.99
-17.48
-19.66
-21.77
-24.20
-27.43
-31.85
-37.58
-44.24
-50.79
-55.69
-57.36
-54.79
-47.94
-37.83
-26.18
-14.82
-5.10
2.40
7.72
11.28
13.46
14.60
14.90
14.63
14.13
13.80
13.95
14.67
15.86
17.21
18.50
19.58
20.49
21.37
22.37
23.45
24.37
24.79
24.43
23.21
21.25
18.96
16.68
14.64
12.89
11.32
9.77
8.19
6.66
5.30
4.24
3.44
2.76
1.99
0.86
-0.85
-3.21
-6.18
-9.59
-13.22
-16.85
-20.40
-23.94
-27.68
-31.95
-37.01
-42.91
-49.37
-55.67
-60.74
-63.31
-62.31
-57.17
-48.10
-36.09
-22.68
-9.58
1.85
10.76
16.92
20.58
22.18
22.30
21.47
20.18
18.85
17.82
17.28
17.30
17.85
18.83
20.16
21.74
23.48
25.24
26.85
28.08
28.65
28.37
27.22
25.31
22.94
20.46
18.20
16.36
14.95
13.90
13.03
12.19
11.23
10.09
8.82
7.50
6.18
4.86
3.41
1.65
-0.56
-3.25
-6.29
-9.42
-12.35
-14.88
-17.04
-19.12
-21.63
-25.07
-29.74
-35.46
-41.42
-46.33
-48.76
-47.61
-42.52
-34.03
-23.39
-12.15
-1.70
7.04
13.71
18.40
21.41
23.16
24.09
24.59
24.90
25.16
25.27
25.08
24.49
23.54
22.49
21.71
21.44
21.72
22.36
22.99
23.24
22.84
21.68
19.79
17.32
14.45
11.36
8.24
5.22
2.42
-0.04
-2.04
-3.51
-4.43
-4.92
-5.20
-5.53
-6.21
-7.36
-8.97
-10.96
-13.21
-15.64
-18.38
-21.62
-25.60
-30.54
-36.53
-43.44
-50.81
-57.79
-63.28
-66.08
-65.23
-60.19
-51.14
-38.85
-24.62
-9.94
3.79
15.50
24.57
30.93
34.96
37.16
38.10
38.11
37.38
36.00
34.10
31.99
30.11
28.77
28.03
27.68
27.28
26.46
25.05
23.17
21.07
18.98
16.94
14.80
12.38
9.47
6.09
2.42
-1.18
-4.35
-6.81
-8.50
-9.53
-10.16
-10.68
-11.36
-12.32
-13.61
-15.20
-17.09
-19.24
-21.56
-23.92
-26.25
-28.44
-30.62
-33.10
-36.33
-40.70
-46.18
-52.13
-57.25
-59.98
-58.95
-53.62
-44.45
-32.77
-20.32
-8.69
1.11
8.68
14.14
17.84
20.16
21.36
21.70
21.44
20.83
20.20
19.86
20.08
21.02
22.62
24.65
26.80
28.68
30.05
30.83
31.10
31.01
30.67
30.06
29.06
27.49
25.18
22.08
18.28
13.98
9.44
5.02
0.97
-2.53
-5.39
-7.74
-9.78
-11.69
-13.55
-15.35
-16.95
-18.25
-19.27
-20.14
-21.11
-22.61
-25.08
-28.87
-34.09
-40.36
-46.74
-51.82
-54.08
-52.40
-46.41
-36.76
-24.84
-12.38
-0.88
8.70
16.02
21.19
24.50
26.25
26.68
26.04
24.69
23.10
21.76
21.06
21.14
21.85
22.93
24.06
25.11
26.06
27.04
28.13
29.31
30.43
31.19
31.22
30.21
27.92
24.38
19.82
14.79
9.87
5.62
2.25
-0.31
-2.44
-4.56
-6.97
-9.68
-12.56
-15.35
-17.95
-20.41
-22.93
-25.86
-29.54
-34.21
-39.93
-46.46
-53.20
-59.12
-62.97
-63.56
-60.15
-52.74
-42.13
-29.72
-17.12
-5.66
3.84
11.11
16.34
19.86
22.03
23.22
23.75
24.01
24.43
25.37
26.99
29.34
32.23
35.42
38.62
41.58
44.05
45.82
46.74
46.80
46.05
44.61
42.52
39.82
36.53
32.74
28.64
24.43
20.25
16.17
12.21
8.45
5.00
2.01
-0.45
-2.51
-4.49
-6.70
-9.32
-12.31
-15.42
-18.33
-20.85
-23.00
-24.98
-27.11
-29.75
-33.23
-37.70
-43.03
-48.62
-53.38
-55.99
-55.18
-50.23
-41.31
-29.49
-16.49
-4.11
6.22
13.88
19.06
22.51
25.11
27.41
29.38
30.53
30.14
27.71
23.19
17.15
10.52
4.39
-0.24
-2.57
-2.21
0.79
5.89
12.09
18.10
22.70
25.06
25.02
23.01
19.92
16.66
13.98
12.25
11.41
11.17
11.10
10.89
10.37
9.51
8.39
7.01
5.34
3.27
0.73
-2.34
-5.84
-9.68
-13.67
-17.72
-21.78
-25.88
-30.07
-34.49
-39.28
-44.57
-50.29
-56.05
-60.96
-63.80
-63.31
-58.64
-49.78
-37.68
-23.98
-10.54
1.10
10.07
16.18
19.79
21.45
21.70
20.97
19.63
18.02
16.52
15.53
15.34
16.07
17.56
19.50
21.48
23.25
24.79
26.24
27.76
29.37
30.84
31.74
31.64
30.28
27.74
24.33
20.52
16.74
13.30
10.33
7.83
5.69
3.68
1.52
-1.04
-4.21
-7.95
-12.04
-16.08
-19.66
-22.57
-24.85
-26.86
-29.10
-32.09
-36.14
-41.20
-46.79
-51.99
-55.58
-56.37
-53.55
-46.92
-37.06
-25.20
-12.90
-1.64
7.57
14.28
18.62
21.04
22.14
22.43
22.36
22.21
22.15
22.34
22.88
23.79
24.97
26.26
27.45
28.39
29.07
29.54
29.95
30.41
30.91
31.33
31.47
31.10
30.04
28.24
25.73
22.72
19.54
16.46
13.69
11.25
9.10
7.07
5.08
3.02
0.83
-1.54
-4.18
-7.09
-10.25
-13.58
-16.93
-20.23
-23.50
-26.89
-30.67
-35.09
-40.30
-46.17
-52.16
-57.30
-60.31
-60.03
-55.75
-47.60
-36.54
-24.09
-11.89
-1.23
7.19
13.29
17.31
19.66
20.68
20.65
19.89
18.75
17.62
16.91
16.90
17.74
19.35
21.52
23.98
26.49
28.82
30.82
32.40
33.53
34.16
34.21
33.55
32.03
29.59
26.37
22.73
19.21
16.27
14.15
12.78
11.86
11.00
9.91
8.39
6.29
3.42
-0.44
-5.45
-11.57
-18.53
-25.88
-33.23
-40.29
-46.91
-52.90
-57.82
-60.86
-61.09
-57.77
-50.71
-40.52
-28.45
-16.08
-4.87
4.19
10.78
15.06
17.49
18.57
18.65
17.95
16.66
15.08
13.62
12.74
12.84
13.99
15.98
18.39
20.74
22.73
24.30
25.54
26.47
26.99
26.78
25.50
22.97
19.30
14.91
10.33
6.14
2.75
0.28
-1.42
-2.71
-4.15
-6.14
-8.93
-12.44
-16.29
-20.05
-23.37
-26.23
-28.83
-31.58
-34.88
-39.00
-44.02
-49.73
-55.63
-60.78
-64.04
-64.23
-60.59
-53.09
-42.57
-30.48
-18.42
-7.70
1.01
7.62
12.45
15.86
18.19
19.64
20.38
20.66
20.75
20.97
21.55
22.57
23.94
25.54
27.21
28.82
30.35
31.72
32.83
33.59
33.85
33.53
32.58
31.01
28.85
26.17
23.10
19.88
16.80
14.16
12.09
10.49
9.01
7.20
4.75
1.65
-1.81
-5.12
-7.86
-9.82
-11.17
-12.29
-13.68
-15.70
-18.61
-22.51
-27.34
-32.79
-38.21
-42.57
-44.63
-43.37
-38.35
-30.06
-19.91
-9.75
-1.34
4.26
6.96
7.46
6.91
6.32
6.26
6.80
7.65
8.45
9.05
9.51
10.01
10.68
11.59
12.63
13.77
15.03
16.50
18.22
20.13
21.92
23.19
23.58
22.89
21.20
18.84
16.21
13.63
11.30
9.14
7.02
4.78
2.38
-0.07
-2.40
-4.44
-6.17
-7.71
-9.22
-10.92
-12.85
-14.98
-17.20
-19.37
-21.44
-23.49
-25.77
-28.58
-32.27
-36.92
-42.18
-47.15
-50.49
-50.86
-47.39
-40.11
-29.99
-18.62
-7.72
1.45
8.30
12.95
15.84
17.46
18.09
17.87
16.95
15.63
14.40
13.78
14.19
15.65
17.86
20.30
22.41
23.89
24.70
25.07
25.26
25.43
25.58
25.48
24.84
23.38
20.97
17.69
13.87
9.97
6.41
3.49
1.20
-0.74
-2.76
-5.25
-8.34
-11.87
-15.48
-18.78
-21.53
-23.70
-25.49
-27.25
-29.40
-32.28
-36.09
-40.75
-45.79
-50.41
-53.54
-54.09
-51.33
-45.11
-35.96
-25.00
-13.56
-2.88
6.18
13.22
18.24
21.44
23.09
23.48
22.85
21.60
20.24
19.35
19.41
20.66
22.91
25.67
28.33
30.41
31.74
32.46
32.85
33.16
33.36
33.26
32.52
30.89
28.30
24.91
21.09
17.23
13.70
10.66
8.07
5.68
3.18
0.32
-2.92
-6.35
-9.69
-12.67
-15.20
-17.41
-19.58
-22.11
-25.37
-29.57
-34.69
-40.37
-45.85
-50.15
-52.20
-51.22
-46.94
-39.63
-30.13
-19.49
-8.81
1.08
9.71
16.93
22.77
27.26
30.30
31.68
31.23
29.07
25.80
22.38
19.97
19.45
21.15
24.81
29.56
34.42
38.52
41.25
42.17
40.80
36.54
28.71
17.02
1.89
-15.25
-32.17
-46.44
-56.27
-61.08
-61.60
-59.48
-56.50
-53.99
-52.52
-52.04
-52.28
-53.04
-54.35
-56.40
-59.47
-63.73
-69.14
-75.35
-81.58
-86.61
-88.99
-87.35
-80.94
-69.92
-55.33
-38.85
-22.21
-6.83
6.39
17.03
24.95
30.24
33.11
34.09
33.93
33.57
33.81
35.13
37.51
40.51
43.52
45.97
47.55
48.25
48.24
47.72
46.76
45.30
43.20
40.38
36.88
32.92
28.82
24.89
21.33
18.13
15.12
12.05
8.72
5.10
1.34
-2.23
-5.31
-7.75
-9.72
-11.69
-14.28
-18.02
-23.16
-29.44
-36.22
-42.44
-46.92
-48.59
-46.75
-41.24
-32.52
-21.62
-9.83
1.50
11.32
19.04
24.50
27.88
29.56
29.97
29.52
28.66
27.83
27.39
27.65
28.63
30.16
31.86
33.35
34.35
34.81
34.82
34.51
33.93
33.03
31.68
29.79
27.40
24.65
21.71
18.68
15.62
12.62
9.80
7.42
5.66
4.56
3.90
3.24
2.11
0.26
-2.21
-4.93
-7.45
-9.52
-11.18
-12.75
-14.65
-17.27
-20.92
-25.73
-31.75
-38.65
-45.59
-51.30
-54.25
-53.08
-47.27
-37.35
-24.83
-11.74
0.09
9.54
16.28
20.62
23.12
24.20
24.18
23.31
21.97
20.68
19.98
20.25
21.52
23.53
25.85
28.04
29.89
31.36
32.60
33.78
34.94
35.95
36.50
36.23
34.92
32.64
29.77
26.94
24.74
23.47
23.05
23.05
22.98
22.51
21.62
20.53
19.50
18.62
17.67
16.26
13.92
10.45
5.91
0.66
-4.88
-10.35
-15.53
-20.34
-24.74
-28.71
-32.34
-35.82
-39.56
-43.88
-48.88
-54.10
-58.44
-60.42
-58.75
-52.85
-43.14
-30.93
-17.98
-5.93
4.11
11.72
16.99
20.27
21.92
22.29
21.70
20.60
19.48
18.87
19.17
20.48
22.63
25.24
27.79
29.84
31.06
31.27
30.41
28.48
25.57
21.92
17.83
13.74
10.07
7.17
5.19
4.06
3.58
3.42
3.24
2.80
1.96
0.73
-0.71
-2.17
-3.49
-4.65
-5.76
-7.01
-8.61
-10.68
-13.16
-15.79
-18.26
-20.30
-21.84
-23.08
-24.47
-26.58
-29.86
-34.37
-39.73
-45.05
-49.13
-50.68
-48.73
-42.90
-33.59
-21.97
-9.65
1.74
11.00
17.60
21.73
23.93
24.92
25.24
25.22
25.03
24.82
24.74
24.92
25.43
26.26
27.31
28.54
29.93
31.46
33.13
34.78
36.12
36.78
36.42
34.88
32.19
28.66
24.72
20.83
17.30
14.24
11.55
8.99
6.35
3.58
0.78
-1.74
-3.73
-5.07
-5.91
-6.53
-7.27
-8.33
-9.70
-11.33
-13.10
-14.97
-17.00
-19.23
-21.72
-24.45
-27.46
-30.86
-34.73
-38.97
-43.12
-46.35
-47.65
-46.18
-41.57
-34.15
-24.77
-14.63
-4.87
3.62
10.27
14.93
17.66
18.75
18.59
17.65
16.40
15.28
14.56
14.43
14.95
16.09
17.73
19.70
21.80
23.76
25.32
26.27
26.43
25.75
24.26
22.15
19.72
17.27
15.01
13.05
11.32
9.66
7.88
5.88
3.70
1.48
-0.62
-2.50
-4.23
-5.96
-7.84
-9.94
-12.24
-14.53
-16.62
-18.35
-19.70
-20.78
-21.88
-23.36
-25.56
-28.68
-32.63
-36.95
-40.80
-43.19
-43.20
-40.34
-34.71
-26.94
-18.11
-9.35
-1.62
4.53
8.92
11.71
13.23
13.84
13.83
13.43
12.84
12.22
11.72
11.49
11.64
12.22
13.23
14.62
16.33
18.15
19.84
21.09
21.63
21.32
20.17
18.36
16.09
13.58
10.97
8.38
5.93
3.76
1.93
0.42
-0.94
-2.32
-3.85
-5.49
-7.10
-8.59
-9.96
-11.32
-12.77
-14.37
-16.04
-17.65
-19.08
-20.32
-21.50
-22.84
-24.64
-27.14
-30.42
-34.28
-38.13
-41.10
-42.16
-40.52
-35.83
-28.43
-19.18
-9.26
0.15
8.13
14.22
18.29
20.53
21.30
20.94
19.84
18.39
17.00
16.05
15.86
16.51
17.89
19.68
21.55
23.29
24.82
26.16
27.37
28.36
29.01
29.14
28.65
27.56
25.92
23.89
21.54
18.98
16.31
13.65
11.08
8.70
6.46
4.33
2.18
-0.07
-2.52
-5.21
-8.15
-11.29
-14.44
-17.41
-19.98
-22.04
-23.70
-25.23
-27.05
-29.58
-33.03
-37.25
-41.60
-45.06
-46.43
-44.73
-39.55
-31.32
-21.15
-10.62
-1.16
6.27
11.38
14.40
15.82
16.07
15.42
14.03
12.13
10.13
8.49
7.61
7.60
8.28
9.24
10.14
10.84
11.40
12.08
13.03
14.24
15.48
16.36
16.53
15.80
14.23
12.03
9.58
7.21
5.14
3.41
1.87
0.28
-1.58
-3.84
-6.44
-9.19
-11.88
-14.34
-16.54
-18.56
-20.60
-22.89
-25.66
-29.09
-33.11
-37.37
-41.14
-43.42
-43.27
-40.02
-33.70
-25.04
-15.22
-5.54
2.96
9.71
14.57
17.65
19.16
19.32
18.42
16.89
15.23
13.99
13.57
14.09
15.42
17.21
19.12
20.81
22.14
23.04
23.56
23.76
23.62
23.08
22.02
20.29
17.85
14.81
11.44
8.13
5.28
3.06
1.41
0.04
-1.43
-3.26
-5.44
-7.79
-10.01
-11.92
-13.55
-15.09
-16.84
-19.05
-21.88
-25.35
-29.45
-34.06
-38.89
-43.43
-46.92
-48.50
-47.47
-43.55
-37.03
-28.70
-19.63
-10.85
-3.09
3.33
8.44
12.42
15.43
17.58
18.87
19.38
19.26
18.77
18.23
17.93
18.07
18.76
19.90
21.23
22.43
23.16
23.23
22.74
21.91
21.01
20.21
19.43
18.42
16.92
14.79
12.16
9.37
6.76
4.57
2.72
0.93
-1.15
-3.74
-6.88
-10.33
-13.73
-16.79
-19.37
-21.57
-23.61
-25.78
-28.36
-31.65
-35.83
-40.81
-46.20
-51.13
-54.38
-54.77
-51.53
-44.69
-35.13
-24.36
-14.02
-5.45
0.68
4.44
6.47
7.73
9.20
11.59
15.09
19.38
23.69
27.16
29.12
29.34
28.14
26.26
24.53
23.60
23.76
24.82
26.27
27.38
27.47
26.13
23.29
19.32
14.79
10.32
6.33
2.98
0.18
-2.31
-4.77
-7.40
-10.29
-13.41
-16.61
-19.72
-22.58
-25.21
-27.80
-30.73
-34.37
-38.86
-43.85
-48.56
-51.78
-52.36
-49.58
-43.42
-34.59
-24.27
-13.72
-3.93
4.53
11.44
16.75
20.46
22.60
23.26
22.73
21.43
19.86
18.40
17.33
16.74
16.62
16.92
17.53
18.31
19.10
19.77
20.20
20.37
20.21
19.61
18.50
16.80
14.57
11.99
9.31
6.71
4.30
2.08
-0.07
-2.26
-4.62
-7.25
-10.16
-13.34
-16.64
-19.85
-22.75
-25.30
-27.70
-30.40
-33.90
-38.38
-43.62
-48.75
-52.52
-53.59
-51.02
-44.57
-34.90
-23.32
-11.42
-0.62
8.20
14.75
19.25
22.11
23.74
24.43
24.34
23.63
22.54
21.41
20.61
20.40
20.91
22.04
23.62
25.41
27.29
29.11
30.80
32.20
33.06
33.09
32.11
30.18
27.56
24.65
21.86
19.42
17.29
15.29
13.21
10.94
8.50
6.05
3.69
1.40
-0.95
-3.59
-6.61
-9.95
-13.36
-16.53
-19.28
-21.59
-23.73
-26.13
-29.26
-33.46
-38.84
-45.08
-51.57
-57.27
-61.01
-61.66
-58.55
-51.64
-41.64
-29.84
-17.74
-6.69
2.41
9.19
13.71
16.34
17.54
17.77
17.53
17.28
17.44
18.24
19.72
21.66
23.73
25.64
27.25
28.60
29.72
30.61
31.05
30.82
29.80
28.10
26.04
23.95
21.99
20.12
18.14
15.92
13.50
11.07
8.94
7.30
6.18
5.44
4.84
4.12
3.04
1.43
-0.78
-3.51
-6.56
-9.73
-12.82
-15.84
-18.94
-22.43
-26.64
-31.80
-37.91
-44.59
-51.06
-56.17
-58.68
-57.52
-52.16
-42.88
-30.73
-17.32
-4.32
6.92
15.71
21.94
25.95
28.20
29.09
28.88
27.81
26.20
24.50
23.27
22.89
23.53
24.99
26.92
28.87
30.52
31.73
32.46
32.77
32.63
32.01
30.87
29.27
27.36
25.28
23.17
21.07
18.95
16.75
14.47
12.16
9.93
7.84
5.88
3.98
2.03
-0.09
-2.45
-5.09
-8.08
-11.44
-15.18
-19.23
-23.44
-27.64
-31.74
-35.83
-40.17
-45.09
-50.72
-56.71
-62.11
-65.52
-65.48
-61.02
-52.13
-39.84
-25.93
-12.26
-0.35
9.06
15.88
20.41
23.04
24.16
24.10
23.27
22.21
21.43
21.32
22.03
23.43
25.27
27.32
29.40
31.43
33.39
35.19
36.64
37.49
37.50
36.49
34.50
31.75
28.64
25.53
22.76
20.40
18.35
16.37
14.28
12.04
9.77
7.68
5.93
4.54
3.37
2.14
0.52
-1.70
-4.53
-7.81
-11.15
-14.17
-16.55
-18.20
-19.35
-20.53
-22.41
-25.52
-29.95
-35.11
-39.73
-42.22
-41.15
-35.82
-26.55
-14.62
-1.79
10.25
20.44
28.43
34.52
39.27
43.16
46.31
48.41
48.78
46.62
41.32
32.83
21.87
9.88
-1.39
-10.43
-16.42
-19.38
-20.03
-19.20
-17.60
-15.57
-13.28
-10.83
-8.50
-6.63
-5.53
-5.34
-5.91
-6.93
-8.01
-8.81
-9.20
-9.29
-9.34
-9.69
-10.61
-12.15
-14.09
-16.08
-17.84
-19.28
-20.57
-21.97
-23.66
-25.73
-28.09
-30.71
-33.71
-37.34
-41.73
-46.60
-51.08
-53.81
-53.38
-48.86
-40.22
-28.40
-14.99
-1.74
9.91
19.18
25.88
30.25
32.79
33.95
34.13
33.61
32.60
31.34
30.08
29.10
28.61
28.72
29.38
30.40
31.55
32.59
33.32
33.60
33.30
32.28
30.46
27.88
24.69
21.20
17.69
14.43
11.54
9.04
6.84
4.87
3.00
1.10
-0.90
-3.10
-5.59
-8.35
-11.33
-14.37
-17.34
-20.10
-22.62
-24.98
-27.28
-29.72
-32.52
-35.89
-39.98
-44.71
-49.69
-54.10
-56.80
-56.64
-52.85
-45.36
-34.90
-22.83
-10.74
0.10
8.90
15.47
19.99
22.75
23.99
23.92
22.81
21.12
19.46
18.43
18.38
19.36
21.11
23.19
25.19
26.86
28.13
29.04
29.73
30.30
30.81
31.22
31.36
30.95
29.69
27.39
24.09
20.08
15.86
11.90
8.54
5.85
3.66
1.65
-0.43
-2.75
-5.34
-8.15
-11.08
-14.10
-17.18
-20.31
-23.48
-26.68
-29.94
-33.39
-37.26
-41.76
-46.81
-51.88
-55.91
-57.59
-55.76
-49.95
-40.62
-29.09
-17.12
-6.23
2.63
9.33
14.22
17.81
20.38
21.98
22.56
22.16
21.15
20.11
19.66
20.15
21.57
23.58
25.69
27.56
29.02
30.11
30.90
31.38
31.40
30.73
29.20
26.74
23.47
19.63
15.55
11.61
8.13
5.27
2.97
0.93
-1.30
-4.04
-7.35
-10.98
-14.47
-17.47
-19.86
-21.87
-23.89
-26.34
-29.48
-33.44
-38.15
-43.37
-48.59
-52.95
-55.27
-54.44
-49.80
-41.45
-30.36
-18.06
-6.21
3.91
11.61
16.86
20.00
21.48
21.74
21.09
19.87
18.46
17.27
16.67
16.95
18.13
20.06
22.43
24.89
27.08
28.78
29.94
30.58
30.81
30.62
29.88
28.33
25.69
21.89
17.19
12.21
7.69
4.30
2.27
1.36
0.94
0.22
-1.48
-4.44
-8.56
-13.37
-18.32
-22.95
-27.04
-30.60
-33.91
-37.31
-41.16
-45.72
-50.96
-56.38
-61.00
-63.47
-62.47
-57.25
-47.96
-35.72
-22.32
-9.59
1.07
9.00
14.20
17.10
18.28
18.30
17.66
16.79
16.08
15.80
16.13
17.13
18.73
20.82
23.19
25.60
27.83
29.72
31.21
32.30
33.00
33.28
33.05
32.19
30.63
28.37
25.54
22.34
19.02
15.90
13.25
11.24
9.86
8.80
7.67
6.07
3.77
0.85
-2.41
-5.70
-8.78
-11.60
-14.19
-16.69
-19.28
-22.26
-25.99
-30.73
-36.39
-42.27
-47.04
-49.10
-47.00
-40.13
-28.94
-14.89
-0.02
13.69
24.81
32.72
37.53
39.87
40.57
40.40
39.88
39.22
38.28
36.61
33.65
28.96
22.52
14.81
6.75
-0.60
-6.41
-10.25
-12.17
-12.56
-11.91
-10.63
-9.08
-7.57
-6.44
-6.03
-6.47
-7.65
-9.21
-10.77
-12.13
-13.45
-15.08
-17.36
-20.27
-23.45
-26.25
-28.17
-29.08
-29.38
-29.82
-31.23
-34.24
-39.00
-45.13
-51.70
-57.35
-60.50
-59.83
-54.64
-45.18
-32.63
-18.82
-5.66
5.42
13.78
19.54
23.25
25.53
26.81
27.31
27.15
26.54
25.88
25.66
26.25
27.71
29.78
31.93
33.62
34.54
34.70
34.35
33.80
33.24
32.67
31.87
30.64
28.84
26.53
23.90
21.21
18.66
16.41
14.54
13.15
12.25
11.77
11.47
10.96
9.79
7.66
4.41
0.20
-4.66
-9.80
-15.01
-20.32
-25.94
-32.23
-39.52
-47.86
-56.81
-65.37
-72.08
-75.40
-74.20
-68.18
-58.05
-45.24
-31.58
-18.68
-7.67
0.98
7.32
11.72
14.66
16.58
17.86
18.76
19.47
20.17
21.03
22.19
23.68
25.42
27.20
28.84
30.23
31.44
32.57
33.66
34.60
35.11
34.83
33.59
31.48
28.81
26.08
23.68
21.76
20.22
18.75
17.08
15.05
12.73
10.34
8.12
6.20
4.46
2.62
0.36
-2.53
-6.02
-9.82
-13.54
-16.85
-19.63
-21.99
-24.32
-27.14
-30.92
-35.95
-42.22
-49.22
-55.94
-61.00
-62.95
-60.77
-54.23
-44.06
-31.72
-18.98
-7.36
2.18
9.34
14.26
17.28
18.74
18.95
18.29
17.20
16.18
15.65
15.92
17.02
18.82
21.07
23.54
26.06
28.49
30.73
32.60
33.82
34.14
33.46
31.88
29.67
27.16
24.55
21.91
19.20
16.32
13.30
10.21
7.19
4.35
1.80
-0.39
-2.19
-3.65
-4.92
-6.25
-7.93
-10.14
-12.90
-16.01
-19.21
-22.25
-25.15
-28.16
-31.76
-36.46
-42.56
-49.92
-57.79
-64.78
-69.23
-69.63
-65.20
-56.24
-44.05
-30.52
-17.54
-6.46
2.08
8.12
11.97
13.99
14.49
13.79
12.28
10.56
9.27
8.97
10.00
12.36
15.82
19.91
24.08
27.80
30.64
32.37
32.98
32.71
31.98
31.19
30.65
30.51
30.70
31.04
31.27
31.14
30.44
29.07
26.99
24.25
20.98
17.35
13.54
9.68
5.85
2.07
-1.71
-5.45
-9.16
-12.75
-16.21
-19.60
-23.10
-27.07
-31.87
-37.72
-44.45
-51.34
-57.13
-60.27
-59.38
-53.85
-44.02
-31.25
-17.44
-4.48
6.27
14.14
19.15
21.64
22.08
20.99
18.89
16.35
13.95
12.15
11.24
11.31
12.21
13.76
15.78
18.10
20.54
22.92
25.08
26.83
28.09
28.84
29.07
28.84
28.17
27.13
25.73
24.04
22.16
20.21
18.27
16.43
14.65
12.80
10.72
8.28
5.46
2.36
-0.80
-3.79
-6.51
-8.98
-11.35
-13.78
-16.45
-19.53
-23.23
-27.75
-33.17
-39.19
-45.00
-49.38
-50.98
-48.79
-42.55
-32.93
-21.36
-9.60
0.84
9.02
14.72
18.27
20.15
20.84
20.65
19.78
18.46
17.03
15.92
15.50
15.96
17.20
18.92
20.76
22.39
23.68
24.62
25.33
25.89
26.34
26.61
26.60
26.16
25.20
23.74
21.87
19.76
17.58
15.50
13.59
11.87
10.24
8.56
6.66
4.38
1.60
-1.71
-5.42
-9.29
-12.91
-15.92
-18.06
-19.36
-20.20
-21.23
-23.12
-26.24
-30.38
-34.70
-37.87
-38.53
-35.75
-29.43
-20.33
-9.90
0.22
8.65
14.70
18.33
20.05
20.55
20.42
20.05
19.61
19.22
19.02
19.22
20.01
21.46
23.44
25.66
27.75
29.48
30.74
31.65
32.36
32.96
33.37
33.42
32.90
31.74
30.06
28.05
25.89
23.63
21.18
18.39
15.18
11.62
7.94
4.37
1.02
-2.15
-5.36
-8.81
-12.66
-16.91
-21.45
-26.13
-30.91
-35.90
-41.30
-47.33
-53.98
-60.92
-67.48
-72.74
-75.74
-75.71
-72.25
-65.43
-55.71
-43.92
-30.99
-17.95
-5.68
5.02
13.59
19.72
23.40
24.96
25.04
24.45
23.96
24.12
25.18
27.04
29.41
31.88
34.07
35.73
36.76
37.11
36.85
35.98
34.42
32.05
28.73
24.47
19.40
13.89
8.47
3.64
-0.28
-3.25
-5.52
-7.50
-9.55
-11.80
-14.14
-16.28
-17.89
-18.81
-19.18
-19.37
-19.95
-21.51
-24.40
-28.60
-33.49
-37.83
-40.03
-38.61
-32.78
-22.99
-10.95
0.79
9.64
13.85
13.06
8.40
2.05
-3.52
-6.26
-5.11
-0.14
7.63
16.70
25.52
32.86
38.09
41.05
41.84
40.73
38.07
34.40
30.39
26.83
24.24
22.62
21.32
19.32
15.70
10.20
3.33
-3.83
-10.18
-15.14
-18.80
-21.75
-24.69
-28.02
-31.81
-35.84
-40.00
-44.27
-48.77
-53.52
-58.20
-62.09
-64.25
-63.79
-60.21
-53.59
-44.60
-34.32
-23.82
-14.00
-5.40
1.73
7.26
11.16
13.40
13.98
13.06
10.98
8.26
5.54
3.50
2.64
3.17
4.89
7.34
9.91
12.12
13.74
14.76
15.18
14.91
13.72
11.45
8.20
4.42
0.78
-2.15
-4.15
-5.47
-6.71
-8.59
-11.64
-16.08
-21.70
-27.90
-33.70
-37.86
-39.19
-36.88
-30.74
-21.32
-9.87
2.11
13.22
22.58
29.83
35.12
38.73
40.92
41.82
41.47
39.93
37.38
34.09
30.45
26.81
23.50
20.68
18.45
16.78
15.63
14.85
14.28
13.71
12.88
11.59
9.65
7.03
3.89
0.52
-2.74
-5.61
-7.93
-9.76
-11.23
-12.47
-13.56
-14.52
-15.28
-15.84
-16.33
-16.99
-18.09
-19.81
-22.13
-24.81
-27.48
-29.85
-31.78
-33.41
-35.08
-37.24
-40.35
-44.75
-50.47
-57.09
-63.62
-68.61
-70.51
-68.20
-61.44
-51.01
-38.47
-25.61
-13.90
-4.17
3.42
9.19
13.57
16.94
19.58
21.69
23.46
25.05
26.57
28.01
29.23
30.10
30.51
30.55
30.48
30.66
31.34
32.54
34.02
35.33
36.03
35.79
34.55
32.46
29.85
27.03
24.25
21.57
18.90
16.07
12.98
9.63
6.21
2.96
0.03
-2.60
-5.11
-7.77
-10.78
-14.15
-17.75
-21.38
-24.88
-28.18
-31.34
-34.51
-37.93
-41.89
-46.63
-52.18
-58.16
-63.74
-67.67
-68.68
-65.88
-59.06
-48.83
-36.43
-23.40
-11.21
-0.91
6.88
12.06
14.87
15.78
15.40
14.42
13.42
12.87
13.06
14.02
15.64
17.66
19.80
21.85
23.86
26.06
28.75
32.19
36.31
40.73
44.79
47.82
49.37
49.44
48.43
46.90
45.30
43.67
41.76
39.11
35.40
30.69
25.38
20.05
15.15
10.80
6.78
2.70
-1.72
-6.50
-11.34
-15.84
-19.68
-22.74
-25.19
-27.37
-29.71
-32.55
-36.15
-40.47
-45.11
-49.31
-52.04
-52.24
-49.07
-42.32
-32.43
-20.49
-7.90
3.98
14.10
21.97
27.56
31.20
33.38
34.51
34.90
34.71
34.03
32.94
31.60
30.19
28.93
27.98
27.45
27.41
27.80
28.57
29.55
30.62
31.60
32.37
32.82
32.85
32.39
31.34
29.70
27.50
24.93
22.15
19.33
16.55
13.81
11.07
8.26
5.34
2.27
-0.99
-4.48
-8.18
-12.00
-15.76
-19.29
-22.47
-25.36
-28.17
-31.14
-34.49
-38.32
-42.42
-46.23
-48.92
-49.47
-47.04
-41.23
-32.30
-21.22
-9.33
1.94
11.54
18.89
23.92
26.84
27.92
27.47
25.80
23.33
20.59
18.13
16.33
15.31
14.95
14.98
15.19
15.51
16.00
16.83
18.05
19.56
21.06
22.21
22.70
22.41
21.36
19.72
17.62
15.15
12.35
9.27
6.10
3.03
0.29
-2.02
-3.98
-5.74
-7.45
-9.21
-11.02
-12.89
-14.88
-17.13
-19.77
-22.84
-26.30
-30.06
-34.10
-38.41
-43.01
-47.62
-51.63
-54.04
-53.73
-49.90
-42.38
-31.84
-19.63
-7.35
3.56
12.24
18.40
22.25
24.20
24.63
23.83
22.08
19.79
17.48
15.75
15.00
15.33
16.51
18.10
19.68
20.97
21.86
22.35
22.40
21.86
20.53
18.23
14.94
10.90
6.54
2.43
-0.87
-3.06
-4.14
-4.48
-4.70
-5.41
-6.95
-9.32
-12.20
-15.09
-17.61
-19.58
-21.09
-22.42
-23.97
-26.04
-28.84
-32.31
-36.11
-39.49
-41.52
-41.22
-37.96
-31.74
-23.23
-13.60
-4.20
3.90
10.10
14.32
16.84
18.02
18.19
17.59
16.50
15.21
14.11
13.50
13.52
14.07
14.90
15.68
16.21
16.45
16.53
16.65
16.96
17.38
17.65
17.44
16.52
14.88
12.81
10.69
8.93
7.72
6.96
6.33
5.45
4.01
1.91
-0.77
-3.84
-7.01
-10.02
-12.69
-14.91
-16.80
-18.69
-21.03
-24.17
-28.07
-32.15
-35.41
-36.65
-34.94
-30.04
-22.49
-13.39
-4.09
4.30
11.05
15.90
18.86
20.14
19.97
18.61
16.40
13.70
10.90
8.33
6.24
4.77
3.97
3.85
4.37
5.47
6.99
8.72
10.37
11.67
12.38
12.41
11.73
10.46
8.81
6.94
5.02
3.14
1.31
-0.52
-2.42
-4.42
-6.53
-8.72
-10.92
-13.09
-15.26
-17.50
-19.92
-22.63
-25.73
-29.21
-32.92
-36.44
-39.16
-40.36
-39.38
-35.90
-30.03
-22.40
-13.95
-5.71
1.48
7.09
10.95
13.15
13.94
13.64
12.57
11.04
9.36
7.84
6.74
6.32
6.71
7.81
9.43
11.27
13.04
14.49
15.46
15.82
15.46
14.29
12.34
9.71
6.69
3.59
0.68
-1.89
-4.17
-6.26
-8.33
-10.45
-12.67
-14.93
-17.23
-19.58
-22.08
-24.94
-28.31
-32.33
-36.93
-41.73
-46.07
-49.01
-49.56
-46.96
-40.98
-32.12
-21.49
-10.52
-0.59
7.38
13.02
16.46
18.12
18.54
18.12
17.19
15.99
14.76
13.71
13.01
12.76
12.95
13.53
14.36
15.35
16.35
17.26
17.94
18.27
18.15
17.47
16.17
14.22
11.78
9.08
6.47
4.27
2.62
1.38
0.15
-1.50
-3.82
-6.73
-9.88
-12.86
-15.36
-17.35
-19.01
-20.69
-22.80
-25.70
-29.62
-34.44
-39.58
-43.92
-46.07
-44.80
-39.57
-30.76
-19.65
-7.92
2.91
11.83
18.48
22.91
25.35
26.09
25.39
23.63
21.26
18.82
16.81
15.61
15.34
16.00
17.41
19.27
21.25
23.05
24.47
25.46
26.03
26.24
26.03
25.26
23.77
21.48
18.56
15.36
12.32
9.83
8.03
6.77
5.68
4.30
2.30
-0.43
-3.77
-7.47
-11.18
-14.68
-17.83
-20.69
-23.44
-26.37
-29.81
-34.07
-39.26
-45.22
-51.38
-56.73
-59.98
-59.89
-55.65
-47.31
-35.82
-22.87
-10.34
0.20
7.90
12.73
15.25
16.24
16.34
15.92
15.12
14.03
12.86
12.00
11.93
12.99
15.25
18.45
22.07
25.59
28.62
30.99
32.59
33.33
33.12
31.89
29.69
26.70
23.23
19.57
15.97
12.60
9.56
6.93
4.70
2.75
0.89
-1.12
-3.52
-6.36
-9.60
-13.10
-16.61
-19.91
-22.86
-25.47
-27.85
-30.34
-33.31
-37.11
-41.85
-47.29
-52.76
-57.13
-59.06
-57.39
-51.57
-41.95
-29.73
-16.71
-4.61
5.35
12.65
17.50
20.39
21.85
22.24
21.80
20.74
19.36
18.00
16.96
16.38
16.25
16.53
17.20
18.39
20.25
22.89
26.21
29.79
33.01
35.20
35.91
35.04
32.92
30.11
27.21
24.65
22.51
20.68
18.92
17.07
15.11
13.15
11.30
9.58
7.88
6.00
3.74
0.99
-2.29
-6.04
-10.08
-14.16
-18.04
-21.57
-24.80
-28.02
-31.75
-36.52
-42.53
-49.43
-56.14
-61.09
-62.66
-59.67
-51.93
-40.31
-26.42
-12.18
0.73
11.24
18.89
23.75
26.22
26.82
26.18
24.91
23.65
22.94
23.13
24.29
26.30
28.83
31.50
34.02
36.19
37.95
39.27
40.19
40.64
40.50
39.66
37.97
35.40
32.07
28.27
24.37
20.79
17.80
15.47
13.67
12.08
10.41
8.50
6.38
4.18
2.08
0.15
-1.67
-3.58
-5.79
-8.41
-11.43
-14.65
-17.83
-20.75
-23.33
-25.70
-28.22
-31.30
-35.31
-40.36
-46.08
-51.49
-55.21
-55.78
-52.18
-44.18
-32.57
-18.93
-5.22
6.88
16.35
22.92
26.86
28.68
28.81
27.49
24.95
21.53
17.78
14.42
12.07
11.16
11.70
13.35
15.60
17.92
19.97
21.63
22.94
24.01
24.85
25.43
25.59
25.21
24.25
22.73
20.81
18.65
16.39
14.08
11.70
9.11
6.22
2.94
-0.68
-4.52
-8.32
-11.90
-15.14
-18.10
-20.94
-23.89
-27.10
-30.70
-34.76
-39.33
-44.31
-49.29
-53.44
-55.59
-54.51
-49.44
-40.41
-28.42
-15.08
-2.12
9.09
17.89
24.16
28.20
30.38
31.11
30.83
30.05
29.36
29.22
29.98
31.62
33.92
36.50
38.98
41.09
42.65
43.56
43.82
43.42
42.31
40.47
37.85
34.50
30.61
26.58
22.83
19.70
17.29
15.38
13.54
11.41
8.87
6.09
3.38
1.04
-0.88
-2.59
-4.47
-6.81
-9.73
-13.16
-16.85
-20.50
-23.91
-26.99
-29.92
-33.03
-36.77
-41.57
-47.50
-54.11
-60.34
-64.76
-65.88
-62.77
-55.30
-44.30
-31.28
-17.97
-5.87
4.06
11.46
16.41
19.22
20.35
20.31
19.61
18.74
18.08
17.86
18.14
18.87
19.93
21.28
22.89
24.81
27.01
29.36
31.59
33.35
34.30
34.24
33.15
31.20
28.66
25.85
22.92
19.89
16.68
13.21
9.50
5.75
2.15
-1.10
-3.93
-6.40
-8.71
-11.02
-13.51
-16.28
-19.32
-22.59
-26.00
-29.41
-32.70
-35.85
-38.95
-42.27
-46.20
-51.09
-57.08
-63.83
-70.35
-75.24
-76.94
-74.35
-67.23
-56.38
-43.43
-30.29
-18.58
-9.25
-2.48
2.10
5.07
6.96
8.16
8.88
9.31
9.69
10.33
11.52
13.38
15.82
18.54
21.11
23.14
24.46
24.99
24.80
23.98
22.56
20.48
17.65
13.99
9.51
4.34
-1.26
-6.88
-12.07
-16.48
-19.96
-22.62
-24.80
-26.92
-29.35
-32.28
-35.65
-39.25
-42.81
-46.20
-49.50
-53.02
-57.27
-62.78
-69.97
-79.00
-89.58
-100.93
-111.65
-119.94
-123.92
-122.21
-114.33
-100.91
-83.56
-64.29
-45.05
-27.21
-11.54
1.73
12.64
21.35
28.16
33.50
38.01
42.38
47.10
52.33
57.92
63.43
68.45
72.68
76.01
78.48
80.27
81.59
82.57
83.32
83.78
83.70
82.72
80.41
76.56
71.28
65.00
58.32
51.75
45.47
39.38
33.21
26.84
20.51
14.82
10.49
7.94
7.01
6.94
6.59
4.89
1.12
-4.87
-12.79
-21.96
-31.39
-39.80
-45.68
-47.53
-44.15
-35.20
-21.28
-4.02
14.40
31.76
46.15
56.39
61.97
63.04
60.22
54.45
46.78
38.28
29.87
22.29
16.06
11.42
8.46
7.00
6.76
7.36
8.51
9.96
11.55
13.14
14.52
15.40
15.45
14.37
12.08
8.73
4.73
0.62
-3.06
-6.05
-8.34
-10.17
-11.95
-14.00
-16.52
-19.45
-22.61
-25.73
-28.71
-31.62
-34.77
-38.58
-43.57
-50.08
-58.13
-67.16
-75.96
-82.80
-85.84
-83.73
-76.11
-63.87
-48.98
-33.87
-20.73
-10.83
-4.40
-0.78
1.06
2.07
2.89
3.85
5.14
6.99
9.70
13.51
18.40
24.00
29.61
34.54
38.34
40.92
42.52
43.36
43.45
42.53
40.17
36.08
30.38
23.59
16.49
9.93
4.48
0.38
-2.46
-4.43
-5.95
-7.41
-9.07
-11.02
-13.21
-15.57
-18.05
-20.72
-23.81
-27.67
-32.75
-39.49
-48.12
-58.37
-69.29
-79.33
-86.47
-88.87
-85.39
-75.94
-61.59
-44.32
-26.43
-10.04
3.36
13.09
19.19
22.28
23.18
22.76
21.76
20.70
19.96
19.84
20.59
22.46
25.51
29.66
34.57
39.75
44.71
49.06
52.62
55.39
57.38
58.49
58.48
57.13
54.41
50.65
46.46
42.55
39.33
36.79
34.33
31.17
26.66
20.61
13.37
5.67
-1.65
-7.94
-12.90
-16.60
-19.33
-21.60
-24.04
-27.35
-32.17
-38.73
-46.67
-54.76
-61.19
-63.95
-61.59
-53.76
-41.34
-26.25
-10.74
3.18
14.28
22.12
26.88
28.98
28.95
27.34
24.80
22.10
20.03
19.24
20.02
22.18
25.27
28.65
31.89
34.74
37.22
39.40
41.27
42.73
43.55
43.47
42.36
40.25
37.37
34.08
30.80
27.91
25.59
23.78
22.20
20.41
18.00
14.76
10.76
6.41
2.24
-1.32
-4.10
-6.24
-8.19
-10.51
-13.70
-18.06
-23.54
-29.68
-35.53
-39.74
-40.84
-37.64
-29.75
-17.79
-3.32
11.61
25.10
35.90
43.62
48.55
51.31
52.55
52.68
51.96
50.58
48.82
46.97
45.36
44.20
43.65
43.81
44.80
46.73
49.59
53.19
57.11
60.72
63.34
64.42
63.73
61.39
57.74
53.29
48.46
43.43
38.22
32.69
26.72
20.42
14.15
8.41
3.68
0.14
-2.44
-4.64
-7.27
-11.05
-16.50
-23.69
-32.23
-41.26
-49.52
-55.56
-58.12
-56.44
-50.64
-41.76
-31.45
-21.52
-13.44
-7.97
-5.16
-4.47
-5.16
-6.48
-7.88
-9.01
-9.60
-9.45
-8.40
-6.36
-3.39
0.26
4.23
8.06
11.45
14.19
16.21
17.43
17.65
16.63
14.19
10.44
5.78
0.88
-3.67
-7.48
-10.50
-12.95
-15.15
-17.37
-19.70
-22.14
-24.60
-27.01
-29.34
-31.59
-33.87
-36.39
-39.42
-43.15
-47.48
-51.86
-55.33
-56.67
-54.85
-49.49
-41.01
-30.64
-20.01
-10.65
-3.50
1.26
4.05
5.59
6.48
7.03
7.27
7.06
6.42
5.54
4.80
4.56
5.00
6.03
7.42
9.01
10.82
13.07
15.99
19.52
23.25
26.55
28.81
29.76
29.51
28.54
27.38
26.46
26.03
26.11
26.59
27.26
27.87
28.20
28.05
27.33
26.10
24.49
22.68
20.74
18.69
16.42
13.79
10.45
6.01
0.05
-7.55
-16.26
-24.75
-31.07
-33.24
-29.94
-21.20
-8.41
6.08
19.67
30.37
37.15
39.96
39.41
36.37
31.73
26.29
20.81
15.98
12.36
10.28
9.75
10.54
12.17
14.13
15.96
17.33
18.08
18.26
17.93
17.23
16.26
14.97
13.26
10.98
7.97
4.27
0.05
-4.32
-8.42
-11.91
-14.72
-17.02
-19.24
-21.81
-25.00
-28.76
-32.80
-36.67
-40.02
-42.67
-44.71
-46.39
-48.08
-50.11
-52.76
-56.23
-60.41
-64.78
-68.38
-69.86
-67.94
-61.86
-51.72
-38.64
-24.40
-11.01
-0.04
7.72
12.24
14.04
13.80
12.13
9.53
6.44
3.41
1.10
0.04
0.54
2.49
5.44
8.80
12.08
14.96
17.32
19.07
20.11
20.40
19.98
19.09
18.16
17.58
17.58
18.14
18.91
19.48
19.48
18.74
17.25
15.13
12.58
9.75
6.79
3.82
0.90
-1.99
-4.94
-8.03
-11.30
-14.65
-17.89
-20.75
-23.04
-24.66
-25.71
-26.38
-27.02
-27.99
-29.46
-31.21
-32.47
-32.06
-28.71
-21.68
-11.13
1.81
15.40
27.88
38.04
45.49
50.47
53.54
55.19
55.67
55.09
53.57
51.31
48.56
45.55
42.38
38.96
35.16
30.86
26.19
21.43
16.97
13.08
9.82
6.95
4.09
0.90
-2.77
-6.80
-10.81
-14.41
-17.27
-19.24
-20.34
-20.68
-20.35
-19.45
-17.98
-16.05
-13.86
-11.69
-9.97
-9.08
-9.28
-10.61
-12.87
-15.71
-18.75
-21.68
-24.49
-27.41
-30.88
-35.44
-41.42
-48.63
-56.25
-62.85
-66.75
-66.55
-61.67
-52.70
-41.22
-29.32
-18.93
-11.29
-6.71
-4.74
-4.53
-5.29
-6.47
-7.85
-9.31
-10.77
-12.08
-13.01
-13.37
-13.00
-11.83
-9.84
-7.06
-3.51
0.72
5.47
10.47
15.32
19.58
22.87
24.94
25.72
25.33
23.97
21.92
19.48
16.92
14.41
12.07
9.87
7.69
5.38
2.81
-0.03
-2.99
-5.88
-8.50
-10.73
-12.48
-13.82
-14.82
-15.62
-16.52
-17.92
-20.31
-24.12
-29.43
-35.78
-42.13
-46.99
-48.93
-47.00
-41.17
-32.35
-22.12
-12.15
-3.79
2.30
6.07
7.79
7.85
6.49
3.90
0.28
-3.93
-8.02
-11.12
-12.48
-11.66
-8.74
-4.25
0.97
6.03
10.16
12.88
14.02
13.68
12.20
10.04
7.69
5.60
4.11
3.39
3.44
3.92
4.26
3.70
1.61
-2.17
-7.15
-12.37
-16.69
-19.27
-19.92
-19.02
-17.31
-15.50
-14.10
-13.17
-12.42
-11.22
-8.70
-3.99
3.49
13.69
25.79
38.39
49.90
59.03
65.09
68.03
68.22
66.18
62.40
57.29
51.33
45.10
39.26
34.34
30.63
28.08
26.33
24.87
23.20
20.96
18.01
14.38
10.15
5.45
0.31
-5.25
-11.22
-17.48
-23.70
-29.39
-33.89
-36.62
-37.21
-35.73
-32.70
-28.97
-25.49
-23.03
-21.98
-22.37
-23.89
-26.14
-28.78
-31.71
-35.02
-39.02
-44.10
-50.56
-58.37
-67.10
-75.79
-83.12
-87.71
-88.43
-84.87
-77.42
-67.19
-55.70
-44.46
-34.66
-26.99
-21.57
-18.11
-15.95
-14.25
-12.07
-8.64
-3.42
3.71
12.46
22.25
32.34
41.99
50.54
57.46
62.37
65.12
65.78
64.59
61.99
58.38
54.07
49.25
44.02
38.42
32.59
26.75
21.15
16.02
11.48
7.50
3.99
0.77
-2.29
-5.23
-8.05
-10.71
-13.18
-15.47
-17.62
-19.74
-21.94
-24.39
-27.30
-30.91
-35.35
-40.58
-46.30
-51.89
-56.40
-58.82
-58.28
-54.35
-47.25
-37.78
-27.16
-16.70
-7.51
-0.25
4.77
7.59
8.46
7.73
5.87
3.43
0.95
-1.08
-2.35
-2.79
-2.57
-1.94
-1.24
-0.71
-0.50
-0.61
-0.97
-1.48
-2.08
-2.79
-3.68
-4.90
-6.55
-8.74
-11.46
-14.62
-17.92
-20.86
-22.81
-23.14
-21.48
-17.84
-12.64
-6.54
-0.19
6.04
11.99
17.70
23.15
28.12
32.19
34.88
35.71
34.34
30.69
24.93
17.65
9.85
2.78
-2.23
-4.23
-2.93
1.24
7.24
13.76
19.65
24.15
26.95
28.08
27.75
26.21
23.72
20.63
17.36
14.48
12.49
11.72
12.15
13.41
14.88
15.97
16.27
15.69
14.41
12.76
11.11
9.75
8.87
8.53
8.68
9.12
9.55
9.72
9.45
8.77
7.84
6.81
5.69
4.35
2.52
0.09
-2.81
-5.84
-8.56
-10.71
-12.32
-13.83
-15.82
-18.93
-23.53
-29.65
-36.92
-44.54
-51.35
-55.97
-57.11
-53.92
-46.34
-35.16
-21.91
-8.37
3.85
13.72
20.87
25.52
28.17
29.33
29.46
28.89
27.93
26.91
26.14
25.87
26.19
27.04
28.15
29.29
30.27
31.10
31.86
32.66
33.48
34.16
34.40
33.83
32.23
29.63
26.30
22.65
19.03
15.57
12.13
8.49
4.49
0.21
-4.04
-7.86
-10.97
-13.38
-15.33
-17.26
-19.64
-22.84
-27.05
-32.25
-38.09
-43.71
-47.93
-49.41
-47.12
-40.73
-30.79
-18.64
-5.98
5.61
15.03
21.75
25.71
27.21
26.67
24.58
21.50
18.01
14.75
12.25
10.87
10.72
11.62
13.26
15.26
17.32
19.23
20.88
22.14
22.83
22.78
21.85
20.03
17.47
14.42
11.12
7.70
4.26
0.86
-2.42
-5.47
-8.19
-10.49
-12.38
-13.94
-15.31
-16.72
-18.45
-20.82
-24.11
-28.47
-33.62
-38.77
-42.78
-44.30
-42.40
-36.80
-28.14
-17.66
-6.88
2.95
11.04
17.12
21.22
23.47
24.00
22.96
20.65
17.58
14.41
11.81
10.26
9.92
10.64
12.06
13.75
15.27
16.35
16.83
16.73
16.16
15.28
14.19
12.85
11.02
8.40
4.78
0.19
-5.08
-10.52
-15.66
-20.20
-24.20
-27.92
-31.68
-35.63
-39.62
-43.28
-46.27
-48.45
-50.04
-51.46
-53.16
-55.43
-58.30
-61.68
-65.35
-68.94
-71.75
-72.65
-70.19
-63.02
-50.52
-33.20
-12.70
8.63
28.48
45.20
58.14
67.53
74.11
78.73
82.06
84.58
86.57
88.24
89.73
91.03
92.02
92.36
91.63
89.51
85.89
81.02
75.40
69.56
63.85
58.28
52.65
46.71
40.34
33.64
26.79
19.98
13.21
6.29
-0.94
-8.45
-15.83
-22.39
-27.35
-30.21
-31.00
-30.30
-29.06
-28.23
-28.31
-29.28
-30.70
-32.00
-32.82
-33.12
-33.07
-32.93
-32.86
-33.06
-33.72
-35.10
-37.24
-39.76
-41.75
-41.96
-39.19
-32.81
-23.05
-10.92
2.16
14.85
26.24
35.87
43.56
49.15
52.32
52.72
50.16
44.94
37.90
30.29
23.45
18.44
15.81
15.49
16.99
19.66
22.90
26.20
29.25
31.84
33.81
35.08
35.62
35.48
34.77
33.64
32.22
30.57
28.76
26.83
24.83
22.77
20.59
18.15
15.28
11.89
8.05
4.03
0.13
-3.40
-6.52
-9.45
-12.54
-16.19
-20.71
-26.17
-32.38
-38.81
-44.56
-48.59
-49.93
-47.97
-42.80
-35.12
-26.10
-16.95
-8.63
-1.63
3.98
8.25
11.22
12.82
12.96
11.73
9.50
6.92
4.78
3.69
3.92
5.30
7.40
9.68
11.75
13.47
14.89
16.17
17.37
18.45
19.22
19.45
19.04
18.00
16.50
14.86
13.38
12.31
11.71
11.45
11.28
10.91
10.16
9.00
7.62
6.22
4.90
3.62
2.12
0.03
-2.95
-7.06
-12.31
-18.51
-25.15
-31.45
-36.35
-38.77
-37.98
-33.90
-27.16
-18.91
-10.47
-2.91
3.12
7.39
9.94
10.94
10.64
9.43
7.78
6.24
5.27
5.13
5.82
7.10
8.63
10.13
11.40
12.49
13.48
14.44
15.34
15.99
16.18
15.69
14.54
12.86
10.89
8.84
6.88
5.17
3.89
3.18
3.02
3.19
3.21
2.57
0.96
-1.63
-4.90
-8.43
-11.88
-15.06
-17.95
-20.54
-22.75
-24.51
-25.83
-26.97
-28.40
-30.65
-34.01
-38.28
-42.69
-46.03
-46.99
-44.64
-38.75
-29.93
-19.40
-8.66
0.98
8.70
14.24
17.82
19.90
20.99
21.45
21.54
21.39
21.19
21.16
21.55
22.55
24.13
26.07
28.03
29.73
31.13
32.46
34.03
36.05
38.42
40.71
42.37
43.04
42.73
41.82
40.86
40.24
40.04
40.04
39.85
39.18
37.84
35.73
32.72
28.66
23.36
16.82
9.31
1.37
-6.33
-13.17
-18.83
-23.31
-26.89
-29.89
-32.59
-34.98
-36.84
-37.72
-37.18
-34.99
-31.19
-26.20
-20.66
-15.24
-10.53
-6.91
-4.64
-3.87
-4.67
-6.97
-10.50
-14.71
-18.94
-22.56
-25.25
-26.91
-27.69
-27.76
-27.20
-26.04
-24.34
-22.33
-20.40
-18.99
-18.50
-19.17
-21.06
-24.13
-28.27
-33.29
-38.91
-44.68
-50.09
-54.61
-57.85
-59.65
-60.12
-59.49
-58.04
-56.02
-53.62
-50.98
-48.30
-45.88
-44.11
-43.35
-43.72
-44.93
-46.16
-46.25
-44.03
-38.76
-30.42
-19.82
-8.26
2.88
12.54
20.22
25.88
29.74
31.99
32.74
32.13
30.50
28.34
26.28
24.79
24.02
23.82
23.88
23.89
23.75
23.50
23.20
22.84
22.30
21.46
20.24
18.65
16.72
14.48
11.95
9.26
6.60
4.23
2.35
0.91
-0.46
-2.27
-4.90
-8.43
-12.48
-16.47
-19.86
-22.47
-24.54
-26.66
-29.48
-33.48
-38.79
-45.08
-51.52
-56.95
-60.11
-60.00
-56.20
-49.05
-39.61
-29.29
-19.47
-11.12
-4.63
0.01
3.05
4.79
5.47
5.33
4.63
3.76
3.14
3.18
4.09
5.85
8.20
10.76
13.18
15.25
17.07
18.87
20.90
23.26
25.68
27.67
28.67
28.26
26.36
23.26
19.45
15.52
11.91
8.85
6.39
4.42
2.80
1.34
-0.14
-1.85
-3.95
-6.49
-9.50
-12.91
-16.61
-20.32
-23.56
-25.61
-25.67
-23.08
-17.58
-9.58
0.04
10.07
19.45
27.51
34.07
39.21
43.08
45.82
47.47
48.17
48.27
48.28
48.79
50.17
52.49
55.46
58.48
60.89
62.11
61.79
59.83
56.38
51.73
46.23
40.18
33.85
27.53
21.56
16.25
11.86
8.42
5.69
3.26
0.72
-2.20
-5.53
-9.09
-12.66
-16.12
-19.46
-22.91
-26.83
-31.69
-37.89
-45.53
-54.22
-62.90
-69.98
-73.79
-73.12
-67.74
-58.54
-47.24
-35.75
-25.58
-17.46
-11.29
-6.53
-2.62
0.75
3.46
5.31
6.19
6.26
5.97
5.84
6.23
7.21
8.64
10.25
11.83
13.33
14.74
16.09
17.24
17.95
17.90
16.85
14.73
11.67
7.98
3.98
0.01
-3.76
-7.31
-10.78
-14.32
-18.06
-22.00
-26.01
-29.90
-33.51
-36.88
-40.20
-43.85
-48.16
-53.21
-58.67
-63.68
-66.99
-67.26
-63.54
-55.62
-44.23
-30.91
-17.49
-5.60
3.78
10.41
14.60
16.84
17.54
17.01
15.53
13.53
11.60
10.39
10.41
11.81
14.30
17.28
20.05
21.96
22.65
22.02
20.29
17.84
15.11
12.49
10.19
8.18
6.33
4.42
2.31
0.02
-2.28
-4.36
-6.07
-7.44
-8.70
-10.21
-12.42
-15.64
-20.05
-25.49
-31.42
-36.90
-40.72
-41.74
-39.22
-33.08
-24.01
-13.18
-1.96
8.45
17.24
23.96
28.50
30.97
31.65
31.05
29.80
28.58
27.94
28.16
29.24
30.91
32.75
34.35
35.39
35.73
35.39
34.45
33.09
31.45
29.66
27.78
25.84
23.80
21.65
19.42
17.20
15.06
13.01
10.94
8.66
6.05
3.15
0.21
-2.34
-4.18
-5.28
-6.04
-7.19
-9.57
-13.83
-20.15
-28.03
-36.35
-43.52
-47.89
-48.25
-44.14
-36.13
-25.64
-14.43
-4.21
3.95
9.60
12.93
14.43
14.66
14.12
13.25
12.46
12.14
12.51
13.60
15.20
16.94
18.44
19.56
20.28
20.74
21.06
21.21
21.07
20.53
19.50
18.02
16.15
13.93
11.34
8.37
5.13
1.86
-1.12
-3.55
-5.35
-6.68
-7.87
-9.25
-11.00
-13.13
-15.51
-17.96
-20.36
-22.67
-24.97
-27.39
-30.08
-33.08
-36.38
-39.79
-42.94
-45.21
-45.74
-43.73
-38.65
-30.52
-20.06
-8.54
2.54
11.89
18.76
23.02
25.04
25.38
24.64
23.28
21.65
20.11
18.94
18.33
18.34
18.85
19.67
20.57
21.43
22.18
22.85
23.36
23.51
23.02
21.59
19.10
15.68
11.71
7.66
4.02
0.96
-1.55
-3.80
-6.16
-8.90
-12.12
-15.72
-19.44
-22.95
-26.04
-28.63
-30.83
-32.88
-35.13
-37.88
-41.25
-44.99
-48.43
-50.50
-49.97
-45.86
-37.85
-26.48
-13.09
0.57
12.76
22.32
28.73
32.13
33.06
32.16
30.08
27.30
24.24
21.19
18.42
16.18
14.64
13.89
13.79
14.10
14.43
14.52
14.32
13.99
13.80
13.87
14.06
13.96
13.11
11.26
8.54
5.43
2.49
0.08
-1.76
-3.29
-4.91
-6.93
-9.48
-12.42
-15.47
-18.30
-20.62
-22.32
-23.45
-24.30
-25.32
-27.04
-29.89
-33.97
-38.90
-43.69
-46.97
-47.26
-43.51
-35.53
-24.11
-10.82
2.47
14.14
23.23
29.49
33.21
34.89
35.05
34.12
32.50
30.60
28.79
27.40
26.59
26.35
26.59
27.10
27.70
28.21
28.50
28.41
27.92
27.01
25.74
24.19
22.33
20.07
17.28
13.94
10.23
6.51
3.21
0.63
-1.19
-2.54
-3.86
-5.59
-7.92
-10.75
-13.78
-16.63
-19.03
-20.92
-22.44
-23.87
-25.61
-28.02
-31.38
-35.72
-40.73
-45.64
-49.28
-50.40
-47.97
-41.70
-32.13
-20.58
-8.70
2.04
10.68
16.97
21.17
23.70
24.94
25.14
24.41
22.97
21.16
19.46
18.31
18.00
18.55
19.70
21.05
22.21
22.94
23.26
23.36
23.38
23.34
23.00
21.95
19.84
16.58
12.46
8.10
4.24
1.43
-0.18
-0.92
-1.45
-2.47
-4.42
-7.30
-10.71
-14.04
-16.74
-18.61
-19.84
-20.93
-22.46
-24.96
-28.70
-33.66
-39.44
-45.24
-49.92
-52.18
-50.93
-45.67
-36.79
-25.45
-13.34
-2.12
7.07
13.76
18.10
20.58
21.72
21.87
21.27
20.14
18.76
17.53
16.82
16.88
17.79
19.43
21.55
23.84
26.02
27.84
29.17
29.94
30.17
29.86
28.99
27.54
25.48
22.85
19.78
16.47
13.05
9.58
6.05
2.45
-1.10
-4.38
-7.23
-9.57
-11.55
-13.43
-15.49
-17.81
-20.30
-22.71
-24.80
-26.47
-27.84
-29.21
-30.97
-33.47
-36.87
-41.01
-45.30
-48.74
-50.14
-48.40
-42.91
-33.88
-22.25
-9.57
2.50
12.65
20.11
24.80
27.06
27.52
26.85
25.70
24.62
24.03
24.10
24.73
25.44
25.68
24.96
23.12
20.54
17.83
15.71
14.54
14.23
14.28
14.02
12.98
11.09
8.66
6.13
3.84
1.85
-0.09
-2.30
-4.95
-8.01
-11.15
-13.96
-16.19
-17.81
-19.08
-20.38
-22.07
-24.45
-27.69
-31.86
-36.69
-41.53
-45.32
-46.69
-44.53
-38.37
-28.73
-16.98
-4.94
5.75
14.07
19.76
23.17
24.84
25.27
24.70
23.20
20.84
17.90
14.89
12.46
11.15
11.15
12.28
14.01
15.80
17.22
18.13
18.52
18.50
18.11
17.31
16.08
14.40
12.34
9.95
7.26
4.32
1.21
-1.96
-4.99
-7.77
-10.28
-12.65
-15.12
-18.01
-21.56
-25.89
-30.94
-36.28
-41.14
-44.47
-45.19
-42.49
-36.10
-26.53
-14.93
-2.80
8.38
17.50
24.01
27.92
29.58
29.45
27.99
25.61
22.72
19.81
17.42
16.07
16.05
17.24
19.17
21.10
22.39
22.61
21.74
20.00
17.77
15.36
12.84
10.13
6.98
3.24
-1.07
-5.66
-10.05
-13.76
-16.49
-18.28
-19.53
-20.86
-22.98
-26.44
-31.43
-37.63
-44.22
-49.97
-53.48
-53.66
-49.97
-42.71
-32.94
-22.10
-11.68
-2.78
4.07
8.90
12.04
13.91
14.79
14.78
13.97
12.50
10.78
9.37
8.86
9.59
11.54
14.27
17.11
19.46
21.01
21.77
22.02
22.06
22.00
21.72
20.91
19.19
16.29
12.18
7.08
1.41
-4.31
-9.65
-14.30
-18.24
-21.68
-24.92
-28.35
-32.28
-36.84
-41.87
-46.80
-50.60
-52.04
-49.99
-43.92
-34.13
-21.82
-8.67
3.61
13.82
21.42
26.42
29.18
30.13
29.65
28.11
25.87
23.36
20.96
18.95
17.50
16.70
16.53
16.94
17.84
19.09
20.48
21.74
22.58
22.75
22.14
20.83
19.02
16.92
14.59
11.97
8.90
5.30
1.23
-3.04
-7.17
-10.90
-14.13
-16.99
-19.62
-22.24
-25.10
-28.51
-32.80
-38.01
-43.60
-48.41
-50.84
-49.42
-43.49
-33.54
-21.05
-8.03
3.78
13.30
20.27
24.94
27.73
29.00
28.95
27.81
25.82
23.37
20.90
18.80
17.37
16.73
16.87
17.67
18.86
20.11
21.10
21.64
21.59
21.02
20.00
18.62
16.94
14.96
12.72
10.23
7.51
4.55
1.36
-2.00
-5.49
-8.97
-12.26
-15.23
-17.90
-20.56
-23.63
-27.60
-32.73
-38.71
-44.62
-49.01
-50.35
-47.49
-40.14
-28.94
-15.31
-1.02
12.23
23.22
31.25
36.16
38.16
37.69
35.32
31.66
27.35
23.01
19.21
16.40
14.87
14.67
15.59
17.24
19.20
21.09
22.72
23.94
24.64
24.64
23.74
21.77
18.73
14.81
10.29
5.50
0.62
-4.23
-9.03
-13.73
-18.25
-22.48
-26.29
-29.57
-32.29
-34.51
-36.46
-38.57
-41.36
-45.24
-50.14
-55.30
-59.24
-60.21
-56.65
-47.99
-34.90
-19.13
-3.00
11.36
22.57
30.11
34.15
35.29
34.08
31.14
27.03
22.41
18.00
14.40
12.04
11.04
11.29
12.49
14.38
16.69
19.24
21.90
24.47
26.72
28.34
29.16
29.03
27.99
26.17
23.70
20.60
16.88
12.50
7.55
2.32
-2.86
-7.60
-11.71
-15.14
-18.09
-20.82
-23.72
-27.18
-31.44
-36.46
-41.65
-45.93
-47.90
-46.33
-40.68
-31.29
-19.40
-6.71
5.15
15.04
22.42
27.27
29.88
30.59
29.74
27.63
24.62
21.14
17.69
14.73
12.64
11.57
11.53
12.32
13.60
15.00
16.15
16.77
16.71
16.01
14.78
13.21
11.36
9.21
6.65
3.57
0.00
-3.89
-7.83
-11.57
-14.96
-18.02
-20.81
-23.48
-26.22
-29.26
-32.82
-36.93
-41.20
-44.75
-46.37
-44.92
-39.78
-31.16
-20.10
-8.09
3.37
13.21
20.87
26.19
29.27
30.24
29.31
26.80
23.16
18.97
14.86
11.39
8.95
7.72
7.61
8.33
9.49
10.69
11.65
12.19
12.30
11.96
11.11
9.68
7.59
4.85
1.57
-2.05
-5.77
-9.34
-12.61
-15.53
-18.18
-20.78
-23.66
-27.19
-31.69
-37.22
-43.43
-49.46
-54.03
-55.75
-53.60
-47.23
-37.17
-24.75
-11.62
0.59
10.68
18.02
22.51
24.47
24.42
22.93
20.52
17.61
14.54
11.65
9.26
7.64
6.90
7.00
7.72
8.83
10.20
11.90
14.06
16.83
20.10
23.52
26.54
28.57
29.09
27.80
24.66
19.93
14.15
8.02
2.19
-2.89
-7.16
-10.99
-14.93
-19.53
-25.11
-31.61
-38.61
-45.34
-50.73
-53.60
-52.86
-47.88
-38.80
-26.60
-12.96
0.27
11.48
19.77
25.01
27.72
28.66
28.52
27.69
26.29
24.33
21.89
19.30
17.01
15.49
15.05
15.66
16.98
18.52
19.83
20.61
20.77
20.31
19.26
17.54
15.16
12.10
8.56
4.80
1.02
-2.71
-6.52
-10.64
-15.08
-19.63
-23.84
-27.26
-29.75
-31.71
-33.96
-37.44
-42.68
-49.41
-56.31
-61.29
-61.97
-56.52
-44.30
-26.18
-4.52
17.36
35.94
48.37
53.09
50.17
41.28
29.06
16.41
5.61
-2.21
-7.15
-10.10
-12.12
-13.74
-14.79
-14.62
-12.64
-8.79
-3.70
1.53
5.89
8.79
10.26
10.69
10.45
9.61
7.89
4.96
0.76
-4.25
-9.25
-13.31
-15.83
-16.69
-16.32
-15.35
-14.48
-14.21
-14.83
-16.53
-19.42
-23.51
-28.53
-33.85
-38.40
-40.98
-40.47
-36.30
-28.58
-18.15
-6.24
5.78
16.73
25.85
32.68
37.15
39.41
39.80
38.78
36.87
34.60
32.40
30.59
29.35
28.74
28.68
28.96
29.35
29.53
29.22
28.21
26.44
23.99
21.12
18.11
15.18
12.43
9.79
7.12
4.28
1.20
-2.04
-5.26
-8.33
-11.11
-13.58
-15.86
-18.15
-20.73
-23.89
-27.90
-32.81
-38.38
-43.93
-48.40
-50.53
-49.22
-43.92
-34.89
-23.21
-10.43
1.84
12.38
20.56
26.34
29.95
31.78
32.15
31.31
29.52
27.18
24.78
22.87
21.90
22.08
23.30
25.22
27.34
29.13
30.24
30.47
29.80
28.38
26.38
23.98
21.36
18.58
15.71
12.74
9.64
6.42
3.05
-0.40
-3.83
-7.07
-10.03
-12.59
-14.77
-16.71
-18.64
-20.86
-23.71
-27.45
-32.14
-37.48
-42.72
-46.73
-48.21
-46.07
-39.88
-30.09
-18.01
-5.41
6.05
15.24
21.79
25.98
28.32
29.27
29.12
27.95
25.88
23.30
20.75
18.80
17.82
17.87
18.62
19.65
20.58
21.17
21.39
21.26
20.76
19.77
18.20
16.04
13.48
10.82
8.36
6.25
4.40
2.56
0.47
-2.03
-4.87
-7.85
-10.74
-13.41
-16.00
-18.82
-22.31
-26.72
-32.01
-37.57
-42.38
-45.20
-44.97
-41.12
-33.81
-23.91
-12.72
-1.67
8.05
15.62
20.71
23.36
23.94
22.93
20.88
18.31
15.68
13.39
11.79
11.09
11.38
12.50
14.13
15.89
17.43
18.59
19.35
19.75
19.75
19.25
18.03
16.02
13.29
10.12
6.84
3.56
0.20
-3.56
-8.03
-13.32
-19.18
-25.20
-30.98
-36.43
-41.71
-47.14
-52.87
-58.73
-64.27
-68.76
-71.59
-72.26
-70.43
-65.81
-58.21
-47.65
-34.49
-19.71
-4.67
9.08
20.29
28.30
33.16
35.50
36.08
35.61
34.48
32.92
31.01
28.94
27.07
25.80
25.46
26.17
27.75
29.76
31.71
33.17
33.94
34.06
33.66
32.86
31.62
29.77
27.16
23.81
19.92
15.87
11.98
8.39
5.04
1.73
-1.64
-5.03
-8.21
-10.97
-13.18
-14.94
-16.57
-18.53
-21.25
-25.02
-29.87
-35.45
-40.94
-45.20
-46.95
-45.18
-39.44
-30.08
-18.15
-5.19
7.21
17.74
25.71
31.01
34.01
35.36
35.71
35.47
34.82
33.78
32.35
30.63
28.91
27.52
26.72
26.59
26.96
27.54
28.03
28.24
28.10
27.60
26.82
25.73
24.33
22.57
20.43
17.97
15.28
12.50
9.76
7.18
4.82
2.70
0.79
-1.00
-2.74
-4.51
-6.37
-8.34
-10.44
-12.71
-15.19
-17.90
-20.78
-23.71
-26.59
-29.56
-32.88
-36.87
-41.52
-46.22
-49.75
-50.73
-48.11
-41.70
-32.31
-21.42
-10.59
-1.00
6.84
12.85
17.18
19.96
21.25
21.20
20.14
18.64
17.32
16.71
17.07
18.31
20.15
22.17
24.07
25.58
26.60
27.10
27.07
26.58
25.65
24.34
22.66
20.63
18.29
15.71
13.03
10.41
8.06
6.08
4.46
3.03
1.54
-0.26
-2.48
-5.09
-7.95
-10.85
-13.65
-16.27
-18.69
-20.97
-23.13
-25.25
-27.51
-30.23
-33.69
-37.91
-42.45
-46.28
-48.03
-46.41
-40.70
-31.10
-18.69
-5.03
8.25
19.84
29.04
35.64
39.74
41.64
41.69
40.24
37.70
34.54
31.25
28.36
26.29
25.26
25.20
25.77
26.46
26.83
26.69
26.11
25.36
24.68
24.07
23.31
22.07
20.07
17.31
14.03
10.61
7.37
4.47
1.86
-0.60
-3.02
-5.45
-7.86
-10.24
-12.62
-15.03
-17.48
-19.92
-22.21
-24.26
-26.08
-27.91
-30.18
-33.36
-37.77
-43.33
-49.48
-55.09
-58.79
-59.25
-55.61
-47.79
-36.57
-23.35
-9.81
2.51
12.59
19.96
24.73
27.28
28.16
27.82
26.62
24.83
22.68
20.41
18.27
16.50
15.31
14.75
14.83
15.46
16.55
18.06
19.98
22.19
24.44
26.35
27.40
27.15
25.33
22.00
17.49
12.37
7.24
2.57
-1.35
-4.51
-7.04
-9.14
-10.99
-12.74
-14.45
-16.13
-17.76
-19.32
-20.80
-22.23
-23.72
-25.42
-27.55
-30.31
-33.83
-38.03
-42.56
-46.78
-49.78
-50.63
-48.65
-43.57
-35.64
-25.68
-14.81
-4.26
4.98
12.31
17.60
21.04
23.02
23.93
24.02
23.42
22.24
20.66
19.01
17.69
17.04
17.17
17.93
18.92
19.68
19.92
19.55
18.77
17.84
16.97
16.17
15.27
14.00
12.19
9.85
7.18
4.53
2.18
0.31
-1.22
-2.66
-4.34
-6.46
-9.03
-11.92
-14.91
-17.86
-20.69
-23.44
-26.17
-28.90
-31.72
-34.77
-38.27
-42.44
-47.25
-52.26
-56.58
-59.07
-58.69
-54.90
-47.87
-38.48
-27.97
-17.67
-8.62
-1.43
3.69
6.86
8.35
8.49
7.63
6.13
4.33
2.56
1.19
0.53
0.90
2.49
5.31
9.14
13.57
18.06
22.14
25.43
27.75
29.05
29.27
28.43
26.52
23.60
19.86
15.57
11.09
6.78
2.91
-0.30
-2.82
-4.76
-6.39
-7.99
-9.84
-11.96
-14.17
-16.13
-17.51
-18.16
-18.22
-18.14
-18.53
-20.05
-23.13
-27.83
-33.56
-39.15
-43.02
-43.60
-39.89
-31.85
-20.51
-7.53
5.27
16.47
25.32
31.68
35.73
37.73
37.88
36.43
33.80
30.63
27.68
25.69
25.15
26.18
28.55
31.78
35.27
38.49
41.02
42.64
43.34
43.20
42.43
41.22
39.68
37.83
35.55
32.66
29.11
25.10
21.10
17.83
15.95
15.76
17.04
18.99
20.48
20.47
18.24
13.55
6.55
-2.30
-12.36
-22.74
-32.31
-39.86
-44.49
-45.95
-44.87
-42.57
-40.41
-39.27
-39.09
-39.03
-38.01
-35.33
-30.92
-25.37
-19.42
-13.70
-8.48
-3.78
0.42
4.00
6.72
8.31
8.73
8.22
7.27
6.47
6.30
6.99
8.44
10.41
12.51
14.48
16.15
17.46
18.44
19.12
19.44
19.33
18.74
17.61
16.01
14.08
12.00
9.96
8.10
6.41
4.80
3.13
1.23
-0.96
-3.46
-6.19
-9.06
-11.95
-14.72
-17.25
-19.43
-21.32
-23.12
-25.22
-28.05
-31.88
-36.62
-41.64
-45.89
-48.12
-47.26
-42.77
-34.82
-24.28
-12.43
-0.64
9.95
18.61
25.00
29.18
31.37
31.93
31.18
29.48
27.20
24.67
22.23
20.17
18.71
18.00
18.06
18.83
20.19
21.89
23.67
25.18
26.07
26.09
25.07
23.01
20.06
16.50
12.71
9.03
5.77
3.09
0.96
-0.80
-2.46
-4.28
-6.42
-8.89
-11.53
-14.10
-16.39
-18.28
-19.76
-20.94
-22.03
-23.33
-25.21
-28.08
-32.09
-36.98
-41.97
-45.87
-47.39
-45.55
-40.07
-31.45
-20.85
-9.59
1.08
10.23
17.37
22.33
25.26
26.46
26.33
25.30
23.77
22.07
20.51
19.39
18.92
19.17
20.03
21.16
22.16
22.74
22.84
22.62
22.34
22.12
21.81
21.10
19.67
17.41
14.52
11.41
8.52
6.16
4.33
2.80
1.21
-0.71
-3.05
-5.69
-8.38
-10.83
-12.90
-14.58
-16.02
-17.54
-19.40
-21.91
-25.25
-29.46
-34.32
-39.27
-43.38
-45.61
-45.02
-41.12
-34.16
-25.07
-15.14
-5.72
2.28
8.44
12.83
15.69
17.21
17.48
16.53
14.59
12.12
9.73
8.05
7.41
7.86
9.15
10.89
12.79
14.71
16.62
18.54
20.40
22.00
23.00
23.06
21.93
19.64
16.47
12.85
9.31
6.20
3.51
1.00
-1.71
-4.89
-8.57
-12.47
-16.19
-19.35
-21.76
-23.52
-24.87
-26.17
-27.79
-30.01
-33.00
-36.71
-40.80
-44.49
-46.70
-46.31
-42.56
-35.43
-25.65
-14.58
-3.71
5.82
13.42
19.11
23.19
25.90
27.25
27.20
25.74
23.19
20.14
17.32
15.30
14.30
14.23
14.82
15.81
17.03
18.44
19.96
21.38
22.39
22.64
21.94
20.29
17.90
15.08
12.24
9.70
7.70
6.25
5.22
4.33
3.20
1.53
-0.89
-4.01
-7.68
-11.63
-15.61
-19.48
-23.17
-26.83
-30.66
-34.95
-39.93
-45.62
-51.61
-57.01
-60.63
-61.27
-58.10
-51.00
-40.68
-28.44
-15.82
-4.21
5.42
12.68
17.63
20.57
21.97
22.26
21.79
20.92
20.03
19.50
19.69
20.75
22.60
24.95
27.42
29.70
31.64
33.20
34.42
35.25
35.52
35.05
33.73
31.61
28.94
26.05
23.25
20.73
18.51
16.46
14.41
12.28
10.02
7.66
5.24
2.76
0.17
-2.56
-5.53
-8.74
-12.21
-15.89
-19.62
-23.14
-26.18
-28.51
-30.12
-31.23
-32.16
-33.23
-34.56
-35.94
-36.98
-37.11
-35.74
-32.35
-26.69
-18.89
-9.57
0.18
9.07
15.94
20.10
21.49
20.70
18.62
16.18
14.12
12.91
12.82
13.89
16.00
18.74
21.52
23.74
24.96
25.08
24.42
23.44
22.48
21.62
20.56
18.88
16.32
12.89
9.05
5.35
2.28
0.00
-1.67
-3.19
-4.94
-7.13
-9.71
-12.39
-14.92
-17.05
-18.76
-20.15
-21.46
-23.05
-25.35
-28.78
-33.58
-39.62
-46.14
-51.95
-55.61
-55.86
-52.12
-44.55
-34.09
-22.13
-10.15
0.61
9.31
15.59
19.53
21.47
21.88
21.28
20.17
18.96
18.09
17.90
18.61
20.25
22.60
25.29
27.93
30.21
31.95
33.13
33.75
33.83
33.31
32.06
29.98
27.04
23.43
19.48
15.59
12.09
9.14
6.62
4.28
1.85
-0.82
-3.72
-6.72
-9.76
-12.80
-15.83
-18.82
-21.74
-24.57
-27.49
-30.81
-34.90
-39.89
-45.42
-50.59
-54.05
-54.52
-51.10
-43.82
-33.47
-21.47
-9.43
1.40
10.22
16.82
21.31
23.93
25.01
24.90
24.03
22.88
21.95
21.57
21.91
22.92
24.40
26.07
27.67
29.02
30.02
30.64
30.89
30.71
30.03
28.69
26.49
23.36
19.39
14.89
10.35
6.31
3.09
0.78
-0.87
-2.28
-3.89
-5.90
-8.25
-10.67
-12.86
-14.71
-16.25
-17.71
-19.29
-21.22
-23.69
-26.96
-31.16
-36.11
-41.16
-45.27
-47.21
-46.07
-41.52
-33.94
-24.26
-13.63
-3.15
6.27
13.97
19.61
23.11
24.71
24.86
24.04
22.74
21.29
19.99
19.11
18.82
19.19
20.10
21.28
22.47
23.57
24.61
25.69
26.81
27.81
28.36
28.13
27.02
25.26
23.33
21.71
20.74
20.38
20.33
20.17
19.47
17.98
15.68
12.76
9.48
6.11
2.79
-0.47
-3.75
-7.27
-11.20
-15.54
-19.96
-23.68
-25.64
-24.81
-20.56
-12.95
-2.80
8.55
19.58
28.95
35.85
39.98
41.51
40.87
38.58
35.12
30.84
26.08
21.18
16.57
12.72
9.99
8.48
7.98
7.96
7.85
7.24
5.96
4.14
2.01
-0.19
-2.40
-4.63
-6.89
-9.15
-11.31
-13.25
-14.95
-16.57
-18.29
-20.34
-22.83
-25.68
-28.70
-31.60
-34.15
-36.23
-37.91
-39.50
-41.47
-44.38
-48.61
-54.06
-59.98
-65.07
-67.79
-66.85
-61.69
-52.63
-40.73
-27.42
-14.12
-1.94
8.35
16.28
21.67
24.60
25.47
24.94
23.80
22.68
21.99
21.89
22.30
23.13
24.26
25.61
27.02
28.33
29.35
29.92
29.98
29.56
28.71
27.46
25.88
23.97
21.69
19.01
15.88
12.38
8.69
5.14
2.01
-0.55
-2.69
-4.76
-7.18
-10.21
-13.73
-17.38
-20.71
-23.42
-25.56
-27.39
-29.33
-31.66
-34.61
-38.22
-42.49
-47.23
-51.90
-55.52
-56.81
-54.59
-48.25
-38.18
-25.68
-12.60
-0.68
8.88
15.70
20.00
22.28
23.06
22.67
21.40
19.58
17.67
16.20
15.62
16.17
17.74
20.00
22.49
24.76
26.51
27.59
27.99
27.78
27.06
25.94
24.50
22.77
20.72
18.33
15.68
12.96
10.35
8.01
5.88
3.82
1.65
-0.66
-2.95
-5.00
-6.68
-8.10
-9.45
-10.92
-12.50
-14.04
-15.39
-16.54
-17.86
-19.86
-23.01
-27.57
-33.40
-39.94
-46.31
-51.40
-54.12
-53.58
-49.39
-41.80
-31.68
-20.36
-9.29
0.36
7.91
13.28
16.76
18.88
20.07
20.54
20.35
19.56
18.34
17.09
16.32
16.42
17.47
19.21
21.08
22.58
23.40
23.58
23.38
23.07
22.79
22.45
21.76
20.44
18.34
15.56
12.44
9.39
6.67
4.33
2.09
-0.42
-3.48
-7.07
-10.91
-14.55
-17.68
-20.20
-22.32
-24.32
-26.46
-28.85
-31.45
-34.34
-37.64
-41.55
-46.08
-50.81
-54.82
-56.82
-55.57
-50.36
-41.28
-29.31
-16.02
-3.09
8.15
16.95
23.21
27.23
29.46
30.34
30.19
29.33
28.08
26.78
25.74
25.16
25.03
25.24
25.58
25.92
26.19
26.43
26.68
26.97
27.25
27.35
27.10
26.26
24.66
22.23
19.05
15.31
11.38
7.61
4.30
1.55
-0.71
-2.67
-4.54
-6.48
-8.53
-10.60
-12.52
-14.15
-15.43
-16.48
-17.54
-18.90
-20.90
-23.74
-27.53
-32.22
-37.50
-42.75
-47.10
-49.43
-48.71
-44.34
-36.49
-26.18
-14.97
-4.45
4.24
10.66
14.90
17.35
18.38
18.26
17.16
15.34
13.24
11.41
10.27
10.08
10.79
12.18
14.06
16.22
18.50
20.68
22.49
23.63
23.88
23.17
21.52
19.11
16.12
12.68
8.95
5.14
1.55
-1.49
-3.76
-5.34
-6.56
-7.85
-9.54
-11.67
-14.05
-16.32
-18.23
-19.75
-21.04
-22.40
-24.14
-26.51
-29.60
-33.42
-37.69
-41.83
-44.96
-46.00
-44.04
-38.71
-30.31
-19.81
-8.54
2.24
11.61
19.19
24.93
29.03
31.67
32.97
33.01
31.95
30.05
27.67
25.28
23.34
22.10
21.65
21.80
22.25
22.64
22.74
22.46
21.85
21.07
20.21
19.27
18.10
16.48
14.20
11.23
7.68
3.85
0.07
-3.39
-6.39
-9.03
-11.48
-13.95
-16.54
-19.27
-21.98
-24.51
-26.76
-28.73
-30.62
-32.79
-35.68
-39.60
-44.48
-49.79
-54.49
-57.28
-56.98
-52.88
-45.04
-34.29
-21.99
-9.71
1.23
9.98
16.22
20.10
22.03
22.55
22.19
21.44
20.69
20.29
20.41
21.05
22.14
23.42
24.68
25.71
26.49
27.05
27.53
27.97
28.29
28.34
27.87
26.73
24.88
22.46
19.67
16.75
13.84
10.95
8.05
4.99
1.64
-2.07
-6.12
-10.34
-14.43
-17.98
-20.69
-22.46
-23.49
-24.27
-25.37
-27.38
-30.67
-35.27
-40.75
-46.23
-50.51
-52.33
-50.71
-45.27
-36.40
-25.20
-13.16
-1.80
7.76
14.94
19.64
22.15
22.90
22.33
20.95
19.25
17.71
16.65
16.12
15.72
14.86
12.90
9.64
5.54
1.66
-0.74
-0.79
1.52
5.26
8.98
11.27
11.35
9.41
6.43
3.70
2.32
2.81
5.08
8.65
12.87
17.14
20.91
23.71
25.11
24.81
22.74
19.05
14.20
8.67
2.80
-3.33
-9.97
-17.32
-25.35
-33.51
-40.72
-45.68
-47.31
-45.14
-39.52
-31.53
-22.56
-13.90
-6.36
-0.24
4.49
7.98
10.27
11.36
11.29
10.35
9.01
7.85
7.31
7.59
8.54
9.85
11.16
12.24
12.99
13.47
13.72
13.74
13.40
12.56
11.08
8.96
6.38
3.70
1.30
-0.57
-1.90
-2.93
-4.06
-5.64
-7.84
-10.63
-13.75
-16.89
-19.76
-22.21
-24.22
-25.94
-27.63
-29.69
-32.57
-36.48
-41.28
-46.28
-50.26
-51.88
-50.06
-44.41
-35.34
-23.92
-11.50
0.67
11.64
20.84
27.89
32.62
34.94
34.93
32.96
29.65
25.81
22.30
19.87
18.99
19.74
21.87
24.78
27.77
30.23
31.81
32.52
32.56
32.18
31.47
30.34
28.55
25.85
22.20
17.76
12.89
8.05
3.67
0.00
-2.87
-5.07
-6.90
-8.64
-10.51
-12.56
-14.71
-16.88
-19.02
-21.27
-23.88
-27.17
-31.39
-36.66
-42.79
-49.24
-55.12
-59.33
-60.79
-58.69
-52.81
-43.56
-31.92
-19.20
-6.74
4.30
13.19
19.62
23.67
25.74
26.35
26.04
25.26
24.30
23.29
22.27
21.30
20.38
19.68
19.36
19.58
20.42
21.78
23.26
24.37
24.62
23.74
21.80
19.20
16.44
13.95
11.88
10.10
8.33
6.23
3.57
0.31
-3.41
-7.27
-10.92
-14.04
-16.54
-18.60
-20.65
-23.34
-27.25
-32.67
-39.40
-46.56
-52.83
-56.68
-56.79
-52.59
-44.35
-33.14
-20.49
-7.94
3.37
12.85
20.34
25.93
29.74
31.94
32.70
32.36
31.40
30.45
30.10
30.66
31.98
33.59
34.80
35.02
34.04
32.06
29.55
27.05
24.86
23.04
21.42
19.86
18.29
16.76
15.27
13.68
11.69
8.96
5.31
0.75
-4.46
-9.96
-15.37
-20.34
-24.61
-27.98
-30.48
-32.36
-34.17
-36.65
-40.46
-45.88
-52.52
-59.30
-64.63
-66.91
-64.97
-58.45
-47.96
-34.90
-21.01
-7.93
3.22
11.93
18.26
22.55
25.18
26.51
26.83
26.48
25.88
25.49
25.72
26.82
28.78
31.36
34.18
36.77
38.80
40.05
40.53
40.39
39.78
38.74
37.22
35.06
32.16
28.59
24.55
20.37
16.43
12.91
9.89
7.17
4.46
1.42
-2.19
-6.38
-10.89
-15.30
-19.18
-22.32
-24.91
-27.47
-30.66
-35.03
-40.79
-47.61
-54.63
-60.57
-63.96
-63.49
-58.51
-49.27
-36.89
-23.10
-9.62
2.24
11.84
19.18
24.50
28.04
29.93
30.34
29.65
28.52
27.67
27.66
28.67
30.50
32.71
34.88
36.65
37.81
38.21
37.75
36.48
34.57
32.32
30.01
27.75
25.46
22.87
19.89
16.62
13.41
10.69
8.61
7.02
5.53
3.67
1.26
-1.59
-4.52
-7.20
-9.50
-11.56
-13.74
-16.40
-19.85
-24.30
-29.88
-36.67
-44.43
-52.51
-59.67
-64.32
-64.95
-60.65
-51.56
-38.80
-24.16
-9.49
3.80
14.85
23.37
29.32
32.75
33.90
33.16
31.14
28.68
26.54
25.29
25.21
26.26
28.13
30.42
32.66
34.44
35.50
35.76
35.32
34.43
33.25
31.85
30.08
27.74
24.66
20.89
16.73
12.54
8.72
5.50
2.85
0.57
-1.67
-4.14
-6.95
-10.08
-13.36
-16.56
-19.58
-22.38
-25.10
-27.99
-31.41
-35.72
-41.23
-47.99
-55.55
-62.87
-68.46
-70.70
-68.42
-61.34
-50.18
-36.50
-22.16
-8.81
2.42
11.06
17.14
21.01
23.12
23.93
23.87
23.31
22.65
22.22
22.38
23.41
25.39
28.16
31.25
34.17
36.50
38.13
39.18
39.87
40.28
40.30
39.57
37.81
34.91
31.11
26.87
22.68
18.84
15.41
12.19
8.94
5.56
2.09
-1.35
-4.66
-7.90
-11.20
-14.63
-18.17
-21.61
-24.76
-27.55
-30.12
-32.96
-36.58
-41.44
-47.63
-54.69
-61.53
-66.59
-68.30
-65.47
-57.80
-46.03
-31.73
-16.85
-3.09
8.44
17.31
23.61
27.65
29.72
30.16
29.35
27.79
26.13
24.98
24.81
25.74
27.63
30.13
32.82
35.32
37.38
38.93
40.01
40.67
40.90
40.62
39.62
37.71
34.83
31.11
26.89
22.54
18.40
14.65
11.31
8.29
5.51
2.98
0.73
-1.15
-2.65
-3.87
-4.99
-6.21
-7.63
-9.30
-11.10
-12.95
-14.96
-17.42
-20.81
-25.52
-31.60
-38.54
-45.31
-50.55
-53.03
-51.93
-47.11
-39.09
-28.85
-17.62
-6.60
3.24
11.22
17.03
20.65
22.29
22.31
21.12
19.16
16.90
14.82
13.36
12.89
13.58
15.29
17.66
20.21
22.44
24.06
24.93
25.11
24.70
23.76
22.33
20.45
18.17
15.52
12.62
9.57
6.58
3.85
1.58
-0.19
-1.54
-2.74
-4.12
-5.92
-8.26
-11.04
-14.06
-17.14
-20.15
-23.06
-25.97
-29.06
-32.56
