1705308872.00
64.000000
-0.00
-0.00
-0.00
-0.00
-0.00
-0.00
-0.00
-0.00
-0.00
-0.00
0.00
0.01
0.01
-0.00
-0.03
-0.05
-0.05
0.00
0.13
0.36
0.66
1.01
1.37
1.72
2.06
2.40
2.79
3.24
3.80
4.42
5.06
5.66
6.20
6.68
7.15
7.68
8.31
9.14
10.09
11.04
11.88
12.56
13.14
13.76
14.65
15.96
17.91
20.32
22.90
25.38
27.58
29.57
31.68
34.32
37.81
42.54
48.15
54.10
59.83
64.97
69.58
74.14
79.34
85.71
93.76
103.00
112.62
121.73
129.77
136.75
143.30
150.75
157.77
166.64
177.95
191.79
206.97
220.57
228.25
225.36
208.53
176.87
132.76
80.05
23.07
-34.94
-92.44
-149.16
-205.23
-260.37
-313.74
-363.87
-409.83
-450.91
-486.50
-515.74
-537.23
-549.22
-549.96
-538.37
-514.21
-478.67
-433.88
-382.45
-327.02
-269.84
-212.63
-156.66
-102.95
-52.37
-5.90
35.58
71.43
101.35
125.50
144.38
158.69
169.15
176.37
180.75
182.57
182.07
179.51
175.23
169.65
163.18
156.15
148.81
141.30
133.69
126.02
118.33
110.69
103.16
95.80
88.68
81.83
75.25
68.95
62.95
57.25
51.86
46.78
42.03
37.59
33.45
29.61
26.07
22.81
19.83
17.11
14.67
12.48
10.54
8.83
7.35
6.07
4.97
4.05
3.27
2.62
2.09
1.65
1.31
1.03
0.82
0.66
0.54
0.46
0.40
0.38
0.37
0.37
0.39
0.41
0.45
0.48
0.52
0.56
0.61
0.66
0.71
0.76
0.82
0.89
0.97
1.05
1.14
1.25
1.36
1.49
1.64
1.80
1.98
2.17
2.39
2.63
2.89
3.18
3.50
3.84
4.22
4.64
5.09
5.58
6.10
6.67
7.28
7.94
8.63
9.36
10.14
10.96
11.82
12.72
13.66
14.66
15.72
16.84
18.00
19.20
20.38
21.49
22.43
23.12
23.40
23.18
22.30
20.71
18.36
15.25
11.47
7.11
2.36
-2.57
-7.42
-12.00
-16.09
-19.52
-22.20
-24.07
-25.14
-25.46
-25.16
-24.37
-23.24
-21.92
-20.53
-19.16
-17.88
-16.68
-15.51
-14.33
-13.03
-11.49
-9.62
-7.29
-4.46
-1.11
2.73
7.00
11.53
16.13
20.64
24.90
28.78
32.19
35.09
37.57
39.81
41.83
43.77
45.81
48.10
50.79
53.92
57.53
61.66
66.43
71.62
77.17
83.06
89.23
95.55
101.87
107.99
113.79
119.39
124.52
129.20
133.45
137.16
139.95
141.07
139.43
133.48
125.04
114.75
103.29
91.28
79.11
66.77
53.93
40.07
24.85
8.38
-9.21
-27.32
-45.25
-62.55
-79.27
-95.97
-113.43
-132.52
-153.86
-178.03
-204.84
-233.17
-260.98
-285.65
-304.79
-316.99
-322.43
-322.76
-320.51
-317.73
-315.03
-311.31
-304.45
-292.36
-273.99
-249.75
-221.33
-191.10
-161.21
-133.26
-108.24
-86.64
-68.73
-54.52
-43.75
-35.75
-29.44
-23.42
-16.20
-6.54
6.25
22.20
40.55
59.91
78.61
95.07
108.15
117.36
122.86
125.12
124.78
122.33
118.00
111.99
104.64
96.58
88.77
82.21
77.58
74.91
73.55
72.39
70.30
66.57
61.12
54.34
46.93
39.47
32.28
25.44
18.79
12.13
5.23
-2.18
-10.33
-19.30
-28.86
-38.22
-46.05
-50.71
-50.67
-45.05
-34.04
-18.93
-1.82
14.96
29.52
40.82
48.80
54.20
58.08
61.36
64.59
67.82
70.74
72.96
74.25
74.65
74.42
73.97
73.61
73.54
73.73
74.02
74.18
73.97
73.17
71.58
69.09
65.70
61.50
56.74
51.72
46.74
41.92
37.23
32.48
27.51
22.28
16.96
11.87
7.30
3.36
-0.16
-3.70
-7.83
-13.00
-19.39
-26.70
-34.32
-41.49
-47.62
-52.55
-56.65
-60.73
-65.74
-72.39
-80.74
-90.03
-98.67
-104.59
-105.80
-101.04
-90.28
-74.80
-56.87
-39.09
-23.59
-11.50
-2.86
3.09
7.41
10.97
14.31
17.58
20.83
24.15
27.79
32.05
37.14
43.09
49.61
56.27
62.61
68.23
72.90
76.48
78.86
79.92
79.63
78.11
75.71
72.96
70.35
68.12
66.15
63.96
60.95
56.71
51.21
44.81
38.16
31.87
26.26
21.23
16.31
10.92
4.65
-2.60
-10.58
-18.75
-26.63
-33.87
-40.37
-46.31
-51.98
-57.76
-64.05
-71.07
-78.69
-86.23
-92.32
-95.09
-92.62
-83.67
-68.19
-47.60
-24.38
-1.42
18.91
35.37
47.93
57.49
65.27
72.23
78.79
84.79
89.77
93.16
94.56
93.76
90.78
85.69
78.71
70.14
60.42
50.18
39.96
30.19
20.93
11.94
2.84
-6.59
-16.20
-25.45
-33.56
-39.85
-43.94
-45.92
-46.31
-45.84
-45.29
-45.21
-45.87
-47.18
-48.89
-50.68
-52.39
-54.11
-56.18
-59.06
-63.08
-68.27
-74.04
-79.24
-82.27
-81.49
-75.76
-64.88
-49.75
-32.12
-14.18
2.11
15.38
25.00
31.01
33.76
33.73
31.47
27.59
22.83
18.02
13.93
11.13
9.80
9.75
10.47
11.41
12.10
12.28
11.92
11.09
9.90
8.38
6.47
4.05
1.07
-2.44
-6.31
-10.27
-13.98
-17.10
-19.38
-20.67
-20.90
-20.08
-18.16
-15.05
-10.72
-5.37
0.44
5.72
9.28
9.96
7.05
0.49
-9.08
-20.40
-31.91
-42.01
-49.35
-53.02
-52.76
-49.12
-43.30
-37.00
-31.91
-29.48
-30.54
-35.33
-43.49
-54.32
-66.83
-79.90
-92.38
-103.24
-111.73
-117.56
-121.00
-122.73
-123.70
-124.81
-126.77
-129.94
-134.35
-139.60
-144.90
-149.03
-150.41
-147.40
-138.72
-123.75
-102.85
-77.27
-48.93
-20.07
7.09
30.61
49.01
61.40
67.59
68.13
64.28
57.74
50.22
42.98
36.62
31.08
26.10
21.73
18.72
18.48
22.54
31.87
46.38
64.95
85.92
107.68
129.14
149.68
168.79
185.76
199.56
209.18
214.09
214.64
212.05
208.00
204.02
200.97
198.87
197.09
194.82
191.48
186.99
181.71
176.16
170.71
165.35
159.74
153.54
146.58
138.93
130.55
120.91
108.79
92.37
70.01
40.90
5.73
-33.31
-72.97
-109.68
-140.48
-163.55
-178.43
-185.90
-187.59
-185.51
-181.59
-177.21
-172.95
-168.49
-162.77
-154.51
-142.57
-126.45
-106.59
-84.25
-61.27
-39.54
-20.52
-4.96
7.12
16.18
22.90
27.92
31.78
34.99
38.01
41.15
44.51
47.86
50.82
53.08
54.73
56.26
58.33
61.27
64.62
67.11
66.96
62.61
53.23
38.93
20.60
-0.58
-23.38
-46.64
-69.14
-89.54
-106.58
-119.48
-128.27
-133.89
-137.83
-141.47
-145.54
-149.78
-152.98
-153.50
-149.82
-141.03
-127.15
-109.10
-88.50
-67.24
-47.13
-29.46
-14.95
-3.75
4.32
9.65
12.65
13.83
13.75
13.06
12.37
12.20
12.85
14.40
16.74
19.70
23.08
26.68
30.26
33.48
35.86
36.88
36.10
33.39
29.01
23.53
17.61
11.77
6.13
0.47
-5.75
-13.08
-21.89
-32.07
-42.84
-52.81
-60.12
-62.99
-60.22
-51.71
-38.53
-22.65
-6.32
8.58
20.79
29.77
35.39
37.78
37.17
33.98
28.94
22.98
17.09
12.05
8.23
5.56
3.66
2.07
0.46
-1.24
-2.95
-4.52
-5.96
-7.54
-9.91
-13.83
-19.95
-28.49
-39.02
-50.57
-61.84
-71.63
-79.14
-84.22
-87.25
-88.97
-90.20
-91.45
-92.63
-92.79
-90.33
-83.31
-70.12
-50.07
-23.78
6.97
39.88
72.80
104.33
133.95
161.67
187.61
211.62
233.20
251.68
266.49
277.34
284.38
288.04
288.93
287.55
284.24
279.11
272.08
263.04
252.08
239.45
225.63
211.10
196.24
181.18
165.90
150.32
134.50
118.60
102.93
87.80
73.44
59.91
47.12
34.84
22.82
10.92
-0.90
-12.55
-23.81
-34.47
-44.30
-53.14
-60.87
-67.39
-72.65
-76.65
-79.43
-81.12
-81.91
-82.10
-81.96
-81.71
-81.51
-81.38
-81.34
-81.38
-81.48
-81.63
-81.78
-81.86
-81.88
-81.96
-82.39
-83.50
-85.47
-88.25
-91.60
-95.17
-98.74
-102.33
-106.18
-110.58
-115.71
-121.56
-127.92
-134.37
-140.41
-145.40
-148.74
-149.90
-148.73
-145.65
-141.65
-138.17
-136.53
-137.45
-140.55
-144.28
-146.43
-144.90
-138.53
-127.57
-113.59
-98.77
-85.09
-73.71
-64.83
-58.01
-52.72
-48.72
-46.02
-44.72
-44.62
-45.16
-45.47
-44.67
-42.12
-37.56
-31.10
-23.11
-14.10
-4.67
4.54
12.98
20.15
25.73
29.58
31.70
32.16
31.10
28.66
25.09
20.79
16.28
12.17
9.07
7.23
6.58
6.61
6.53
5.55
3.13
-0.88
-6.05
-11.37
-15.41
-16.57
-13.64
-6.24
4.89
18.00
30.88
41.54
48.76
52.24
52.45
50.15
46.07
40.83
35.00
29.26
24.47
21.43
20.65
22.07
25.06
28.56
31.41
32.69
31.93
29.22
24.98
19.77
14.03
7.96
1.66
-4.80
-11.19
-17.16
-22.31
-26.36
-29.22
-30.99
-31.87
-32.08
-31.78
-31.11
-30.31
-29.79
-30.10
-31.83
-35.34
-40.54
-46.76
-52.81
-57.17
-58.37
-55.38
-47.95
-36.67
-22.93
-8.48
4.98
16.27
24.89
31.00
35.14
37.85
39.52
40.35
40.44
40.02
39.42
39.01
39.03
39.54
40.45
41.62
43.01
44.64
46.50
48.40
49.95
50.64
50.03
47.91
44.43
39.98
35.08
30.18
25.53
21.19
17.04
12.89
8.61
4.18
-0.32
-4.70
-8.82
-12.67
-16.47
-20.70
-26.05
-33.18
-42.45
-53.64
-65.67
-76.72
-84.53
-87.06
-83.13
-72.84
-57.63
-39.77
-21.70
-5.27
8.66
20.14
29.74
38.02
45.29
51.44
56.34
59.98
62.70
65.07
67.74
71.11
75.19
79.65
84.03
87.93
91.16
93.77
95.96
97.86
99.45
100.52
100.73
99.88
98.03
95.62
93.36
91.94
91.83
93.17
95.75
99.18
103.10
107.28
111.60
116.01
120.41
124.64
128.44
131.53
133.68
134.66
134.34
132.72
129.98
126.59
123.22
120.61
119.20
119.03
119.50
119.58
118.23
114.74
109.23
102.61
96.23
91.31
88.29
86.56
84.69
81.13
74.79
65.65
54.67
43.28
32.74
23.67
15.90
8.94
2.35
-3.78
-8.88
-12.16
-13.16
-11.86
-8.81
-4.83
-0.69
3.04
6.11
8.46
10.27
11.81
13.54
15.98
19.54
24.32
30.01
35.87
40.91
44.09
44.50
41.47
34.64
24.15
10.69
-4.47
-19.76
-33.73
-45.49
-54.95
-62.65
-69.42
-75.86
-82.18
-88.22
-93.79
-98.90
-103.76
-108.58
-113.34
-117.67
-121.05
-123.08
-123.80
-123.65
-123.28
-123.14
-123.33
-123.52
-123.23
-122.13
-120.20
-117.70
-114.92
-112.00
-108.82
-105.15
-100.86
-96.12
-91.41
-87.23
-83.96
-81.56
-79.71
-77.86
-75.64
-72.96
-69.99
-67.02
-64.29
-61.84
-59.48
-56.91
-53.83
-50.09
-45.72
-40.98
-36.28
-32.04
-28.59
-26.02
-24.21
-22.96
-22.02
-21.30
-20.76
-20.42
-20.23
-20.10
-19.90
-19.55
-19.01
-18.35
-17.65
-17.05
-16.56
-16.20
-15.90
-15.50
-14.91
-14.01
-12.85
-11.59
-10.51
-9.78
-9.53
-9.68
-10.10
-10.65
-11.19
-11.67
-12.00
-12.04
-11.66
-10.76
-9.30
-7.39
-5.26
-3.17
-1.37
0.08
1.24
2.23
3.15
3.91
4.35
4.20
3.36
1.90
0.13
-1.57
-2.84
-3.54
-3.74
-3.63
-3.59
-3.87
-4.74
-6.30
-8.51
-11.15
-13.80
-15.95
-17.10
-16.92
-15.32
-12.61
-9.31
-6.01
-3.15
-0.93
0.73
2.01
3.05
3.87
4.40
4.55
4.35
3.90
3.40
2.92
2.48
2.00
1.41
0.62
-0.40
-1.67
-3.25
-5.17
-7.44
-9.98
-12.59
-15.00
-16.89
-18.02
-18.29
-17.78
-16.76
-15.67
-14.84
-14.49
-14.57
-14.79
-14.79
-14.31
-13.33
-12.01
-10.70
-9.69
-9.14
-9.03
-9.15
-9.27
-9.20
-8.82
-8.17
-7.35
-6.53
-5.86
-5.42
-5.23
-5.23
-5.35
-5.48
-5.54
-5.48
-5.24
-4.87
-4.48
-4.28
-4.55
-5.48
-7.07
-9.06
-11.06
-12.66
-13.60
-13.85
-13.52
-12.82
-11.83
-10.64
-9.27
-7.86
-6.59
-5.60
-4.93
-4.43
-3.86
-2.98
-1.73
-0.20
1.29
2.44
2.98
2.86
2.19
1.24
0.32
-0.33
-0.62
-0.61
-0.46
-0.29
-0.19
-0.15
-0.12
-0.08
0.03
0.27
0.72
1.57
2.93
4.76
6.85
8.83
10.29
10.94
10.66
9.49
7.60
5.25
2.68
0.14
-2.13
-3.98
-5.40
-6.55
-7.68
-9.00
-10.49
-11.83
-12.59
-12.39
-11.20
-9.33
-7.40
-6.01
-5.49
-5.82
-6.71
-7.72
-8.55
-9.03
-9.18
-9.08
-8.83
-8.49
-8.05
-7.49
-6.75
-5.80
-4.66
-3.41
-2.16
-1.02
-0.09
0.60
0.98
1.04
0.69
-0.08
-1.18
-2.39
-3.37
-3.82
-3.57
-2.67
-1.41
-0.22
0.51
0.48
-0.33
-1.72
-3.29
-4.63
-5.44
-5.67
-5.50
-5.18
-4.94
-4.78
-4.55
-4.00
-2.89
-1.23
0.72
2.55
3.83
4.32
4.07
3.37
2.60
2.05
1.79
1.68
1.52
1.20
0.85
0.71
0.99
1.73
2.77
3.87
4.81
5.56
6.17
6.75
7.26
7.63
7.78
7.73
7.68
7.97
8.64
9.67
10.92
12.44
13.89
14.83
14.98
14.39
13.39
12.11
10.69
9.34
8.47
8.17
8.39
8.98
9.82
10.74
10.91
9.79
7.46
5.21
3.72
3.38
4.13
5.79
8.05
8.92
7.12
2.86
-0.94
-3.33
-4.41
-5.10
-6.00
-7.44
-12.77
-23.81
-39.29
-52.64
-61.55
-66.07
-68.20
-69.53
-71.24
-79.27
-97.01
-122.83
-146.42
-164.12
-175.77
-184.13
-191.38
-199.75
-218.40
-253.66
-305.06
-359.54
-410.85
-455.73
-494.32
-526.80
-510.80
-428.53
-296.32
-192.25
-128.22
-98.45
-81.84
-70.54
-60.15
-48.49
-41.62
-43.52
-52.54
-56.24
-50.82
-36.89
-18.56
1.52
21.57
35.25
38.86
33.71
29.63
29.95
34.67
41.28
48.51
55.72
59.44
57.65
51.29
46.51
45.25
47.35
51.09
55.52
60.12
63.15
63.65
62.12
61.57
62.87
65.81
69.46
73.39
77.60
81.77
85.83
90.04
95.29
101.51
108.31
115.25
122.46
130.43
139.78
150.88
163.61
177.42
191.51
205.17
218.06
230.33
242.56
255.62
270.58
288.46
309.85
334.19
359.40
381.85
397.24
401.96
394.37
375.48
348.48
317.49
286.15
256.72
230.05
206.10
184.67
165.70
149.22
135.01
122.42
110.53
98.48
85.91
72.95
60.30
48.87
39.38
32.12
26.84
22.83
19.27
15.57
11.61
7.78
4.75
3.12
3.09
4.38
6.28
7.91
8.62
8.12
6.56
4.36
2.10
0.27
-0.82
-1.15
-0.95
-0.67
-0.74
-1.46
-2.89
-4.90
-7.30
-10.03
-13.08
-16.49
-20.18
-23.99
-27.62
-30.82
-33.43
-35.36
-36.64
-37.44
-38.08
-39.08
-41.04
-44.31
-48.75
-53.63
-57.79
-60.17
-60.17
-57.97
-54.36
-50.35
-46.82
-44.22
-42.61
-41.75
-41.29
-40.91
-40.40
-39.62
-38.50
-37.00
-35.16
-33.13
-31.11
-29.34
-27.98
-26.97
-26.14
-25.22
-24.02
-22.55
-20.95
-19.39
-18.00
-16.74
-15.47
-14.13
-12.77
-11.54
-10.61
-10.09
-9.87
-9.80
-9.69
-9.47
-9.18
-8.91
-8.72
-8.60
-8.45
-8.21
-7.85
-7.43
-7.03
-6.69
-6.41
-6.18
-6.04
-6.03
-6.23
-6.65
-7.24
-7.91
-8.60
-9.26
-9.88
-10.40
-10.70
-10.63
-10.16
-9.35
-8.38
-7.47
-6.81
-6.47
-6.48
-6.80
-7.36
-8.03
-8.65
-9.05
-9.13
-8.92
-8.56
-8.20
-7.93
-7.69
-7.35
-6.80
-6.02
-5.16
-4.43
-4.00
-4.00
-4.36
-5.00
-5.80
-6.68
-7.61
-8.56
-9.48
-10.23
-10.65
-10.60
-10.12
-9.40
-8.70
-8.26
-8.13
-8.17
-8.15
-7.90
-7.35
-6.62
-5.91
-5.34
-4.98
-4.74
-4.47
-4.01
-3.29
-2.32
-1.23
-0.16
0.83
1.71
2.52
3.23
3.72
3.80
3.28
2.10
0.39
-1.59
-3.53
-5.21
-6.51
-7.44
-8.04
-8.37
-8.46
-8.32
-7.91
-7.21
-6.24
-5.14
-4.16
-3.59
-3.62
-4.23
-5.18
-6.12
-6.86
-7.41
-7.99
-8.89
-10.18
-11.72
-13.21
-14.40
-15.24
-15.85
-16.36
-16.69
-16.52
-15.44
-13.23
-10.03
-6.37
-2.97
-0.39
1.14
1.78
1.99
2.18
2.55
2.97
3.12
2.66
1.45
-0.36
-2.38
-4.23
-5.65
-6.71
-7.74
-9.09
-10.88
-12.84
-14.41
-14.92
-13.94
-11.47
-7.94
-4.04
-0.49
2.22
3.93
4.78
5.05
4.99
4.69
4.06
2.96
1.34
-0.59
-2.39
-3.51
-3.54
-2.40
-0.42
1.81
3.71
4.91
5.36
5.29
4.99
4.71
4.56
4.55
4.63
4.79
5.05
5.39
5.71
5.83
5.61
4.97
3.99
2.81
1.60
0.47
-0.49
-1.23
-1.70
-1.83
-1.65
-1.27
-0.92
-0.82
-1.09
-1.72
-2.51
-3.22
-3.65
-3.76
-3.71
-3.77
-4.12
-4.83
-5.75
-6.62
-7.19
-7.26
-6.80
-5.93
-4.82
-3.64
-2.51
-1.45
-0.46
0.54
1.67
3.05
4.78
6.88
9.17
11.39
13.24
14.51
15.14
15.15
14.61
13.61
12.17
10.37
8.31
6.21
4.32
2.93
2.28
2.50
3.58
5.32
7.42
9.55
11.47
13.11
14.50
15.76
16.92
17.90
18.56
18.85
18.79
18.56
18.31
18.14
18.03
17.84
17.41
16.65
15.64
14.58
13.79
13.52
13.93
14.94
16.28
17.58
18.47
18.70
18.18
16.97
15.15
12.78
9.92
6.80
3.92
2.12
2.33
5.14
10.43
17.16
23.54
27.66
28.13
24.54
17.58
8.66
-0.56
-8.65
-14.65
-18.17
-19.24
-18.43
-16.74
-15.58
-16.45
-20.40
-27.38
-35.84
-43.21
-46.97
-46.00
-41.35
-35.80
-32.41
-32.83
-36.25
-39.96
-40.94
-37.72
-31.27
-24.29
-19.72
-19.05
-21.72
-25.77
-29.16
-30.93
-31.43
-31.69
-32.54
-33.98
-35.24
-35.34
-33.79
-30.92
-27.66
-25.08
-23.83
-23.89
-24.69
-25.37
-25.25
-24.07
-22.01
-19.67
-17.71
-16.68
-16.70
-17.46
-18.31
-18.52
-17.58
-15.42
-12.33
-8.81
-5.27
-1.91
1.24
4.25
7.08
9.57
11.53
12.88
13.66
14.04
14.24
14.33
14.36
14.33
14.29
14.33
14.57
15.06
15.75
16.55
17.35
18.06
18.60
18.94
19.03
18.95
18.85
18.98
19.62
20.94
22.95
25.48
28.22
30.82
32.91
34.10
33.98
32.21
28.57
23.17
16.44
9.12
2.11
-3.77
-8.01
-10.49
-11.42
-11.28
-10.59
-9.78
-9.12
-8.77
-8.79
-9.17
-9.80
-10.49
-11.05
-11.31
-11.20
-10.77
-10.15
-9.47
-8.81
-8.18
-7.57
-7.01
-6.55
-6.24
-6.05
-5.92
-5.76
-5.52
-5.18
-4.75
-4.29
-3.86
-3.49
-3.19
-2.93
-2.65
-2.25
-1.60
-0.67
0.48
1.59
2.34
2.45
1.80
0.47
-1.30
-3.24
-5.12
-6.81
-8.24
-9.35
-10.10
-10.37
-10.11
-9.28
-7.93
-6.29
-4.65
-3.38
-2.78
-2.95
-3.72
-4.76
-5.69
-6.29
-6.56
-6.64
-6.74
-6.92
-7.12
-7.14
-6.81
-6.03
-4.92
-3.76
-2.89
-2.63
-3.09
-4.15
-5.43
-6.55
-7.18
-7.33
-7.22
-7.19
-7.52
-8.21
-9.03
-9.59
-9.53
-8.55
-6.59
-3.77
-0.42
2.99
5.94
8.00
8.99
8.98
8.32
7.47
6.84
6.70
7.05
7.75
8.57
9.26
9.59
9.43
8.77
7.75
6.61
5.62
4.99
4.74
4.78
4.95
5.11
5.26
5.51
5.95
6.60
7.38
8.09
8.55
8.71
8.58
8.26
7.81
7.22
6.47
5.59
4.64
3.74
3.01
2.47
2.12
1.99
2.16
2.80
3.95
5.47
6.98
8.06
8.40
8.04
7.28
6.60
6.43
6.99
8.23
9.93
11.69
13.10
13.82
13.65
12.65
11.11
9.49
8.26
7.71
7.90
8.60
9.39
9.84
9.58
8.41
6.33
3.48
0.15
-3.29
-6.45
-9.03
-10.85
-11.91
-12.38
-12.52
-12.56
-12.59
-12.57
-12.31
-11.63
-10.43
-8.73
-6.63
-4.34
-2.00
0.23
2.24
3.95
5.33
6.41
7.26
7.97
8.66
9.39
10.25
11.27
12.44
13.60
14.54
15.01
14.86
14.15
13.17
12.27
11.80
11.89
12.45
13.20
13.87
14.25
14.30
14.11
13.81
13.51
13.24
12.92
12.45
11.83
11.18
10.76
10.91
11.78
13.24
14.91
16.23
16.74
16.21
14.77
12.79
10.74
8.93
7.41
5.97
4.28
2.05
-0.88
-4.52
-8.73
-13.24
-17.58
-21.11
-23.02
-22.60
-19.55
-14.25
-7.76
-1.64
2.73
4.49
3.68
1.09
-2.19
-5.24
-7.66
-9.55
-11.34
-13.33
-15.55
-17.71
-19.47
-20.57
-21.02
-21.02
-20.88
-20.86
-21.13
-21.80
-22.88
-24.23
-25.53
-26.39
-26.49
-25.88
-25.00
-24.53
-25.04
-26.63
-28.90
-31.13
-32.62
-33.04
-32.48
-31.33
-29.96
-28.62
-27.28
-25.86
-24.30
-22.70
-21.26
-20.16
-19.41
-18.83
-18.05
-16.73
-14.73
-12.17
-9.32
-6.59
-4.18
-2.15
-0.30
1.63
3.81
6.32
9.02
11.72
14.20
16.31
18.03
19.40
20.52
21.43
22.07
22.28
21.90
20.81
19.01
16.62
13.74
10.61
7.46
4.56
2.20
0.58
-0.27
-0.49
-0.38
-0.24
-0.28
-0.56
-0.99
-1.45
-1.84
-2.19
-2.58
-3.07
-3.69
-4.28
-4.70
-4.78
-4.50
-3.95
-3.32
-2.73
-2.20
-1.69
-1.10
-0.44
0.26
0.90
1.42
1.85
2.28
2.82
3.46
4.13
4.62
4.80
4.56
4.00
3.40
3.11
3.48
4.69
6.60
8.72
10.35
10.78
9.65
7.04
3.50
-0.19
-3.29
-5.40
-6.50
-6.86
-6.79
-6.53
-6.14
-5.66
-5.12
-4.65
-4.41
-4.49
-4.78
-5.06
-5.06
-4.69
-4.04
-3.35
-2.89
-2.75
-2.89
-3.13
-3.35
-3.52
-3.67
-3.85
-4.02
-4.13
-4.16
-4.13
-4.17
-4.35
-4.63
-4.94
-5.18
-5.43
-5.81
-6.42
-7.21
-7.88
-8.06
-7.45
-6.04
-4.03
-1.81
0.29
2.01
3.13
3.44
2.73
0.93
-1.77
-4.84
-7.52
-9.07
-9.08
-7.64
-5.25
-2.57
-0.18
1.65
2.90
3.77
4.38
4.77
4.82
4.40
3.49
2.27
1.03
0.10
-0.34
-0.30
0.04
0.42
0.66
0.75
0.78
0.88
1.17
1.60
2.10
2.53
2.78
2.83
2.72
2.56
2.51
2.79
3.57
4.92
6.70
8.55
10.04
10.78
10.63
9.72
8.39
6.98
5.68
4.52
3.38
2.23
1.05
-0.03
-0.92
-1.60
-2.15
-2.58
-2.83
-2.67
-1.85
-0.27
1.89
4.13
5.81
6.42
5.85
4.48
3.03
2.23
2.55
4.01
6.24
8.69
10.86
12.45
13.44
13.99
14.29
14.57
14.92
15.37
15.90
16.50
17.13
17.80
18.50
19.27
20.16
21.28
22.71
24.51
26.56
28.50
29.77
29.71
27.78
23.80
18.07
11.31
4.37
-2.01
-7.42
-11.90
-15.76
-19.39
-23.09
-26.97
-30.92
-34.66
-37.87
-40.28
-41.72
-42.30
-42.32
-42.21
-42.37
-42.89
-43.56
-43.95
-43.72
-42.88
-41.87
-41.44
-42.27
-44.71
-48.58
-53.29
-58.15
-62.73
-67.05
-71.52
-76.74
-83.06
-90.39
-98.15
-105.51
-111.66
-116.05
-118.44
-118.80
-117.19
-113.60
-108.04
-100.57
-91.36
-80.48
-67.74
-52.68
-34.99
-15.02
5.62
24.13
37.14
42.00
38.00
26.95
12.71
-0.18
-8.02
-9.04
-3.47
7.17
21.13
37.10
54.24
71.71
88.27
102.24
112.04
116.90
117.35
115.25
113.07
113.01
116.12
121.76
127.53
129.81
124.56
108.32
79.18
37.52
-13.68
-69.07
-122.01
-166.07
-196.77
-212.76
-215.95
-210.69
-201.89
-193.53
-187.67
-184.64
-183.87
-184.76
-187.04
-190.33
-193.66
-195.15
-192.61
-184.33
-170.00
-150.76
-128.87
-106.78
-86.25
-68.02
-51.88
-37.08
-22.88
-8.98
4.38
16.62
27.10
35.60
42.51
48.81
55.68
64.01
74.06
85.23
96.33
106.03
113.27
117.52
118.85
117.70
114.70
110.46
105.49
100.17
94.70
89.16
83.48
77.38
70.47
62.28
52.47
41.13
28.95
17.35
8.26
3.61
4.84
12.38
25.44
42.27
60.54
78.02
93.07
104.90
113.51
119.47
123.41
125.78
126.66
125.88
123.24
118.75
112.74
105.66
97.92
89.66
80.69
70.64
59.19
46.31
32.26
17.50
2.46
-12.50
-27.05
-40.82
-53.31
-63.95
-72.42
-78.95
-84.46
-90.38
-98.08
-108.16
-119.95
-131.46
-139.97
-142.88
-138.64
-127.13
-109.60
-88.19
-65.15
-42.41
-21.29
-2.59
13.30
26.24
36.37
44.03
49.75
54.17
57.84
61.15
64.32
67.37
70.24
72.82
75.08
77.04
78.83
80.52
82.02
82.98
82.81
80.90
76.86
70.72
62.97
54.39
45.75
37.57
29.93
22.45
14.48
5.23
-5.93
-19.16
-33.83
-48.46
-60.87
-68.65
-69.94
-64.04
-51.62
-34.58
-15.38
3.72
21.09
36.00
48.34
58.37
66.39
72.63
77.27
80.50
82.64
84.02
84.99
85.75
86.29
86.47
86.09
85.08
83.52
81.62
79.57
77.42
74.96
71.87
67.77
62.38
55.62
47.57
38.53
28.83
18.92
9.25
0.18
-8.11
-15.67
-22.83
-30.19
-38.45
-48.16
-59.38
-71.39
-82.58
-90.77
-93.78
-90.15
-79.72
-63.71
-44.35
-24.14
-5.21
11.12
24.38
34.66
42.32
47.70
51.12
52.84
53.26
52.81
52.05
51.47
51.40
51.91
52.90
54.10
55.27
56.28
57.07
57.57
57.53
56.52
53.99
49.56
43.19
35.31
26.72
18.21
10.35
3.22
-3.59
-10.77
-18.95
-28.50
-39.19
-50.02
-59.41
-65.41
-66.32
-61.20
-50.27
-34.93
-17.33
0.26
16.06
29.05
38.98
46.00
50.43
52.54
52.58
50.90
47.97
44.43
40.94
38.06
36.14
35.30
35.41
36.17
37.19
38.05
38.33
37.63
35.63
32.18
27.29
21.24
14.40
7.23
0.07
-6.98
-14.10
-21.73
-30.38
-40.36
-51.40
-62.56
-72.20
-78.37
-79.42
-74.51
-63.93
-49.00
-31.76
-14.34
1.52
14.69
24.73
31.65
35.75
37.43
37.16
35.46
32.95
30.28
27.99
26.44
25.69
25.54
25.69
25.94
26.29
26.87
27.73
28.68
29.19
28.58
26.23
21.94
15.96
8.95
1.67
-5.27
-11.61
-17.52
-23.47
-30.09
-37.97
-47.38
-58.02
-68.80
-77.96
-83.40
-83.35
-76.92
-64.49
-47.65
-28.64
-9.80
7.03
20.84
31.37
38.88
43.89
46.95
48.54
49.07
48.89
48.35
47.77
47.41
47.42
47.78
48.31
48.70
48.69
48.11
46.99
45.48
43.74
41.80
39.42
36.19
31.68
25.69
18.43
10.49
2.61
-4.57
-10.79
-16.22
-21.36
-26.76
-32.96
-40.28
-48.77
-58.07
-67.33
-75.19
-80.06
-80.49
-75.66
-65.76
-51.91
-35.84
-19.42
-4.21
8.87
19.47
27.72
33.95
38.57
41.89
44.16
45.56
46.27
46.51
46.54
46.63
46.97
47.60
48.48
49.44
50.24
50.62
50.33
49.11
46.86
43.57
39.41
34.66
29.63
24.56
19.61
14.77
10.00
5.23
0.43
-4.32
-8.94
-13.36
-17.58
-21.70
-26.00
-30.88
-36.79
-44.03
-52.50
-61.45
-69.47
-74.74
-75.54
-70.92
-61.00
-47.08
-31.19
-15.42
-1.39
10.04
18.74
24.98
29.10
31.43
32.24
31.84
30.71
29.39
28.40
28.10
28.48
29.23
29.81
29.72
28.65
26.60
23.79
20.44
16.58
11.94
6.16
-0.97
-9.22
-17.97
-26.40
-33.91
-40.36
-46.08
-51.72
-57.86
-64.82
-72.61
-81.02
-89.64
-97.99
-105.36
-110.89
-113.64
-112.88
-108.37
-100.41
-89.95
-78.24
-66.65
-56.44
-48.60
-43.83
-42.46
-44.46
-49.27
-55.65
-61.52
-64.11
-60.51
-48.56
-27.83
-0.02
31.37
62.20
89.09
110.37
126.11
137.31
144.87
148.81
148.42
143.01
132.80
119.43
105.66
94.52
88.54
88.72
94.37
103.54
113.94
123.84
132.45
139.87
146.58
153.19
159.58
164.65
166.63
163.74
155.06
140.95
122.84
102.61
82.29
62.62
42.76
20.85
-4.85
-34.92
-68.55
-103.90
-138.71
-168.68
-189.74
-198.86
-194.81
-178.42
-152.67
-122.48
-93.75
-71.46
-53.90
-36.57
-14.75
13.91
48.64
86.39
123.08
154.83
179.08
201.16
225.96
254.54
283.12
306.35
321.60
330.81
339.09
351.84
380.11
428.82
493.98
564.27
627.16
674.84
705.68
721.93
682.00
565.55
381.09
166.25
-35.40
-196.76
-311.03
-384.04
-423.48
-444.43
-449.20
-438.40
-415.43
-387.92
-364.63
-351.61
-348.51
-352.23
-358.82
-358.18
-343.79
-315.42
-279.07
-243.01
-213.30
-192.07
-178.56
-171.10
-164.02
-154.04
-141.58
-130.05
-123.18
-122.46
-126.69
-133.38
-140.09
-143.09
-140.76
-134.25
-127.18
-124.07
-128.29
-141.00
-160.96
-185.00
-208.00
-225.16
-233.19
-230.96
-219.31
-200.46
-177.30
-152.97
-130.20
-110.73
-95.10
-82.80
-72.70
-63.71
-55.25
-47.34
-40.44
-35.04
-31.38
-29.33
-28.51
-28.46
-28.92
-29.89
-31.64
-34.47
-38.45
-43.12
-47.36
-49.68
-48.55
-43.00
-32.79
-18.56
-1.46
17.07
35.70
53.28
68.99
82.36
93.31
102.23
109.73
116.42
122.57
127.88
131.54
132.53
129.92
123.29
112.83
99.32
83.91
67.87
52.23
37.60
23.93
10.59
-3.49
-19.42
-37.97
-59.19
-82.27
-105.71
-127.67
-146.42
-160.75
-170.22
-175.20
-176.74
-176.26
-175.11
-174.16
-173.44
-172.10
-168.76
-162.07
-151.32
-136.84
-119.84
-101.98
-84.79
-69.33
-56.08
-45.21
-36.77
-30.79
-27.16
-25.45
-24.93
-24.68
-23.84
-21.84
-18.44
-13.69
-7.84
-1.22
5.72
12.42
18.32
22.89
25.76
26.83
26.17
23.96
20.33
15.46
9.44
2.41
-5.44
-13.90
-22.66
-31.15
-38.47
-43.31
-44.25
-40.17
-30.72
-16.61
0.52
18.53
35.43
49.89
61.39
70.06
76.36
80.79
83.71
85.30
85.68
84.94
83.24
80.79
77.91
74.90
72.08
69.69
67.79
66.30
64.92
63.21
60.67
56.82
51.31
44.00
35.04
24.92
14.38
4.21
-4.98
-13.00
-20.19
-27.22
-34.64
-42.47
-49.86
-55.25
-56.84
-53.35
-44.55
-31.36
-15.62
0.66
15.80
28.83
39.40
47.54
53.41
57.21
59.14
59.51
58.80
57.53
56.13
54.82
53.56
52.09
50.16
47.72
44.92
42.17
39.83
38.15
37.03
36.18
35.17
33.74
31.78
29.41
26.77
23.99
21.09
18.00
14.58
10.64
5.92
0.24
-6.42
-13.69
-20.66
-26.01
-28.32
-26.52
-20.29
-10.23
2.27
15.54
28.05
38.81
47.40
53.77
57.94
59.81
59.23
56.19
51.17
45.19
39.64
35.69
33.86
33.61
33.45
31.50
26.32
17.62
6.54
-4.60
-13.11
-16.84
-14.82
-7.43
3.84
16.87
29.32
38.92
43.74
42.35
34.23
19.93
1.07
-20.00
-40.75
-58.89
-72.76
-81.34
-84.15
-81.18
-72.98
-60.72
-46.15
-31.34
-18.14
-7.66
-0.08
5.24
9.26
12.79
16.17
19.39
22.42
25.60
29.62
35.26
42.92
52.33
62.51
72.10
79.74
84.35
85.28
82.30
75.62
65.74
53.41
39.48
24.74
9.87
-4.60
-18.19
-30.58
-41.54
-51.02
-59.03
-65.48
-69.94
-71.66
-69.82
-63.92
-54.23
-41.83
-28.36
-15.51
-4.54
3.99
10.09
14.13
16.48
17.43
17.22
16.11
14.51
12.88
11.61
10.93
10.86
11.31
12.11
13.12
14.16
15.00
15.31
14.72
12.98
10.08
6.26
1.91
-2.56
-6.91
-11.14
-15.44
-20.14
-25.56
-31.88
-38.96
-46.23
-52.62
-56.77
-57.36
-53.61
-45.58
-34.20
-21.06
-7.84
4.08
13.93
21.54
27.12
31.01
33.57
35.09
35.78
35.82
35.42
34.79
34.09
33.42
32.79
32.12
31.36
30.54
29.75
29.10
28.55
27.83
26.51
24.15
20.49
15.62
9.93
4.00
-1.64
-6.64
-10.94
-14.78
-18.66
-23.15
-28.73
-35.43
-42.73
-49.55
-54.44
-55.96
-53.15
-45.86
-34.94
-21.95
-8.62
3.49
13.40
20.71
25.61
28.62
30.37
31.33
31.81
32.17
32.54
32.87
32.95
32.68
32.14
31.66
31.51
31.82
33.01
35.04
37.22
38.50
38.16
36.14
33.08
29.70
26.65
25.33
26.25
28.64
30.74
30.94
28.60
24.25
19.12
14.96
15.36
22.65
36.66
54.66
72.95
88.51
100.05
108.04
114.94
126.72
148.23
180.58
220.24
260.64
294.62
316.66
323.89
300.49
241.60
156.45
65.04
-14.15
-72.79
-112.06
-135.71
-150.97
-162.42
-170.69
-176.85
-183.60
-194.74
-210.73
-229.21
-245.88
-257.29
-262.18
-260.57
-255.02
-249.48
-247.33
-249.22
-252.75
-253.48
-247.11
-230.36
-200.90
-159.06
-108.37
-55.16
-6.79
30.36
52.86
60.68
57.05
47.30
36.22
26.62
19.08
13.04
8.00
4.15
2.09
2.19
4.23
7.17
9.65
10.73
10.37
9.18
8.05
7.59
7.93
8.71
9.35
9.25
7.99
5.37
1.36
-3.84
-9.80
-15.84
-21.06
-24.59
-25.72
-24.10
-19.78
-13.15
-4.86
4.24
13.23
21.21
27.34
30.98
31.87
30.14
26.36
21.39
16.18
11.52
7.97
5.69
4.59
4.36
4.67
5.23
5.81
6.27
6.49
6.38
5.80
4.73
3.17
1.25
-0.98
-3.55
-6.65
-10.53
-15.23
-20.45
-25.39
-28.96
-30.05
-28.00
-22.78
-15.04
-5.86
3.62
12.49
20.17
26.36
30.85
33.51
34.22
33.06
30.36
26.73
22.92
19.66
17.39
16.22
15.90
15.94
15.84
15.28
14.20
12.70
11.02
9.23
7.27
4.90
1.86
-2.02
-6.77
-12.27
-18.26
-24.28
-29.63
-33.41
-34.73
-32.99
-28.18
-21.00
-12.56
-4.12
3.48
9.83
14.93
18.88
21.59
22.81
22.27
20.08
16.74
13.18
10.37
8.92
8.97
10.06
11.47
12.44
12.54
11.65
9.97
7.83
5.53
3.20
0.79
-1.88
-5.05
-8.93
-13.69
-19.39
-25.91
-32.81
-39.18
-43.81
-45.37
-42.88
-36.12
-25.85
-13.60
-1.24
9.64
18.11
23.99
27.68
29.71
30.56
30.44
29.45
27.69
25.40
22.92
20.66
18.92
17.82
17.27
17.03
16.74
16.09
14.85
12.99
10.59
7.82
4.80
1.56
-1.94
-5.77
-10.05
-14.81
-20.13
-26.03
-32.43
-38.98
-44.95
-49.27
-50.76
-48.49
-42.16
-32.28
-20.07
-7.09
5.20
15.78
24.16
30.25
34.21
36.25
36.61
35.61
33.68
31.41
29.36
27.89
27.13
26.89
26.85
26.69
26.20
25.40
24.39
23.34
22.27
21.09
19.51
17.19
13.83
9.38
4.07
-1.60
-7.09
-11.97
-16.14
-19.84
-23.60
-27.97
-33.36
-39.81
-46.84
-53.53
-58.57
-60.61
-58.64
-52.32
-42.14
-29.34
-15.57
-2.37
9.13
18.39
25.35
30.20
33.26
34.81
35.13
34.51
33.29
31.87
30.64
29.90
29.82
30.37
31.33
32.34
33.05
33.16
32.55
31.27
29.45
27.22
24.66
21.76
18.45
14.67
10.42
5.78
0.91
-4.02
-8.80
-13.27
-17.32
-20.96
-24.29
-27.58
-31.23
-35.63
-41.05
-47.32
-53.77
-59.22
-62.22
-61.46
-56.29
-46.93
-34.45
-20.50
-6.75
5.48
15.48
23.09
28.52
32.08
34.09
34.82
34.54
33.66
32.63
31.90
31.74
32.22
33.18
34.32
35.38
36.17
36.62
36.72
36.42
35.59
34.04
31.67
28.53
24.83
20.88
16.93
13.07
9.21
5.18
0.82
-3.88
-8.72
-13.40
-17.61
-21.23
-24.34
-27.27
-30.44
-34.30
-39.14
-44.87
-50.89
-56.11
-59.15
-58.72
-54.12
-45.49
-33.90
-20.96
-8.32
2.78
11.73
18.47
23.17
26.03
27.16
26.75
25.13
22.91
20.77
19.35
18.98
19.60
20.86
22.30
23.53
24.34
24.73
24.79
24.59
24.13
23.21
21.57
18.98
15.35
10.87
5.90
0.96
-3.52
-7.32
-10.55
-13.51
-16.69
-20.50
-25.15
-30.51
-36.05
-40.83
-43.74
-43.73
-40.21
-33.25
-23.61
-12.53
-1.38
8.70
17.01
23.26
27.47
29.80
30.44
29.61
27.64
24.98
22.17
19.84
18.43
18.19
19.06
20.65
22.47
23.99
24.84
24.87
24.09
22.62
20.58
18.05
15.11
11.82
8.27
4.49
0.51
-3.64
-7.91
-12.19
-16.32
-20.17
-23.66
-26.83
-29.86
-33.05
-36.76
-41.24
-46.42
-51.80
-56.41
-58.94
-58.13
-53.28
-44.49
-32.73
-19.59
-6.74
4.52
13.50
20.12
24.68
27.58
29.12
29.50
28.94
27.75
26.43
25.45
25.19
25.72
26.83
28.15
29.34
30.18
30.60
30.59
30.15
29.19
27.59
25.25
22.19
18.56
14.66
10.78
7.20
4.03
1.19
-1.57
-4.56
-7.97
-11.79
-15.81
-19.67
-23.06
-25.86
-28.19
-30.38
-32.93
-36.36
-41.02
-46.86
-53.26
-58.96
-62.33
-61.86
-56.73
-47.16
-34.43
-20.46
-7.15
4.16
12.94
19.35
23.89
27.03
29.04
30.00
30.01
29.26
28.15
27.19
26.77
27.10
28.10
29.47
30.81
31.79
32.29
32.32
32.04
31.51
30.71
29.47
27.59
24.96
21.59
17.69
13.61
9.72
6.30
3.39
0.85
-1.63
-4.36
-7.50
-11.01
-14.65
-18.10
-21.11
-23.61
-25.77
-27.91
-30.42
-33.71
-38.08
-43.61
-49.98
-56.41
-61.62
-64.13
-62.67
-56.60
-46.29
-33.02
-18.65
-5.06
6.40
15.16
21.35
25.42
27.88
29.00
28.93
27.86
26.16
24.39
23.17
22.89
23.57
24.89
26.37
27.62
28.47
28.97
29.29
29.53
29.61
29.28
28.21
26.13
22.99
18.99
14.53
10.10
6.13
2.78
-0.05
-2.69
-5.51
-8.71
-12.26
-15.85
-19.08
-21.66
-23.49
-24.78
-25.92
-27.47
-29.95
-33.72
-38.85
-44.98
-51.22
-56.31
-58.84
-57.66
-52.33
-43.23
-31.55
-18.93
-6.94
3.28
11.18
16.77
20.31
22.12
22.42
21.40
19.33
16.67
14.08
12.20
11.50
12.05
13.53
15.38
17.04
18.18
18.79
19.01
19.02
18.80
18.12
16.59
13.90
9.99
5.11
-0.20
-5.37
-9.93
-13.70
-16.78
-19.44
-22.02
-24.81
-28.04
-31.89
-36.42
-41.46
-46.43
-50.31
-51.82
-49.87
-43.94
-34.50
-22.82
-10.61
0.55
9.68
16.46
21.05
23.79
24.90
24.50
22.75
20.00
16.91
14.27
12.78
12.79
14.15
16.34
18.62
20.33
21.08
20.80
19.70
18.04
15.98
13.48
10.35
6.39
1.60
-3.78
-9.24
-14.24
-18.38
-21.61
-24.19
-26.60
-29.38
-32.98
-37.62
-43.21
-49.25
-54.80
-58.56
-59.15
-55.56
-47.56
-35.88
-22.08
-8.02
4.62
14.83
22.33
27.43
30.67
32.55
33.46
33.66
33.44
33.08
32.85
32.94
33.38
34.04
34.74
35.34
35.79
36.11
36.34
36.42
36.16
35.29
33.50
30.64
26.76
22.17
17.30
12.61
8.38
4.62
1.10
-2.46
-6.28
-10.32
-14.36
-18.12
-21.44
-24.33
-27.02
-29.88
-33.38
-37.95
-43.85
-50.91
-58.37
-64.79
-68.40
-67.60
-61.61
-50.83
-36.75
-21.48
-7.05
5.16
14.70
21.81
27.11
31.14
34.27
36.59
38.17
39.13
39.73
40.29
41.06
42.08
43.22
44.22
44.85
45.04
44.89
44.55
44.15
43.67
42.96
41.79
40.05
37.71
34.95
32.03
29.23
26.77
24.73
23.00
21.34
19.45
17.02
13.95
10.33
6.50
2.86
-0.25
-2.77
-4.98
-7.35
-10.35
-14.16
-18.56
-23.03
-27.03
-30.24
-32.73
-34.95
-37.50
-40.94
-45.59
-51.41
-57.93
-64.20
-68.90
-70.53
-67.87
-60.38
-48.47
-33.50
-17.38
-2.00
11.22
21.60
29.08
34.09
37.26
39.29
40.86
42.53
44.68
47.36
50.33
53.14
55.35
56.69
57.20
57.24
57.38
58.25
60.38
63.81
67.90
71.14
71.40
66.58
55.50
38.62
18.10
-2.79
-20.83
-33.85
-41.23
-43.64
-42.30
-38.22
-31.91
-23.62
-13.76
-3.31
6.27
13.41
16.90
16.28
11.89
4.72
-3.98
-12.98
-21.33
-28.58
-34.72
-39.98
-44.71
-49.16
-53.43
-57.35
-60.60
-62.68
-63.00
-61.03
-56.41
-49.20
-39.89
-29.33
-18.58
-8.62
-0.18
6.34
10.78
13.22
13.84
12.97
11.16
9.06
7.42
6.83
7.59
9.62
12.53
15.75
18.77
21.27
23.17
24.52
25.29
25.33
24.38
22.26
19.02
14.98
10.72
6.80
3.62
1.23
-0.56
-2.12
-3.75
-5.58
-7.57
-9.54
-11.31
-12.80
-14.09
-15.45
-17.25
-19.81
-23.24
-27.32
-31.41
-34.59
-35.83
-34.32
-29.76
-22.53
-13.62
-4.42
3.74
9.92
13.79
15.52
15.59
14.50
12.63
10.21
7.46
4.68
2.24
0.52
-0.17
0.30
1.87
4.38
7.56
11.03
14.37
17.08
18.75
19.15
18.27
16.31
13.57
10.36
6.90
3.36
-0.15
-3.50
-6.62
-9.50
-12.21
-14.87
-17.44
-19.67
-21.00
-20.70
-18.09
-12.86
-5.22
4.11
14.14
23.86
32.52
39.73
45.42
49.62
52.36
53.67
53.64
52.55
50.97
49.68
49.42
50.68
53.46
57.35
61.58
65.36
68.09
69.38
69.12
67.32
64.00
59.10
52.54
44.19
33.92
21.57
6.98
-9.96
-29.20
-50.33
-72.53
-94.44
-114.34
-130.32
-140.70
-144.32
-140.91
-131.21
-116.80
-99.81
-82.43
-66.54
-53.44
-43.76
-37.69
-35.01
-35.30
-37.85
-41.78
-46.01
-49.50
-51.49
-51.67
-50.31
-48.02
-45.58
-43.57
-42.23
-41.40
-40.75
-40.00
-39.08
-38.21
-37.70
-37.93
-39.12
-41.42
-44.69
-48.57
-52.34
-54.99
-55.45
-52.92
-47.18
-38.71
-28.58
-18.08
-8.29
0.15
7.08
12.59
16.83
19.83
21.54
21.92
21.14
19.60
17.83
16.36
15.54
15.38
15.67
16.03
16.07
15.51
14.24
12.30
9.87
7.17
4.41
1.69
-1.04
-4.03
-7.60
-12.07
-17.63
-24.09
-30.86
-36.90
-40.95
-41.84
-38.87
-32.08
-22.29
-10.89
0.61
10.99
19.58
26.30
31.43
35.33
38.21
40.07
40.80
40.36
38.93
36.88
34.68
32.75
31.24
30.07
29.01
27.79
26.20
24.14
21.57
18.53
15.07
11.29
7.26
3.05
-1.39
-6.19
-11.57
-17.78
-24.90
-32.74
-40.66
-47.57
-52.14
-53.13
-49.80
-42.24
-31.33
-18.50
-5.31
7.00
17.65
26.42
33.39
38.84
43.00
46.08
48.23
49.52
50.03
49.87
49.24
48.35
47.46
46.73
46.23
45.91
45.61
45.13
44.28
42.94
41.07
38.71
35.95
32.80
29.20
25.04
20.23
14.79
8.97
3.15
-2.29
-7.11
-11.31
-15.10
-18.85
-22.96
-27.75
-33.36
-39.59
-45.83
-50.99
-53.71
-52.77
-47.53
-38.25
-26.06
-12.68
0.18
11.27
20.07
26.71
31.68
35.47
38.43
40.68
42.25
43.19
43.62
43.74
43.73
43.74
43.83
43.96
44.11
44.22
44.24
44.15
43.85
43.22
42.14
40.47
38.20
35.39
32.22
28.85
25.43
22.06
18.80
15.72
12.86
10.17
7.55
4.80
1.76
-1.65
-5.36
-9.19
-12.97
-16.56
-19.91
-23.03
-26.00
-28.95
-32.10
-35.78
-40.29
-45.74
-51.80
-57.65
-62.02
-63.58
-61.34
-55.05
-45.26
-33.23
-20.48
-8.43
1.95
10.26
16.53
21.06
24.25
26.46
27.99
29.07
29.88
30.59
31.32
32.11
32.94
33.70
34.28
34.64
34.80
34.87
34.96
35.03
34.94
34.43
33.27
31.34
28.70
25.58
22.25
18.96
15.85
12.98
10.36
7.95
5.72
3.60
1.51
-0.63
-2.91
-5.39
-8.10
-11.04
-14.17
-17.39
-20.59
-23.62
-26.37
-28.89
-31.40
-34.27
-37.88
-42.36
-47.44
-52.36
-56.05
-57.37
-55.57
-50.48
-42.62
-33.00
-22.85
-13.24
-4.95
1.69
6.70
10.34
12.90
14.70
15.93
16.77
17.39
17.94
18.50
19.14
19.79
20.33
20.68
20.81
20.81
20.82
20.99
21.32
21.73
21.99
21.85
21.13
19.77
17.85
15.55
13.04
10.46
7.91
5.38
2.91
0.51
-1.77
-3.92
-5.98
-8.07
-10.31
-12.77
-15.44
-18.19
-20.88
-23.40
-25.72
-27.90
-30.13
-32.60
-35.55
-39.13
-43.34
-47.82
-51.86
-54.50
-54.76
-52.07
-46.46
-38.65
-29.77
-21.05
-13.42
-7.39
-3.08
-0.37
0.99
1.37
1.24
1.17
1.66
3.01
5.24
8.17
11.51
15.05
18.64
22.11
25.23
27.72
29.40
30.27
30.51
30.37
29.99
29.28
28.04
26.07
23.33
20.01
16.41
12.78
9.28
5.93
2.67
-0.53
-3.68
-6.75
-9.66
-12.38
-14.90
-17.20
-19.37
-21.46
-23.52
-25.58
-27.69
-29.97
-32.65
-35.99
-40.11
-44.82
-49.47
-53.04
-54.41
-52.80
-47.98
-40.51
-31.48
-22.19
-13.72
-6.71
-1.22
2.97
6.24
8.87
10.90
12.26
12.86
12.78
12.30
11.83
11.77
12.37
13.64
15.36
17.21
18.88
20.18
21.05
21.47
21.43
20.88
19.75
18.00
15.69
12.97
10.04
7.07
4.22
1.56
-0.90
-3.15
-5.32
-7.52
-9.89
-12.54
-15.48
-18.61
-21.81
-24.93
-27.87
-30.61
-33.27
-36.06
-39.32
-43.36
-48.35
-54.11
-60.04
-65.15
-68.25
-68.34
-64.96
-58.31
-49.25
-39.01
-28.80
-19.56
-11.83
-5.80
-1.42
1.46
3.01
3.45
3.04
2.07
0.86
-0.27
-1.07
-1.33
-0.98
-0.07
1.27
2.90
4.70
6.69
9.04
11.88
15.27
19.16
23.29
27.42
31.32
34.87
37.99
40.52
42.18
42.60
41.48
38.65
34.25
28.69
22.55
16.43
10.77
5.82
1.54
-2.31
-6.09
-10.24
-15.20
-21.33
-28.77
-37.28
-46.11
-54.04
-59.60
-61.48
-58.94
-52.11
-41.99
-30.11
-18.11
-7.28
1.65
8.54
13.54
16.98
19.08
20.06
20.18
19.83
19.49
19.67
20.73
22.68
25.23
27.93
30.33
32.20
33.55
34.50
35.15
35.44
35.15
34.01
31.85
28.72
24.86
20.69
16.58
12.82
9.48
6.47
3.63
0.75
-2.28
-5.50
-8.83
-12.14
-15.25
-18.06
-20.61
-23.15
-26.14
-30.19
-35.71
-42.72
-50.54
-57.78
-62.66
-63.52
-59.44
-50.52
-37.98
-23.64
-9.44
3.14
13.33
21.04
26.60
30.44
32.90
34.21
34.58
34.22
33.47
32.69
32.21
32.32
33.10
34.49
36.23
37.99
39.41
40.23
40.30
39.59
38.13
36.00
33.31
30.18
26.77
23.25
19.68
16.06
12.29
8.32
4.20
0.11
-3.72
-7.09
-9.94
-12.36
-14.58
-16.91
-19.72
-23.38
-28.13
-33.90
-40.10
-45.60
-48.89
-48.56
-43.76
-34.67
-22.44
-8.97
3.80
14.39
22.14
27.22
30.25
31.92
32.68
32.69
32.00
30.68
29.00
27.41
26.35
26.15
26.90
28.41
30.33
32.19
33.56
34.13
33.73
32.32
30.04
27.15
23.96
20.80
17.93
15.50
13.43
11.48
9.30
6.58
3.13
-1.00
-5.56
-10.26
-14.90
-19.52
-24.40
-29.91
-36.22
-43.06
-49.60
-54.61
-56.74
-55.03
-49.22
-39.89
-28.32
-16.07
-4.55
5.24
12.90
18.45
22.19
24.48
25.63
25.95
25.73
25.33
25.12
25.46
26.49
28.14
30.08
31.86
33.11
33.66
33.62
33.25
32.80
32.27
31.50
30.09
27.77
24.48
20.47
16.20
12.15
8.68
5.90
3.69
1.81
-0.05
-2.13
-4.57
-7.38
-10.45
-13.63
-16.76
-19.75
-22.62
-25.47
-28.56
-32.18
-36.66
-42.12
-48.30
-54.37
-59.00
-60.70
-58.29
-51.37
-40.60
-27.51
-14.00
-1.75
8.17
15.50
20.56
23.95
26.26
27.92
29.21
30.30
31.37
32.57
34.00
35.69
37.57
39.48
41.20
42.57
43.43
43.72
43.38
42.42
40.89
38.87
36.50
33.89
31.11
28.19
25.13
22.00
18.91
16.07
13.66
11.81
10.51
9.55
8.63
7.43
5.75
3.56
1.03
-1.56
-3.92
-5.91
-7.56
-9.16
-11.08
-13.75
-17.45
-22.22
-27.71
-33.15
-37.42
-39.24
-37.60
-32.12
-23.29
-12.42
-1.32
8.31
15.25
19.08
20.17
19.46
18.02
16.76
16.18
16.29
16.80
17.38
17.82
18.19
18.66
19.42
20.43
21.48
22.32
22.76
22.75
22.31
21.45
20.06
18.00
15.18
11.64
7.58
3.27
-1.02
-5.08
-8.75
-11.92
-14.56
-16.73
-18.59
-20.36
-22.23
-24.27
-26.41
-28.50
-30.37
-31.94
-33.30
-34.68
-36.46
-39.08
-42.90
-48.09
-54.44
-61.24
-67.30
-71.17
-71.51
-67.53
-59.34
-47.95
-35.06
-22.51
-11.84
-3.86
1.28
4.07
5.22
5.43
5.25
5.03
5.00
5.33
6.13
7.42
9.11
11.02
12.92
14.62
16.01
17.03
17.65
17.78
17.27
15.98
13.90
11.13
7.91
4.43
0.84
-2.88
-6.77
-10.79
-14.79
-18.51
-21.75
-24.48
-26.89
-29.34
-32.20
-35.79
-40.25
-45.57
-51.48
-57.45
-62.60
-65.81
-65.98
-62.39
-55.01
-44.57
-32.39
-19.99
-8.59
1.07
8.76
14.58
18.78
21.56
23.11
23.67
23.60
23.39
23.55
24.49
26.41
29.21
32.55
35.93
38.85
40.90
41.85
41.71
40.62
38.87
36.70
34.27
31.63
28.78
25.71
22.53
19.43
16.65
14.29
12.32
10.52
8.58
6.25
3.43
0.23
-3.11
-6.33
-9.25
-11.83
-14.21
-16.65
-19.50
-23.15
-27.88
-33.75
-40.47
-47.30
-53.01
-56.14
-55.37
-49.99
-40.24
-27.32
-13.09
0.55
12.11
20.87
26.86
30.61
32.79
33.99
34.62
34.90
34.99
34.96
34.86
34.69
34.41
34.00
33.48
32.96
32.55
32.41
32.59
33.03
33.50
33.66
33.15
31.66
29.08
25.49
21.16
16.48
11.79
7.34
3.13
-0.94
-5.05
-9.27
-13.52
-17.58
-21.16
-24.05
-26.20
-27.72
-28.76
-29.51
-30.11
-30.67
-31.30
-32.17
-33.47
-35.38
-38.11
-41.84
-46.66
-52.42
-58.47
-63.68
-66.51
-65.51
-59.84
-49.70
-36.32
-21.60
-7.50
4.55
13.86
20.52
25.04
28.02
29.95
31.16
31.87
32.26
32.49
32.74
33.14
33.77
34.59
35.49
36.30
36.89
37.20
37.26
37.11
36.75
36.05
34.83
32.94
30.34
27.13
23.47
19.53
15.39
11.13
6.88
2.87
-0.62
-3.42
-5.57
-7.37
-9.35
-12.03
-15.84
-20.91
-27.00
-33.40
-39.05
-42.64
-42.94
-39.22
-31.49
-20.61
-8.02
4.66
16.09
25.44
32.47
37.33
40.35
41.85
42.06
41.17
39.37
36.91
34.09
31.22
28.59
26.39
24.69
23.45
22.61
22.09
21.83
21.79
21.82
21.62
20.81
19.00
15.96
11.86
7.11
2.33
-1.96
-5.51
-8.42
-11.03
-13.68
-16.57
-19.62
-22.59
-25.17
-27.17
-28.58
-29.66
-30.91
-32.94
-36.34
-41.37
-47.71
-54.32
-59.65
-62.02
-60.23
-53.99
-44.02
-31.86
-19.29
-7.84
1.55
8.59
13.49
16.69
18.67
19.87
20.55
20.90
21.04
21.10
21.21
21.53
22.13
23.02
24.03
24.98
25.68
26.04
26.08
25.88
25.49
24.90
23.99
22.62
20.66
18.10
15.07
11.81
8.65
5.85
3.57
1.76
0.22
-1.34
-3.18
-5.42
-8.06
-10.92
-13.79
-16.46
-18.84
-20.94
-22.97
-25.28
-28.30
-32.45
-37.95
-44.54
-51.35
-56.97
-59.72
-58.27
-52.11
-41.79
-28.81
-15.11
-2.43
8.14
16.19
21.83
25.32
26.90
26.75
25.17
22.66
19.88
17.55
16.14
15.82
16.40
17.53
18.84
20.09
21.19
22.21
23.21
24.21
25.16
25.85
26.05
25.51
24.10
21.86
19.00
15.85
12.72
9.85
7.25
4.83
2.37
-0.31
-3.31
-6.58
-9.94
-13.15
-15.96
-18.30
-20.24
-22.07
-24.17
-26.95
-30.74
-35.65
-41.45
-47.53
-52.83
-56.07
-56.12
-52.28
-44.68
-34.23
-22.42
-10.84
-0.73
7.21
12.86
16.43
18.32
18.89
18.51
17.49
16.16
14.83
13.75
13.11
12.98
13.31
14.00
14.84
15.67
16.35
16.87
17.21
17.33
17.10
16.25
14.54
11.79
8.07
3.69
-0.89
-5.22
-9.01
-12.24
-15.06
-17.77
-20.67
-24.03
-28.08
-32.89
-38.26
-43.60
-47.92
-50.01
-48.83
-43.95
-35.72
-25.29
-14.18
-3.87
4.72
11.22
15.78
18.68
20.19
20.43
19.55
17.80
15.65
13.67
12.35
11.97
12.45
13.49
14.72
15.83
16.68
17.28
17.64
17.69
17.22
15.98
13.71
10.31
5.84
0.57
-5.04
-10.54
-15.50
-19.74
-23.29
-26.46
-29.72
-33.60
-38.43
-44.22
-50.49
-56.25
-60.21
-61.12
-58.11
-51.06
-40.65
-28.20
-15.31
-3.42
6.49
14.00
19.18
22.40
24.14
24.88
25.02
24.88
24.67
24.52
24.53
24.75
25.27
26.15
27.41
28.90
30.35
31.46
31.93
31.60
30.46
28.63
26.24
23.39
20.17
16.61
12.78
8.78
4.68
0.47
-3.83
-8.26
-12.78
-17.22
-21.45
-25.35
-28.99
-32.70
-36.95
-42.19
-48.55
-55.54
-61.96
-66.14
-66.40
-61.74
-52.25
-39.21
-24.69
-10.79
0.96
9.98
16.46
21.06
24.42
26.98
29.00
30.59
31.94
33.20
34.53
35.98
37.52
39.07
40.55
41.92
43.13
44.06
44.61
44.66
44.16
43.11
41.56
39.55
37.14
34.36
31.26
27.87
24.30
20.68
17.23
14.15
11.52
9.27
7.17
4.88
2.10
-1.32
-5.28
-9.55
-13.82
-17.86
-21.56
-24.92
-28.07
-31.27
-34.94
-39.52
-45.34
-52.31
-59.64
-65.87
-69.17
-67.96
-61.47
-50.17
-35.66
-20.13
-5.65
6.39
15.55
22.09
26.68
29.96
32.37
34.17
35.56
36.75
37.97
39.34
40.81
42.17
43.13
43.56
43.48
43.16
42.85
42.75
42.78
42.69
42.10
40.74
38.52
35.60
32.29
28.93
25.72
22.72
19.86
17.06
14.26
11.52
8.89
6.46
4.20
1.99
-0.36
-3.01
-6.03
-9.34
-12.75
-16.08
-19.18
-22.10
-25.00
-28.18
-31.96
-36.56
-42.00
-48.01
-53.89
-58.52
-60.64
-59.11
-53.39
-43.84
-31.65
-18.56
-6.32
3.81
11.25
16.12
18.92
20.23
20.55
20.21
19.48
18.61
17.89
17.57
17.85
18.77
20.24
22.06
23.95
25.66
26.97
27.75
27.89
27.30
25.90
23.72
20.89
17.64
14.30
11.06
8.02
5.11
2.25
-0.65
-3.57
-6.44
-9.15
-11.66
-13.96
-16.08
-18.12
-20.25
-22.80
-26.10
-30.34
-35.23
-39.98
-43.36
-44.05
-41.21
-34.80
-25.63
-15.11
-4.70
4.43
11.73
17.11
20.83
23.10
24.09
23.90
22.70
20.90
19.07
17.83
17.63
18.58
20.41
22.56
24.44
25.62
26.02
25.79
25.21
24.49
23.62
22.41
20.59
18.01
14.73
11.03
7.32
4.00
1.23
-1.03
-3.08
-5.28
-7.94
-11.16
-14.81
-18.53
-21.92
-24.67
-26.69
-28.18
-29.57
-31.40
-34.21
-38.31
-43.58
-49.35
-54.45
-57.46
-57.15
-52.86
-44.91
-34.40
-22.91
-12.00
-2.71
4.51
9.79
13.48
15.99
17.66
18.78
19.63
20.47
21.49
22.74
24.10
25.42
26.49
27.25
27.73
28.01
28.20
28.34
28.42
28.34
27.96
27.11
25.65
23.52
20.78
17.63
14.33
11.09
8.05
5.20
2.43
-0.33
-3.13
-5.94
-8.70
-11.38
-13.97
-16.47
-18.83
-21.02
-22.96
-24.70
-26.39
-28.28
-30.65
-33.80
-37.93
-43.11
-49.11
-55.22
-60.35
-63.12
-62.32
-57.34
-48.50
-37.02
-24.66
-13.16
-3.75
3.07
7.53
10.25
11.89
13.01
13.89
14.69
15.48
16.36
17.45
18.89
20.71
22.81
24.99
26.97
28.52
29.49
29.87
29.72
29.16
28.24
26.95
25.21
22.88
19.93
16.46
12.74
9.11
5.84
3.09
0.76
-1.41
-3.70
-6.31
-9.25
-12.37
-15.44
-18.23
-20.59
-22.51
-24.15
-25.80
-27.86
-30.72
-34.68
-39.77
-45.67
-51.62
-56.52
-59.14
-58.45
-53.93
-45.86
-35.27
-23.71
-12.74
-3.55
3.34
8.00
10.88
12.47
13.18
13.26
12.96
12.58
12.44
12.84
13.89
15.52
17.49
19.52
21.36
22.85
23.89
24.40
24.38
23.76
22.56
20.76
18.36
15.39
11.95
8.16
4.17
0.21
-3.57
-7.04
-10.12
-12.86
-15.33
-17.70
-20.17
-22.96
-26.26
-30.20
-34.71
-39.44
-43.69
-46.46
-46.73
-43.78
-37.56
-28.78
-18.74
-8.90
-0.40
6.23
11.09
14.58
17.06
18.68
19.32
18.92
17.63
15.96
14.58
14.17
15.00
16.94
19.45
21.83
23.50
24.19
23.95
23.04
21.74
20.18
18.29
15.84
12.63
8.60
3.94
-0.96
-5.60
-9.60
-12.79
-15.27
-17.37
-19.49
-22.03
-25.29
-29.45
-34.51
-40.23
-45.95
-50.62
-52.91
-51.72
-46.53
-37.78
-26.70
-14.96
-4.04
5.12
12.26
17.62
21.58
24.48
26.49
27.74
28.38
28.64
28.78
29.06
29.63
30.54
31.78
33.25
34.79
36.23
37.38
38.05
38.09
37.34
35.69
33.12
29.76
25.92
21.99
18.33
15.15
12.39
9.78
6.93
3.55
-0.39
-4.67
-8.89
-12.68
-15.84
-18.48
-20.92
-23.64
-27.09
-31.67
-37.47
-44.20
-51.07
-56.80
-59.83
-58.85
-53.25
-43.46
-30.90
-17.52
-5.14
5.10
12.88
18.57
22.79
26.08
28.68
30.63
31.96
32.80
33.39
34.02
34.88
35.99
37.25
38.48
39.54
40.35
40.86
41.05
40.89
40.32
39.30
37.81
35.82
33.37
30.48
27.24
23.81
20.38
17.13
14.18
11.50
8.93
6.26
3.33
0.12
-3.21
-6.45
-9.43
-12.08
-14.52
-16.98
-19.71
-22.97
-26.95
-31.78
-37.44
-43.56
-49.37
-53.67
-55.16
-52.88
-46.61
-37.02
-25.50
-13.68
-2.90
6.03
12.93
17.98
21.51
23.77
24.97
25.32
25.16
24.91
24.96
25.56
26.69
28.11
29.49
30.55
31.19
31.47
31.58
31.62
31.58
31.25
30.34
28.62
26.02
22.69
18.93
15.11
11.52
8.36
5.66
3.32
1.14
-1.11
-3.60
-6.36
-9.25
-12.07
-14.59
-16.78
-18.83
-21.19
-24.31
-28.51
-33.72
-39.32
-44.32
-47.47
-47.66
-44.30
-37.49
-28.08
-17.45
-7.11
1.78
8.57
13.22
16.08
17.54
17.90
17.29
15.82
13.76
11.61
10.03
9.53
10.31
12.14
14.47
16.61
18.08
18.71
18.65
18.19
17.52
16.66
15.41
13.50
10.73
7.13
2.98
-1.28
-5.19
-8.43
-10.98
-13.12
-15.26
-17.83
-21.13
-25.21
-29.86
-34.62
-38.80
-41.58
-42.14
-39.89
-34.69
-27.00
-17.80
-8.38
0.11
6.92
11.89
15.22
17.30
18.39
18.59
17.90
16.44
14.55
12.71
11.44
11.06
11.56
12.66
13.88
14.80
15.14
14.81
13.90
12.58
11.01
9.24
7.26
4.98
2.30
-0.78
-4.12
-7.51
-10.74
-13.63
-16.15
-18.36
-20.40
-22.47
-24.79
-27.61
-31.15
-35.40
-39.98
-44.02
-46.39
-45.94
-41.99
-34.67
-24.89
-14.15
-4.01
4.32
10.27
13.99
16.02
17.08
17.71
18.18
18.51
18.59
18.37
17.91
17.42
17.12
17.23
17.92
19.26
21.19
23.41
25.33
26.22
25.46
22.92
19.26
15.79
14.03
15.08
19.14
25.50
32.91
40.24
46.93
53.17
59.47
66.18
73.00
78.97
82.70
82.91
78.77
70.24
58.10
43.97
30.23
19.76
15.29
18.50
29.22
44.98
61.61
74.57
80.65
79.10
71.73
61.85
52.63
45.76
41.09
37.29
32.95
27.49
21.36
15.54
10.90
7.72
5.81
4.90
5.00
6.40
9.38
13.75
18.73
23.22
26.14
26.95
25.61
22.53
18.18
12.95
7.09
0.76
-5.84
-12.46
-18.69
-23.92
-27.27
-27.71
-24.46
-17.43
-7.64
2.94
12.09
18.28
21.41
22.97
25.42
31.17
41.59
56.57
74.74
94.07
112.68
129.18
142.85
153.45
161.09
166.22
169.73
173.04
177.79
185.39
196.27
209.46
222.68
232.97
237.80
235.87
227.55
214.45
198.62
181.80
164.91
148.24
131.74
115.49
99.69
84.51
69.73
54.64
38.07
18.77
-4.06
-30.38
-59.09
-88.11
-114.86
-136.78
-151.93
-159.41
-159.60
-153.99
-144.87
-134.74
-125.73
-119.16
-115.42
-114.09
-114.43
-115.83
-118.14
-121.68
-126.89
-134.00
-142.78
-152.67
-163.09
-173.73
-184.67
-196.29
-209.03
-223.19
-238.85
-255.91
-274.17
-293.31
-312.99
-332.83
-352.39
-371.20
-388.77
-404.58
-418.20
-429.38
-438.01
-444.17
-447.79
-448.54
-445.63
-437.89
-423.97
-402.74
-373.69
-337.20
-294.64
-248.24
-200.73
-154.92
-113.28
-77.70
-49.29
-28.32
-14.40
-6.46
-2.94
-1.98
-1.72
-0.55
2.69
8.73
17.90
30.14
44.78
60.28
74.06
82.79
83.32
73.64
53.94
26.99
-2.43
-28.70
-46.87
-53.99
-49.44
-34.48
-11.26
18.14
51.85
87.67
122.32
151.23
169.39
172.90
160.38
133.43
95.88
52.32
6.88
-37.06
-76.51
-108.30
-129.24
-137.02
-131.36
-114.44
-90.49
-64.45
-40.70
-22.22
-10.30
-4.77
-4.37
-7.34
-12.03
-17.50
-23.67
-30.88
-39.22
-47.95
-55.67
-61.13
-64.04
-65.44
-66.85
-69.16
-71.68
-72.22
-68.24
-58.29
-42.81
-23.99
-4.67
12.88
27.70
40.22
51.65
63.22
75.62
88.85
102.54
116.30
130.15
144.52
160.07
177.06
194.97
212.35
227.15
237.36
241.74
240.03
232.81
220.87
204.80
184.83
161.16
134.48
106.28
78.83
54.61
35.47
22.03
13.48
8.09
4.05
0.31
-3.06
-5.12
-4.62
-0.79
6.30
15.79
26.49
37.39
48.00
58.28
68.30
77.87
86.40
93.04
97.11
98.44
97.48
95.14
92.39
89.98
88.18
86.86
85.68
84.37
82.82
81.08
79.20
77.05
74.31
70.55
65.48
59.06
51.59
43.56
35.55
28.02
21.20
15.05
9.26
3.28
-3.48
-11.46
-20.54
-29.86
-37.86
-42.65
-42.58
-36.89
-25.95
-11.16
5.46
21.91
36.64
48.78
58.04
64.55
68.59
70.46
70.44
68.81
66.00
62.49
58.86
55.60
53.04
51.24
50.00
49.03
47.99
46.65
44.87
42.51
39.48
35.70
31.16
25.97
20.31
14.39
8.38
2.33
-3.85
-10.35
-17.31
-24.59
-31.67
-37.50
-40.74
-40.14
-35.00
-25.52
-12.83
1.32
15.09
27.04
36.44
43.19
47.59
50.03
50.85
50.36
48.85
46.74
44.47
42.45
40.90
39.89
39.28
38.91
38.66
38.48
38.28
37.90
36.97
35.08
31.82
27.10
21.18
14.63
8.12
2.13
-3.20
-8.09
-13.02
-18.48
-24.81
-32.09
-39.93
-47.49
-53.52
-56.59
-55.48
-49.66
-39.54
-26.43
-12.20
1.29
12.67
21.39
27.54
31.67
34.33
35.91
36.60
36.48
35.64
34.33
32.90
31.73
31.09
31.06
31.50
32.13
32.65
32.77
32.37
31.38
29.85
27.84
25.36
22.35
18.66
14.15
8.79
2.77
-3.49
-9.47
-14.71
-18.98
-22.33
-25.05
-27.64
-30.63
-34.51
-39.55
-45.59
-51.95
-57.40
-60.45
-59.79
-54.79
-45.78
-33.97
-21.04
-8.65
1.99
10.33
16.32
20.28
22.62
23.74
24.00
23.67
23.03
22.32
21.78
21.54
21.70
22.18
22.84
23.49
23.94
24.12
24.00
23.59
22.78
21.50
19.58
16.94
13.61
9.76
5.64
1.50
-2.48
-6.27
-9.92
-13.48
-16.96
-20.27
-23.28
-25.92
-28.25
-30.52
-33.13
-36.51
-40.97
-46.50
-52.58
-58.18
-61.93
-62.48
-58.96
-51.38
-40.67
-28.46
-16.51
-6.14
2.01
7.98
12.20
15.09
16.88
17.61
17.37
16.37
15.04
13.88
13.25
13.28
13.84
14.65
15.47
16.16
16.75
17.32
17.90
18.42
18.67
18.36
17.25
15.22
12.32
8.82
5.08
1.46
-1.76
-4.55
-7.08
-9.66
-12.58
-15.95
-19.65
-23.38
-26.81
-29.80
-32.37
-34.75
-37.32
-40.44
-44.48
-49.55
-55.43
-61.39
-66.21
-68.45
-66.95
-61.32
-52.15
-40.90
-29.36
-19.02
-10.71
-4.60
-0.52
1.74
2.27
1.15
-1.39
-4.77
-8.20
-10.91
-12.34
-12.32
-11.02
-8.82
-6.11
-3.28
-0.62
1.61
3.28
4.34
4.78
4.70
4.15
3.18
1.75
-0.26
-2.98
-6.57
-11.09
-16.46
-22.39
-28.37
-33.81
-38.25
-41.48
-43.71
-45.45
-47.27
-49.56
-52.26
-54.75
-56.12
-55.38
-51.80
-45.20
-35.85
-24.46
-11.84
1.20
14.02
26.10
37.05
46.55
54.38
60.48
65.02
68.36
70.99
73.42
76.06
79.14
82.73
86.72
90.86
94.82
98.24
100.71
101.87
101.39
99.04
94.81
88.91
81.86
74.32
67.02
60.50
54.99
50.31
45.94
41.18
35.31
27.89
18.92
8.92
-1.08
-9.79
-16.01
-19.08
-19.10
-16.90
-13.72
-10.74
-8.69
-7.73
-7.60
-7.93
-8.49
-9.34
-10.67
-12.63
-15.16
-17.92
-20.41
-22.17
-22.92
-22.61
-21.42
-19.65
-17.61
-15.58
-13.79
-12.42
-11.63
-11.60
-12.55
-14.68
-18.11
-22.79
-28.38
-34.33
-39.96
-44.70
-48.29
-50.82
-52.76
-54.76
-57.52
-61.59
-67.29
-74.44
-82.25
-89.29
-93.79
-94.18
-89.68
-80.66
-68.57
-55.44
-43.20
-33.14
-25.65
-20.47
-17.04
-14.85
-13.54
-12.92
-12.82
-12.98
-13.09
-12.76
-11.69
-9.77
-7.10
-4.07
-1.19
1.07
2.42
2.85
2.57
1.80
0.64
-0.98
-3.26
-6.36
-10.34
-15.02
-20.12
-25.25
-30.06
-34.19
-37.40
-39.58
-40.81
-41.49
-42.31
-44.14
-47.74
-53.39
-60.55
-67.85
-73.38
-75.37
-72.85
-66.04
-56.32
-45.73
-36.27
-29.36
-25.50
-24.32
-24.74
-25.36
-24.61
-21.19
-14.34
-4.13
8.40
21.50
33.22
42.01
47.16
48.91
48.13
45.85
42.93
40.00
37.56
36.17
36.47
38.95
43.55
49.47
55.13
58.60
58.15
52.76
42.41
28.01
11.13
-6.36
-22.63
-36.26
-46.39
-52.81
-55.85
-56.07
-53.98
-49.81
-43.59
-35.42
-25.77
-15.57
-6.00
1.93
7.79
11.78
14.56
16.75
18.56
19.80
20.06
19.22
17.55
15.74
14.53
14.41
15.40
17.13
19.07
20.75
21.96
22.65
22.86
22.54
21.55
19.69
16.81
12.96
8.35
3.34
-1.68
-6.37
-10.56
-14.25
-17.57
-20.80
-24.21
-27.93
-31.79
-35.18
-37.13
-36.51
-32.42
-24.56
-13.47
-0.40
12.99
25.20
35.28
42.91
48.30
51.85
53.88
54.53
53.93
52.28
50.00
47.68
45.82
44.72
44.35
44.42
44.56
44.44
43.81
42.52
40.37
37.15
32.71
27.06
20.44
13.32
6.28
-0.15
-5.67
-10.28
-14.35
-18.44
-23.22
-29.08
-35.91
-42.94
-48.82
-51.90
-50.81
-44.94
-34.72
-21.52
-7.26
6.23
17.62
26.36
32.56
36.69
39.29
40.79
41.44
41.40
40.91
40.22
39.67
39.50
39.82
40.52
41.38
42.11
42.44
42.22
41.36
39.84
37.69
35.00
31.88
28.44
24.74
20.78
16.56
12.16
7.74
3.56
-0.16
-3.33
-6.06
-8.67
-11.53
-14.95
-19.23
-24.51
-30.82
-37.88
-45.00
-51.00
-54.43
-53.95
-48.89
-39.58
-27.30
-13.96
-1.42
8.99
16.79
22.23
25.97
28.68
30.76
32.32
33.30
33.63
33.44
33.01
32.69
32.71
33.10
33.65
34.08
34.19
34.00
33.65
33.34
33.10
32.73
31.84
30.06
27.26
23.58
19.47
15.48
12.08
9.49
7.58
5.98
4.21
1.91
-1.04
-4.50
-8.14
-11.58
-14.51
-16.83
-18.67
-20.39
-22.51
-25.64
-30.24
-36.40
-43.60
-50.65
-55.88
-57.65
-54.92
-47.67
-36.93
-24.46
-12.10
-1.25
7.44
14.00
18.86
22.49
25.19
27.08
28.24
28.81
29.00
29.11
29.33
29.73
30.25
30.69
30.87
30.67
30.04
29.05
27.86
26.56
25.17
23.58
21.59
19.01
15.78
12.00
7.96
4.07
0.63
-2.19
-4.51
-6.59
-8.77
-11.25
-14.07
-17.03
-19.89
-22.44
-24.58
-26.41
-28.19
-30.24
-32.93
-36.55
-41.22
-46.77
-52.61
-57.67
-60.67
-60.39
-56.21
-48.30
-37.72
-26.04
-14.85
-5.34
2.04
7.39
11.12
13.67
15.25
15.98
15.93
15.35
14.62
14.20
14.40
15.36
16.90
18.69
20.33
21.52
22.10
22.05
21.37
20.08
18.18
15.70
12.75
9.58
6.45
3.57
0.96
-1.56
-4.24
-7.24
-10.50
-13.75
-16.67
-19.08
-21.08
-23.02
-25.41
-28.70
-33.17
-38.75
-44.93
-50.81
-55.19
-56.81
-54.78
-48.86
-39.66
-28.54
-17.13
-6.92
1.18
6.94
10.65
12.84
13.99
14.41
14.29
13.78
13.10
12.55
12.39
12.78
13.70
14.93
16.22
17.34
18.20
18.81
19.29
19.63
19.75
19.42
18.35
16.37
13.51
10.11
6.65
3.67
1.43
-0.15
-1.47
-3.08
-5.39
-8.50
-12.20
-16.07
-19.69
-22.82
-25.46
-27.79
-30.17
-33.04
-36.88
-41.98
-48.25
-54.98
-60.94
-64.54
-64.39
-59.81
-51.06
-39.34
-26.32
-13.67
-2.66
6.06
12.40
16.71
19.51
21.38
22.74
23.88
24.91
25.83
26.62
27.30
27.94
28.63
29.39
30.14
30.73
31.06
31.08
30.84
30.42
29.84
28.99
27.72
25.84
23.26
20.06
16.52
13.01
9.87
7.23
4.97
2.78
0.28
-2.74
-6.29
-10.13
-13.91
-17.31
-20.19
-22.55
-24.56
-26.54
-28.94
-32.23
-36.80
-42.75
-49.60
-56.29
-61.28
-63.01
-60.39
-53.27
-42.53
-29.79
-16.92
-5.50
3.55
10.08
14.45
17.25
19.03
20.14
20.79
21.09
21.23
21.41
21.86
22.70
23.93
25.38
26.84
28.15
29.22
30.03
30.58
30.75
30.35
29.17
27.06
24.06
20.38
16.39
12.44
8.79
5.56
2.67
-0.09
-2.94
-6.06
-9.48
-13.09
-16.64
-19.93
-22.85
-25.52
-28.31
-31.73
-36.26
-42.00
-48.50
-54.67
-58.91
-59.70
-56.03
-47.86
-36.18
-22.72
-9.35
2.43
11.80
18.59
23.03
25.44
26.10
25.25
23.22
20.57
17.97
16.08
15.35
15.81
17.14
18.77
20.18
21.06
21.39
21.40
21.27
21.06
20.53
19.32
17.01
13.43
8.74
3.42
-1.93
-6.78
-10.89
-14.37
-17.57
-20.97
-24.95
-29.78
-35.50
-41.87
-48.27
-53.69
-56.85
-56.53
-52.01
-43.43
-31.90
-19.14
-6.94
3.34
11.13
16.48
19.78
21.39
21.51
20.24
17.82
14.75
11.76
9.59
8.74
9.22
10.59
12.19
13.38
13.83
13.57
12.86
11.98
10.96
9.54
7.28
3.81
-0.91
-6.51
-12.36
-17.79
-22.29
-25.69
-28.10
-29.86
-31.46
-33.43
-36.33
-40.45
-45.68
-51.25
-55.79
-57.72
-55.74
-49.28
-38.79
-25.55
-11.25
2.47
14.38
23.80
30.59
34.94
37.29
38.15
38.05
37.48
36.81
36.32
36.12
36.30
36.82
37.66
38.73
39.91
41.08
42.04
42.55
42.32
41.13
38.86
35.66
31.85
27.84
24.00
20.43
17.05
13.60
9.83
5.64
1.08
-3.63
-8.28
-12.68
-16.77
-20.65
-24.60
-29.02
-34.40
-41.10
-49.01
-57.42
-64.90
-69.69
-70.16
-65.46
-55.82
-42.61
-27.84
-13.51
-1.06
8.93
16.60
22.50
27.15
30.82
33.58
35.40
36.39
36.88
37.36
38.24
39.71
41.65
43.68
45.39
46.51
47.01
47.07
46.92
46.62
46.03
44.85
42.73
39.51
35.29
30.41
25.34
20.53
16.25
12.56
9.31
6.26
3.13
-0.31
-4.17
-8.41
-12.82
-17.13
-21.10
-24.66
-28.00
-31.49
-35.67
-40.99
-47.61
-55.22
-63.01
-69.68
-73.66
-73.54
-68.44
-58.40
-44.43
-28.38
-12.36
1.80
12.99
20.98
26.22
29.45
31.33
32.24
32.36
31.80
30.80
29.77
29.15
29.24
30.07
31.37
32.77
33.93
34.69
35.05
35.07
34.75
33.97
32.53
30.23
27.01
22.98
18.37
13.52
8.69
4.10
-0.16
-4.01
-7.43
-10.40
-12.92
-15.13
-17.26
-19.72
-22.98
-27.38
-32.86
-38.84
-44.13
-47.24
-46.83
-42.20
-33.62
-22.30
-9.99
1.55
11.03
17.95
22.46
25.07
26.35
26.69
26.29
25.28
23.89
22.48
21.47
21.25
21.92
23.31
25.03
26.58
27.55
27.78
27.27
26.19
24.64
22.63
20.01
16.63
12.46
7.65
2.61
-2.21
-6.38
-9.73
-12.31
-14.42
-16.41
-18.68
-21.49
-25.05
-29.45
-34.58
-40.07
-45.15
-48.73
-49.61
-46.90
-40.36
-30.60
-18.96
-7.10
3.51
12.01
18.21
22.50
25.40
27.36
28.57
29.04
28.86
28.25
27.64
27.49
28.05
29.29
30.91
32.51
33.83
34.86
35.72
36.52
37.17
37.40
36.85
35.28
32.77
29.70
26.62
24.04
22.21
21.06
20.23
19.27
17.88
16.06
14.20
12.85
12.46
13.07
14.09
14.41
12.65
7.57
-1.51
-14.54
-30.63
-48.10
-64.77
-78.29
-86.62
-88.56
-84.11
-74.45
-61.64
-48.04
-35.64
-25.67
-18.48
-13.70
-10.57
-8.35
-6.47
-4.66
-2.87
-1.15
0.51
2.18
4.00
6.08
8.41
10.86
13.17
15.10
16.52
17.41
17.86
17.94
17.66
16.92
15.60
13.67
11.26
8.65
6.25
4.39
3.16
2.38
1.59
0.32
-1.77
-4.66
-8.04
-11.44
-14.44
-16.87
-18.85
-20.73
-22.99
-26.07
-30.27
-35.68
-42.00
-48.46
-53.85
-56.77
-55.98
-50.92
-41.98
-30.46
-18.15
-6.80
2.40
9.06
13.49
16.34
18.25
19.58
20.41
20.76
20.68
20.44
20.37
20.79
21.86
23.49
25.46
27.50
29.40
30.99
32.14
32.66
32.33
30.97
28.49
24.97
20.71
16.08
11.50
7.30
3.64
0.51
-2.25
-4.85
-7.45
-10.09
-12.70
-15.17
-17.43
-19.50
-21.51
-23.67
-26.28
-29.66
-34.01
-39.21
-44.65
-49.20
-51.50
-50.35
-45.28
-36.76
-26.15
-15.19
-5.40
2.34
7.88
11.52
13.73
14.81
14.90
14.12
12.73
11.18
9.98
9.59
10.18
11.65
13.61
15.66
17.42
18.75
19.68
20.29
20.64
20.65
20.04
18.49
15.78
11.90
7.20
2.29
-2.18
-5.68
-8.03
-9.45
-10.46
-11.68
-13.66
-16.67
-20.61
-24.93
-28.64
-30.53
-29.41
-24.54
-15.88
-4.26
8.91
22.02
33.77
43.49
51.14
57.06
61.67
65.16
67.40
68.02
66.54
62.58
56.00
47.00
36.12
24.19
12.13
0.78
-9.17
-17.31
-23.50
-27.78
-30.44
-31.92
-32.81
-33.82
-35.57
-38.47
-42.62
-47.73
-53.27
-58.60
-63.14
-66.54
-68.70
-69.77
-70.12
-70.20
-70.47
-71.39
-73.28
-76.22
-79.94
-83.64
-86.16
-86.12
-82.43
-74.63
-63.12
-49.09
-34.19
-20.04
-7.85
1.81
8.99
14.13
17.84
20.67
22.99
25.01
26.84
28.58
30.30
32.09
33.96
35.86
37.70
39.38
40.86
42.10
43.05
43.53
43.32
42.13
39.82
36.46
32.33
27.88
23.49
19.39
15.53
11.66
7.51
2.92
-1.97
-6.84
-11.24
-14.88
-17.73
-20.13
-22.68
-26.11
-31.08
-37.91
-46.38
-55.53
-63.70
-68.85
-69.17
-63.75
-52.91
-38.27
-22.13
-6.75
6.31
16.46
23.92
29.28
33.07
35.64
37.13
37.73
37.77
37.62
37.65
38.07
38.85
39.81
40.78
41.61
42.35
43.06
43.79
44.45
44.76
44.37
42.88
40.12
36.18
31.45
26.51
21.91
17.96
14.63
11.55
8.21
4.19
-0.61
-5.90
-11.09
-15.63
-19.19
-21.87
-24.16
-26.82
-30.62
-36.07
-43.15
-51.16
-58.74
-64.12
-65.55
-61.92
-53.13
-40.26
-25.21
-10.17
3.08
13.53
20.98
25.79
28.51
29.62
29.51
28.55
27.20
26.00
25.45
25.84
27.17
29.12
31.18
32.86
33.85
34.03
33.52
32.48
31.04
29.25
26.99
24.10
20.40
15.86
10.62
5.03
-0.45
-5.41
-9.61
-13.01
-15.80
-18.28
-20.86
-23.95
-27.89
-32.87
-38.72
-44.76
-49.81
-52.44
-51.34
-45.86
-36.32
-23.93
-10.47
2.31
13.12
21.36
27.05
30.51
32.12
32.21
31.11
29.19
26.97
25.03
23.87
23.77
24.71
26.43
28.48
30.43
31.88
32.58
32.40
31.34
29.44
26.85
23.69
20.05
16.05
11.71
7.09
2.24
-2.70
-7.55
-12.06
-15.98
-19.16
-21.70
-23.95
-26.47
-29.91
-34.78
-41.18
-48.72
-56.41
-62.78
-66.30
-65.73
-60.54
-51.16
-38.88
-25.46
-12.61
-1.56
7.17
13.67
18.38
21.72
24.01
25.39
26.02
26.21
26.39
27.03
28.41
30.48
32.87
34.99
36.40
36.94
36.87
36.66
36.69
37.00
37.21
36.69
34.85
31.57
27.19
22.46
18.13
14.72
12.27
10.44
8.67
6.47
3.50
-0.21
-4.43
-8.79
-12.99
-16.87
-20.48
-24.05
-27.93
-32.51
-38.11
-44.82
-52.31
-59.65
-65.40
-67.88
-65.78
-58.68
-47.37
-33.57
-19.47
-6.87
3.22
10.71
16.14
20.19
23.39
25.95
27.93
29.38
30.48
31.46
32.52
33.73
34.96
36.03
36.78
37.21
37.43
37.59
37.72
37.72
37.37
36.43
34.78
32.48
29.71
26.67
23.47
20.17
16.82
13.55
10.58
8.10
6.13
4.44
2.60
0.18
-3.07
-7.02
-11.25
-15.25
-18.68
-21.53
-24.13
-27.01
-30.72
-35.64
-41.90
-49.22
-56.81
-63.40
-67.42
-67.45
-62.70
-53.40
-40.82
-26.94
-13.70
-2.53
6.00
12.08
16.29
19.17
21.06
22.13
22.52
22.54
22.61
23.09
24.18
25.72
27.35
28.64
29.36
29.55
29.50
29.55
29.87
30.36
30.59
30.06
28.34
25.31
21.22
16.64
12.21
8.46
5.61
3.48
1.64
-0.39
-2.96
-6.14
-9.70
-13.25
-16.39
-18.96
-21.05
-22.98
-25.25
-28.39
-32.76
-38.42
-44.95
-51.39
-56.36
-58.42
-56.48
-50.23
-40.32
-28.17
-15.58
-4.17
5.06
11.77
16.23
18.94
20.36
20.78
20.33
19.16
17.57
16.00
14.95
14.80
15.64
17.25
19.18
20.93
22.12
22.51
22.07
20.84
18.91
16.43
13.54
10.41
7.18
3.92
0.62
-2.77
-6.31
-9.98
-13.69
-17.26
-20.49
-23.29
-25.76
-28.17
-30.97
-34.61
-39.40
-45.24
-51.52
-57.09
-60.50
-60.44
-56.16
-47.77
-36.30
-23.34
-10.61
0.59
9.55
16.20
20.82
23.76
25.28
25.59
24.96
23.84
22.81
22.39
22.86
24.17
25.97
27.84
29.42
30.57
31.31
31.75
31.94
31.79
31.07
29.54
27.03
23.58
19.44
15.06
10.91
7.29
4.27
1.58
-1.15
-4.31
-8.04
-12.19
-16.36
-20.11
-23.15
-25.49
-27.46
-29.63
-32.65
-37.08
-43.19
-50.70
-58.69
-65.56
-69.42
-68.63
-62.36
-51.04
-36.22
-20.13
-4.91
8.02
18.17
25.85
31.73
36.40
40.19
43.23
45.53
47.27
48.76
50.43
52.66
55.64
59.29
63.23
66.89
69.65
70.98
70.56
68.20
63.89
57.70
49.81
40.59
30.55
20.27
10.40
1.47
-6.18
-12.35
-17.05
-20.40
-22.70
-24.34
-25.80
-27.52
-29.79
-32.64
-35.84
-39.04
-41.93
-44.38
-46.45
-48.41
-50.58
-53.33
-57.05
-61.99
-68.11
-74.84
-80.92
-84.62
-84.19
-78.49
-67.57
-52.74
-36.12
-20.00
-6.07
4.90
12.99
18.78
22.86
25.70
27.59
28.78
29.59
30.34
31.33
32.67
34.32
36.16
38.03
39.83
41.46
42.82
43.84
44.46
44.62
44.29
43.36
41.72
39.22
35.83
31.67
27.08
22.50
18.33
14.76
11.74
9.03
6.29
3.28
-0.15
-3.90
-7.79
-11.54
-14.90
-17.78
-20.24
-22.59
-25.25
-28.70
-33.35
-39.41
-46.69
-54.49
-61.56
-66.28
-67.07
-62.89
-53.71
-40.57
-25.35
-10.21
3.05
13.33
20.42
24.71
26.88
27.55
27.18
26.11
24.63
23.10
21.93
21.51
22.02
23.42
25.41
27.57
29.58
31.22
32.48
33.30
33.58
33.12
31.70
29.29
26.02
22.24
18.29
14.40
10.59
6.74
2.76
-1.33
-5.41
-9.31
-12.91
-16.20
-19.29
-22.39
-25.76
-29.71
-34.51
-40.22
-46.45
-52.22
-56.10
-56.60
-52.69
-44.28
-32.38
-18.75
-5.37
6.14
14.93
20.84
24.22
25.65
25.61
24.56
22.88
20.96
19.23
18.03
17.60
17.97
19.03
20.54
22.21
23.80
25.13
26.06
26.45
26.17
25.10
23.23
20.59
17.42
13.97
10.48
7.07
3.71
0.28
-3.39
-7.33
-11.46
-15.50
-19.19
-22.36
-25.01
-27.38
-29.81
-32.77
-36.66
-41.67
-47.65
-53.90
-59.18
-61.98
-60.92
-55.29
-45.43
-32.63
-18.83
-5.87
4.93
13.03
18.59
22.12
24.15
25.09
25.19
24.66
23.73
22.70
21.91
21.61
21.92
22.78
24.01
25.34
26.54
27.49
28.18
28.65
28.88
28.73
27.91
26.16
23.36
19.66
15.47
11.34
7.70
4.72
2.18
-0.35
-3.31
-6.95
-11.14
-15.52
-19.65
-23.19
-26.05
-28.40
-30.64
-33.25
-36.78
-41.65
-47.90
-55.05
-61.91
-66.79
-67.95
-64.20
-55.40
-42.62
-27.82
-13.22
-0.58
9.18
16.07
20.64
23.59
25.46
26.46
26.69
26.29
25.57
24.97
24.89
25.60
27.01
28.80
30.54
31.87
32.68
33.07
33.24
33.33
33.26
32.72
31.33
28.76
24.98
20.27
15.17
10.30
6.11
2.77
0.07
-2.44
-5.21
-8.48
-12.17
-15.98
-19.45
-22.30
-24.53
-26.45
-28.56
-31.41
-35.46
-40.93
-47.64
-54.89
-61.44
-65.70
-66.13
-61.76
-52.65
-39.94
-25.59
-11.70
0.04
8.84
14.72
18.30
20.29
21.24
21.45
21.06
20.23
19.21
18.43
18.29
19.06
20.75
23.09
25.61
27.84
29.41
30.17
30.12
29.37
28.01
26.09
23.62
20.56
16.94
12.81
8.35
3.76
-0.72
-4.89
-8.58
-11.74
-14.42
-16.80
-19.17
-21.83
-25.13
-29.33
-34.53
-40.40
-46.19
-50.69
-52.57
-50.75
-44.80
-35.22
-23.26
-10.57
1.28
11.19
18.69
23.84
26.96
28.45
28.60
27.75
26.27
24.67
23.48
23.18
23.96
25.70
28.03
30.41
32.39
33.73
34.39
34.45
33.95
32.84
30.97
28.26
24.74
20.66
16.35
12.07
7.89
3.73
-0.60
-5.19
-9.94
-14.54
-18.63
-21.93
-24.41
-26.34
-28.20
-30.57
-34.01
-38.87
-45.14
-52.24
-59.03
-63.92
-65.33
-62.12
-54.15
-42.35
-28.47
-14.56
-2.29
7.37
14.32
19.06
22.28
24.53
26.18
27.35
28.12
28.65
29.18
30.00
31.29
32.98
34.77
36.29
37.24
37.56
37.43
37.15
36.92
36.66
36.06
34.69
32.24
28.74
24.50
20.09
16.01
12.56
9.74
7.27
4.78
1.92
-1.48
-5.31
-9.29
-13.03
-16.21
-18.74
-20.89
-23.17
-26.22
-30.62
-36.64
-44.11
-52.28
-59.92
-65.47
-67.48
-64.99
-57.92
-47.10
-34.06
-20.61
-8.32
1.83
9.52
15.03
18.88
21.62
23.64
25.15
26.19
26.85
27.28
27.74
28.52
29.82
31.57
33.48
35.15
36.24
36.69
36.63
36.32
35.88
35.23
34.03
31.94
28.80
24.84
20.59
16.73
13.71
11.57
9.89
8.01
5.36
1.76
-2.54
-7.01
-11.06
-14.34
-16.86
-18.94
-21.09
-23.76
-27.36
-32.11
-38.08
-45.07
-52.43
-59.01
-63.33
-63.92
-59.92
-51.46
-39.71
-26.54
-13.85
-3.05
5.32
11.44
15.79
18.86
20.82
21.73
21.65
20.88
19.92
19.39
19.68
20.89
22.79
24.97
27.03
28.74
30.05
31.01
31.61
31.68
30.94
29.13
26.20
22.38
18.10
13.86
10.00
6.57
3.38
0.15
-3.30
-6.96
-10.62
-13.98
-16.84
-19.20
-21.32
-23.62
-26.63
-30.76
-36.21
-42.67
-49.31
-54.78
-57.54
-56.36
-50.73
-41.16
-29.05
-16.28
-4.58
4.98
12.16
17.31
21.06
23.83
25.75
26.69
26.61
25.77
24.73
24.18
24.64
26.21
28.56
31.10
33.24
34.62
35.21
35.17
34.72
33.99
32.96
31.47
29.34
26.46
22.88
18.85
14.70
10.83
7.48
4.72
2.36
0.10
-2.39
-5.32
-8.66
-12.21
-15.68
-18.78
-21.39
-23.59
-25.69
-28.16
-31.53
-36.24
-42.51
-50.10
-58.28
-65.73
-70.81
-71.98
-68.30
-59.84
-47.72
-33.76
-19.95
-7.86
1.73
8.83
13.97
17.82
20.90
23.47
25.61
27.37
28.82
30.08
31.29
32.52
33.76
34.95
36.07
37.13
38.21
39.39
40.56
41.49
41.88
41.42
40.02
37.78
34.95
31.85
28.70
25.57
22.48
19.37
16.22
13.07
10.01
7.08
4.33
1.72
-0.88
-3.65
-6.83
-10.53
-14.76
-19.31
-23.88
-28.13
-31.88
-35.16
-38.27
-41.68
-45.86
-51.11
-57.34
-63.95
-69.78
-73.36
-73.27
-68.65
-59.50
-46.88
-32.52
-18.39
-6.04
3.71
10.87
15.94
19.61
22.41
24.68
26.57
28.20
29.73
31.29
32.98
34.75
36.48
37.98
39.17
40.06
40.79
41.48
42.15
42.65
42.72
42.05
40.43
37.84
34.52
30.88
27.37
24.28
21.63
19.24
16.82
14.17
11.32
8.48
5.89
3.65
1.65
-0.41
-2.84
-5.81
-9.25
-12.94
-16.53
-19.85
-22.88
-25.85
-29.18
-33.37
-38.78
-45.37
-52.56
-59.14
-63.55
-64.35
-60.72
-52.84
-41.84
-29.46
-17.47
-7.13
1.00
6.96
11.14
13.90
15.51
16.13
16.00
15.48
15.00
14.95
15.47
16.52
17.91
19.44
21.04
22.69
24.38
25.99
27.27
27.89
27.55
26.06
23.46
19.97
16.01
12.04
8.44
5.41
2.89
0.59
-1.85
-4.66
-7.83
-11.07
-14.00
-16.38
-18.20
-19.77
-21.53
-24.00
-27.52
-32.19
-37.76
-43.54
-48.41
-51.08
-50.45
-45.97
-37.98
-27.56
-16.26
-5.54
3.61
10.77
16.01
19.55
21.62
22.30
21.71
20.11
17.99
15.96
14.60
14.28
14.98
16.39
18.02
19.43
20.41
20.97
21.30
21.53
21.59
21.25
20.20
18.24
15.40
11.98
8.40
5.00
1.89
-1.07
-4.20
-7.75
-11.80
-16.14
-20.40
-24.20
-27.29
-29.66
-31.60
-33.57
-36.16
-39.90
-45.05
-51.39
-58.09
-63.77
-66.83
-65.97
-60.66
-51.38
-39.52
-26.85
-14.97
-4.91
3.01
8.97
13.37
16.56
18.72
19.95
20.36
20.24
19.96
19.97
20.59
21.92
23.78
25.80
27.61
28.93
29.77
30.28
30.71
31.16
31.51
31.39
30.38
28.21
24.90
20.78
16.37
12.18
8.53
5.51
2.96
0.59
-1.91
-4.76
-8.03
-11.64
-15.36
-18.95
-22.19
-25.04
-27.67
-30.41
-33.69
-37.90
-43.31
-49.92
-57.38
-64.86
-71.11
-74.61
-74.09
-68.85
-59.21
-46.39
-32.21
-18.56
-6.85
2.23
8.72
13.14
16.17
18.40
20.21
21.77
23.19
24.52
25.86
27.35
29.09
31.08
33.24
35.43
37.44
39.15
40.45
41.30
41.65
41.43
40.52
38.83
36.27
32.90
28.91
24.63
20.43
16.67
13.53
10.96
8.76
6.56
4.01
0.89
-2.89
-7.14
-11.55
-15.80
-19.68
-23.17
-26.44
-29.78
-33.51
-37.94
-43.33
-49.81
-57.16
-64.70
-71.13
-74.83
-74.35
-68.93
-58.95
-45.78
-31.35
-17.56
-5.69
3.70
10.70
15.69
19.07
21.18
22.35
22.90
23.28
23.89
25.01
26.75
29.00
31.51
33.94
36.03
37.62
38.66
39.23
39.37
39.09
38.21
36.49
33.68
29.76
24.92
19.69
14.64
10.26
6.69
3.72
0.86
-2.39
-6.31
-10.78
-15.40
-19.69
-23.29
-26.17
-28.63
-31.18
-34.36
-38.63
-44.16
-50.77
-57.81
-64.12
-68.24
-68.77
-64.80
-56.35
-44.41
-30.70
-17.08
-5.03
4.68
11.99
17.27
20.97
23.39
24.65
24.91
24.41
23.62
23.11
23.33
24.47
26.37
28.63
30.86
32.78
34.30
35.42
36.10
36.19
35.42
33.54
30.44
26.30
21.50
16.53
11.78
7.48
3.57
-0.18
-4.03
-8.17
-12.51
-16.82
-20.76
-24.18
-27.13
-30.08
-33.69
-38.59
-45.02
-52.58
-60.15
-66.08
-68.66
-66.66
-59.79
-48.78
-35.18
-20.85
-7.40
4.10
13.28
20.23
25.33
28.92
31.34
32.86
33.77
34.39
35.02
35.91
37.18
38.82
40.68
42.52
44.13
45.34
46.10
46.46
46.46
46.10
45.21
43.51
40.76
36.89
32.10
26.94
22.02
17.85
14.58
11.92
9.35
6.29
2.38
-2.37
-7.61
-12.85
-17.68
-21.85
-25.44
-28.75
-32.29
-36.69
-42.50
-49.98
-58.80
-67.93
-75.66
-80.04
-79.51
-73.39
-62.28
-47.82
-32.14
-17.23
-4.36
6.03
14.16
20.57
25.71
29.90
33.29
36.04
38.37
40.58
42.92
45.44
48.05
50.48
52.44
53.75
54.43
54.64
54.60
54.47
54.26
53.73
52.55
50.39
47.07
42.70
37.62
32.35
27.41
23.16
19.68
16.84
14.27
11.55
8.35
4.48
0.07
-4.58
-9.03
-13.01
-16.45
-19.70
-23.33
-27.97
-34.08
-41.71
-50.35
-58.96
-66.04
-70.02
-69.64
-64.37
-54.54
-41.41
-26.75
-12.38
0.27
10.43
18.02
23.46
27.33
30.17
32.35
34.05
35.40
36.50
37.57
38.78
40.26
41.98
43.76
45.34
46.56
47.31
47.51
47.08
45.83
43.52
40.02
35.40
29.99
24.32
18.93
14.16
10.05
6.37
2.75
-1.08
-5.16
-9.33
-13.31
-16.90
-20.12
-23.23
-26.60
-30.61
-35.57
-41.55
-48.31
-55.18
-61.05
-64.55
-64.41
-59.96
-51.39
-39.82
-26.97
-14.53
-3.74
4.87
11.34
15.98
19.04
20.61
20.81
19.86
18.31
16.90
16.29
16.83
18.41
20.50
22.40
23.56
23.76
23.12
21.95
20.55
18.96
16.97
14.20
10.35
5.33
-0.63
-7.05
-13.33
-19.00
-23.81
-27.84
-31.43
-35.06
-39.26
-44.39
-50.50
-57.20
-63.62
-68.47
-70.40
-68.33
-61.88
-51.51
-38.49
-24.51
-11.21
0.20
9.19
15.78
20.40
23.57
25.76
27.34
28.57
29.65
30.77
32.04
33.53
35.25
37.08
38.89
40.50
41.75
42.50
42.60
41.92
40.38
37.93
34.66
30.75
26.43
21.95
17.41
12.84
8.21
3.49
-1.28
-5.97
-10.39
-14.42
-18.04
-21.43
-24.94
-29.05
-34.28
-40.95
-49.01
-57.83
-66.17
-72.38
-74.83
-72.40
-64.91
-53.24
-39.05
-24.28
-10.57
1.14
10.62
18.15
24.19
29.03
32.78
35.41
36.98
37.71
37.99
38.27
38.87
39.90
41.22
42.57
43.66
44.36
44.63
44.57
44.27
43.75
42.89
41.51
39.39
36.40
32.52
27.94
23.00
18.11
13.68
9.93
6.84
4.13
1.37
-1.87
-5.85
-10.56
-15.72
-20.93
-25.80
-30.14
-33.98
-37.60
-41.44
-46.02
-51.79
-58.92
-67.11
-75.42
-82.34
-86.03
-84.92
-78.21
-66.31
-50.78
-33.83
-17.72
-4.03
6.60
14.42
20.19
24.74
28.65
32.14
35.19
37.74
39.81
41.53
43.15
44.79
46.44
47.91
48.94
49.35
49.12
48.41
47.45
46.37
45.16
43.58
41.26
37.92
33.48
28.21
22.66
17.46
13.12
9.78
7.14
4.66
1.78
-1.79
-5.92
-10.20
-14.15
-17.46
-20.18
-22.65
-25.36
-28.84
-33.48
-39.51
-46.81
-54.88
-62.67
-68.71
-71.37
-69.42
-62.46
-51.16
-37.10
-22.24
-8.40
3.29
12.47
19.35
24.32
27.64
29.40
29.61
28.50
26.59
24.66
23.43
23.31
24.27
25.83
27.38
28.41
28.76
28.56
28.13
27.65
27.09
26.12
24.25
21.09
16.53
10.89
4.76
-1.13
-6.22
-10.35
-13.72
-16.85
-20.33
-24.64
-30.00
-36.20
-42.68
-48.47
-52.42
-53.45
-50.90
-44.77
-35.75
-25.02
-13.91
-3.53
5.39
12.54
17.82
21.20
22.65
22.23
20.19
17.05
13.63
10.71
8.90
8.40
8.97
10.11
11.31
12.30
13.05
13.70
14.28
14.58
14.13
12.35
8.93
3.93
-2.07
-8.27
-13.90
-18.57
-22.32
-25.56
-28.92
-32.97
-38.11
-44.40
-51.46
-58.39
-63.93
-66.60
-65.20
-59.22
-49.11
-36.15
-22.10
-8.66
2.99
12.32
19.42
24.63
28.33
30.74
32.00
32.21
31.65
30.71
29.84
29.39
29.51
30.10
30.93
31.72
32.26
32.42
32.17
31.52
30.40
28.72
26.34
23.12
18.95
13.87
8.05
1.83
-4.39
-10.23
-15.48
-20.10
-24.29
-28.35
-32.69
-37.64
-43.44
-50.11
-57.34
-64.45
-70.35
-73.80
-73.65
-69.29
-60.79
-49.03
-35.39
-21.39
-8.28
3.12
12.52
20.01
25.80
30.19
33.44
35.80
37.54
38.93
40.18
41.35
42.40
43.22
43.76
44.06
44.26
44.48
44.70
44.69
44.04
42.38
39.54
35.64
31.08
26.30
21.62
17.14
12.78
8.34
3.71
-1.08
-5.88
-10.49
-14.79
-18.70
-22.30
-25.74
-29.31
-33.35
-38.33
-44.63
-52.28
-60.73
-68.68
-74.36
-76.00
-72.52
-63.88
-51.24
-36.50
-21.70
-8.42
2.51
11.02
17.51
22.55
26.59
29.92
32.60
34.64
36.07
36.97
37.52
37.94
38.44
39.08
39.85
40.62
41.22
41.52
41.38
40.69
39.30
37.09
34.04
30.22
25.90
21.41
17.10
13.13
9.50
5.99
2.36
-1.53
-5.64
-9.71
-13.43
-16.58
-19.19
-21.55
-24.23
-27.85
-32.90
-39.44
-46.90
-54.03
-59.14
-60.65
-57.58
-49.97
-38.86
-25.94
-12.98
-1.30
8.44
16.23
22.31
26.98
30.34
32.41
33.29
33.25
32.85
32.67
33.25
34.75
36.99
39.52
41.79
43.46
44.40
44.76
44.75
44.49
43.95
42.95
41.33
39.03
36.19
33.12
30.12
27.39
24.84
22.08
18.55
13.71
7.22
-0.90
-10.36
-20.60
-30.92
-40.42
-48.15
-53.20
-54.85
-52.93
-47.89
-40.78
-32.94
-25.58
-19.50
-14.95
-11.87
-10.04
-9.30
-9.53
-10.54
-11.99
-13.33
-13.95
-13.37
-11.39
-8.19
-4.25
-0.21
3.34
5.95
7.43
7.84
7.38
6.26
4.55
2.23
-0.82
-4.61
-9.00
-13.58
-17.91
-21.59
-24.50
-26.81
-28.94
-31.34
-34.43
-38.46
-43.46
-49.12
-54.73
-59.20
-61.25
-59.75
-54.16
-44.77
-32.68
-19.52
-6.92
3.88
12.32
18.47
22.83
26.00
28.47
30.48
32.06
33.14
33.72
33.95
34.09
34.42
35.07
35.99
36.97
37.76
38.15
38.07
37.47
36.32
34.54
32.06
28.88
25.13
21.05
16.88
12.79
8.84
4.97
1.05
-3.02
-7.23
-11.48
-15.63
-19.46
-22.86
-25.83
-28.60
-31.63
-35.51
-40.68
-47.13
-54.16
-60.40
-64.13
-63.79
-58.65
-49.06
-36.44
-22.76
-9.88
0.96
9.35
15.60
20.31
24.06
27.16
29.68
31.57
32.89
33.76
34.43
35.15
36.06
37.17
38.37
39.52
40.46
41.11
41.38
41.21
40.54
39.31
37.53
35.23
32.51
29.41
25.95
22.18
18.18
14.16
10.31
6.86
3.88
1.27
-1.19
-3.81
-6.79
-10.20
-13.92
-17.75
-21.45
-24.85
-27.97
-31.01
-34.28
-38.18
-43.12
-49.20
-56.17
-63.20
-68.96
-71.95
-70.87
-65.16
-55.26
-42.48
-28.69
-15.65
-4.59
4.07
10.49
15.16
18.54
20.92
22.46
23.26
23.55
23.65
23.97
24.79
26.22
28.11
30.15
32.02
33.51
34.61
35.42
36.02
36.39
36.35
35.61
33.94
31.32
27.93
24.12
20.27
16.66
13.40
10.48
7.77
5.15
2.46
-0.39
-3.47
-6.79
-10.29
-13.85
-17.28
-20.49
-23.44
-26.25
-29.15
-32.45
-36.51
-41.55
-47.53
-53.93
-59.77
-63.71
-64.43
-61.09
-53.62
-42.83
-30.17
-17.30
-5.63
3.95
11.15
16.09
19.09
20.58
20.93
20.50
19.61
18.61
17.78
17.38
17.58
18.36
19.60
21.07
22.43
23.44
23.90
23.77
23.10
21.95
20.41
18.50
16.17
13.32
9.86
5.81
1.32
-3.26
-7.57
-11.31
-14.39
-16.95
-19.32
-21.78
-24.61
-27.96
-31.88
-36.30
-40.90
-45.05
-47.81
-48.15
-45.28
-39.10
-30.20
-19.81
-9.31
0.14
7.84
13.59
17.49
19.73
20.49
19.90
18.21
15.78
13.13
10.82
9.29
8.75
9.11
10.06
11.22
12.27
13.05
13.51
13.61
13.22
12.05
9.87
6.53
2.17
-2.82
-7.90
-12.63
-16.80
-20.50
-24.06
-27.90
-32.47
-37.98
-44.31
-50.90
-56.71
-60.43
-60.83
-57.18
-49.59
-39.02
-26.96
-15.04
-4.45
4.22
10.95
15.97
19.48
21.47
21.83
20.54
17.95
14.74
11.81
9.93
9.46
10.27
11.87
13.63
15.10
16.05
16.54
16.71
16.61
16.12
14.99
12.89
9.60
5.09
-0.39
-6.37
-12.26
-17.55
-21.99
-25.65
-28.89
-32.24
-36.23
-41.27
-47.50
-54.71
-62.18
-68.74
-72.95
-73.45
-69.45
-61.03
-49.21
-35.62
-22.03
-9.84
0.16
7.81
13.34
17.19
19.75
21.32
22.16
22.46
22.46
22.45
22.71
23.45
24.77
26.58
28.64
30.66
32.37
33.54
34.03
33.74
32.56
30.52
27.69
24.27
20.48
16.50
12.40
8.13
3.61
-1.17
-6.09
-10.89
-15.31
-19.15
-22.42
-25.36
-28.43
-32.16
-37.04
-43.28
-50.57
-58.02
-64.21
-67.52
-66.57
-60.82
-50.67
-37.51
-23.13
-9.23
3.05
13.25
21.43
27.78
32.47
35.55
37.18
37.70
37.69
37.82
38.63
40.25
42.48
44.86
46.95
48.53
49.62
50.40
51.00
51.41
51.39
50.56
48.60
45.39
41.13
36.25
31.30
26.77
22.88
19.56
16.47
13.16
9.28
4.73
-0.29
-5.36
-10.04
-14.08
-17.53
-20.73
-24.29
-28.86
-34.86
-42.28
-50.43
-57.99
-63.23
-64.51
-60.86
-52.33
-40.13
-26.15
-12.35
-0.20
9.71
17.50
23.62
28.52
32.35
35.07
36.66
37.30
37.37
37.35
37.62
38.29
39.24
40.23
41.10
41.81
42.45
43.05
43.54
43.62
42.88
40.95
37.72
33.44
28.63
23.97
19.90
16.53
13.55
10.45
6.81
2.56
-1.99
-6.30
-9.95
-12.84
-15.28
-17.89
-21.28
-25.89
-31.75
-38.40
-44.95
-50.15
-52.68
-51.47
-46.05
-36.82
-24.93
-12.03
0.20
10.50
18.24
23.42
26.45
27.87
28.17
27.71
26.75
25.52
24.30
23.42
23.15
23.63
24.77
26.32
27.91
29.21
29.99
30.19
29.80
28.84
27.30
25.10
22.24
18.78
14.85
10.63
6.27
1.92
-2.33
-6.36
-10.12
-13.54
-16.64
-19.43
-22.03
-24.59
-27.37
-30.72
-34.97
-40.23
-46.22
-52.08
-56.48
-57.98
-55.48
-48.70
-38.33
-25.86
-13.08
-1.53
7.89
14.95
19.91
23.23
25.23
26.13
26.11
25.43
24.52
23.89
23.92
24.71
26.07
27.56
28.75
29.41
29.55
29.40
29.18
28.93
28.39
27.15
24.87
21.44
17.18
12.64
8.43
4.88
2.00
-0.54
-3.18
-6.26
-9.83
-13.70
-17.53
-21.03
-24.01
-26.53
-28.79
-31.14
-34.00
-37.78
-42.70
-48.65
-54.94
-60.36
-63.44
-62.87
-58.00
-49.15
-37.45
-24.57
-12.10
-1.17
7.71
14.53
19.55
23.08
25.37
26.67
27.26
27.49
27.67
28.06
28.72
29.64
30.66
31.66
32.56
33.34
34.06
34.76
35.44
35.97
36.11
35.62
34.29
32.12
29.27
26.09
22.95
20.16
17.89
16.12
14.62
13.07
11.18
8.79
5.99
3.08
0.48
-1.49
-2.78
-3.65
-4.62
-6.28
-9.09
-13.13
-18.03
-22.92
-26.52
-27.49
-24.80
-18.20
-8.39
3.08
14.24
23.35
29.28
31.70
30.96
27.67
22.47
15.87
8.33
0.43
-7.19
-13.80
-18.84
-22.04
-23.45
-23.35
-22.11
-20.04
-17.34
-14.21
-10.91
-7.83
-5.46
-4.30
-4.60
-6.33
-9.13
-12.43
-15.64
-18.36
-20.50
-22.24
-23.88
-25.72
-27.82
-30.06
-32.20
-34.06
-35.65
-37.22
-39.18
-42.00
-46.00
-51.24
-57.26
-63.17
-67.67
-69.42
-67.43
-61.46
-52.08
-40.51
-28.24
-16.53
-6.20
2.46
9.45
14.85
18.71
21.02
21.81
21.34
20.07
18.66
17.74
17.77
18.86
20.70
22.78
24.44
25.27
25.12
24.14
22.64
20.83
18.75
16.23
12.98
8.79
3.72
-1.95
-7.74
-13.13
-17.80
-21.69
-25.02
-28.19
-31.66
-35.83
-40.92
-46.88
-53.29
-59.40
-64.14
-66.38
-65.25
-60.35
-51.93
-40.86
-28.40
-15.89
-4.50
4.98
12.17
17.11
20.16
21.86
22.75
23.32
23.84
24.46
25.19
26.08
27.20
28.61
30.30
32.17
34.01
35.52
36.43
36.54
35.74
34.01
31.39
27.97
23.86
19.27
14.47
9.77
5.42
1.53
-2.06
-5.63
-9.52
-13.88
-18.57
-23.20
-27.36
-30.81
-33.74
-36.69
-40.44
-45.67
-52.56
-60.58
-68.47
-74.48
-76.88
-74.47
-67.02
-55.34
-41.01
-25.86
-11.53
0.98
11.26
19.45
25.87
30.86
34.69
37.53
39.53
40.89
41.86
42.73
43.69
44.83
46.10
47.38
48.54
49.56
50.43
51.11
51.46
51.21
50.07
47.90
44.72
40.79
36.47
32.05
27.73
23.58
19.64
15.95
12.58
9.50
6.56
3.52
0.06
-3.93
-8.37
-12.97
-17.38
-21.36
-24.91
-28.26
-31.82
-36.03
-41.28
-47.78
-55.41
-63.56
-71.04
-76.29
-77.68
-74.11
-65.41
-52.51
-37.10
-21.22
-6.56
5.85
15.75
23.39
29.26
33.75
37.12
39.49
41.01
41.93
42.62
43.46
44.69
46.36
48.27
50.12
51.63
52.64
53.13
53.18
52.87
52.19
51.00
49.15
46.48
42.95
38.64
33.80
28.75
23.83
19.25
15.04
11.03
6.93
2.54
-2.19
-7.05
-11.67
-15.67
-18.85
-21.37
-23.71
-26.59
-30.71
-36.51
-43.90
-52.18
-60.09
-66.07
-68.65
-66.87
-60.61
-50.61
-38.25
-25.17
-12.82
-2.16
6.42
12.93
17.62
20.73
22.39
22.76
22.09
20.80
19.51
18.89
19.36
21.02
23.53
26.24
28.51
29.93
30.44
30.28
29.72
28.89
27.66
25.74
22.81
18.79
13.86
8.49
3.19
-1.61
-5.69
-9.07
-11.95
-14.66
-17.57
-21.04
-25.36
-30.56
-36.32
-41.81
-45.93
-47.48
-45.64
-40.22
-31.84
-21.63
-10.92
-0.89
7.72
14.54
19.50
22.65
24.10
24.01
22.69
20.61
18.37
16.55
15.55
15.52
16.29
17.54
18.84
19.84
20.38
20.40
19.95
18.98
17.36
14.85
11.31
6.78
1.51
-3.98
-9.20
-13.81
-17.76
-21.26
-24.66
-28.31
-32.53
-37.46
-43.10
-49.16
-54.94
-59.35
-61.11
-59.17
-53.15
-43.54
-31.67
-19.18
-7.62
2.08
9.62
15.20
19.21
21.98
23.74
24.67
24.99
25.00
25.07
25.51
26.46
27.90
29.64
31.41
32.98
34.19
34.95
35.24
34.99
34.10
32.41
29.80
26.28
22.06
17.51
13.05
9.01
5.44
2.12
-1.30
-5.13
-9.44
-14.04
-18.55
-22.57
-25.92
-28.70
-31.37
-34.55
-38.90
-44.81
-52.15
-60.11
-67.24
-71.82
-72.37
-68.16
-59.51
-47.67
-34.43
-21.49
-10.04
-0.56
7.07
13.27
18.50
23.06
27.13
30.75
33.88
36.52
38.68
40.42
41.84
43.05
44.09
44.95
45.59
45.91
45.85
45.41
44.62
43.47
41.94
39.92
37.32
34.12
30.41
26.39
22.36
18.56
15.14
12.12
9.34
6.54
3.48
0.01
-3.84
-7.89
-11.85
-15.51
-18.76
-21.75
-24.79
-28.31
-32.77
-38.53
-45.67
-53.79
-61.88
-68.45
-71.84
-70.77
-64.83
-54.70
-41.95
-28.48
-15.95
-5.30
3.26
10.08
15.68
20.46
24.59
28.08
30.94
33.22
35.05
36.61
38.05
39.46
40.84
42.09
43.12
43.84
44.23
44.27
43.97
43.31
42.18
40.45
37.98
34.72
30.80
26.54
22.40
18.84
16.12
14.14
12.52
10.65
7.98
4.25
-0.41
-5.52
-10.43
-14.64
-17.99
-20.69
-23.28
-26.41
-30.66
-36.34
-43.32
-51.02
-58.37
-63.99
-66.47
-64.79
-58.61
-48.50
-35.77
-22.17
-9.36
1.48
9.82
15.75
19.64
22.00
23.21
23.55
23.29
22.76
22.29
22.25
22.84
24.07
25.77
27.63
29.32
30.59
31.25
31.23
30.45
28.90
26.58
23.59
20.09
16.29
12.36
8.42
4.53
0.70
-3.06
-6.71
-10.20
-13.45
-16.46
-19.25
-21.95
-24.77
-28.00
-31.94
-36.74
-42.29
-48.00
-52.85
-55.53
-54.91
-50.34
-42.04
-31.05
-18.90
-7.16
3.06
11.25
17.51
22.18
25.58
27.85
28.98
29.04
28.36
27.46
26.91
27.10
28.05
29.44
30.80
31.76
32.18
32.13
31.80
31.29
30.51
29.23
27.19
24.25
20.48
16.21
11.88
7.93
4.55
1.67
-1.02
-3.93
-7.34
-11.27
-15.45
-19.48
-23.00
-25.86
-28.24
-30.60
-33.55
-37.64
-43.17
-49.95
-57.22
-63.69
-67.82
-68.22
-64.09
-55.57
-43.74
-30.30
-17.05
-5.39
4.02
11.24
16.79
21.25
25.02
28.23
30.79
32.60
33.70
34.27
34.66
35.17
36.00
37.12
38.32
39.32
39.90
40.02
39.77
39.29
38.62
37.61
36.08
33.86
30.93
27.47
23.74
19.97
16.30
12.79
9.47
6.41
3.66
1.18
-1.20
-3.73
-6.64
-9.99
-13.62
-17.26
-20.66
-23.75
-26.68
-29.77
-33.37
-37.80
-43.20
-49.53
-56.39
-62.99
-68.11
-70.36
-68.57
-62.21
-51.79
-38.67
-24.70
-11.64
-0.60
8.05
14.58
19.50
23.28
26.19
28.34
29.80
30.72
31.32
31.85
32.48
33.25
34.06
34.80
35.39
35.81
36.10
36.32
36.43
36.36
35.96
35.06
33.53
31.31
28.45
25.08
21.38
17.58
13.89
10.53
7.61
5.16
3.02
0.93
-1.41
-4.22
-7.50
-11.07
-14.61
-17.87
-20.78
-23.53
-26.43
-29.80
-33.85
-38.70
-44.28
-50.32
-56.21
-61.02
-63.54
-62.68
-57.81
-49.16
-37.74
-25.09
-12.78
-1.98
6.70
13.14
17.57
20.28
21.55
21.66
20.88
19.57
18.06
16.72
15.84
15.61
16.09
17.20
18.72
20.34
21.78
22.77
23.17
22.88
21.89
20.23
17.96
15.19
12.01
8.48
4.68
0.69
-3.38
-7.39
-11.17
-14.60
-17.65
-20.39
-23.05
-25.94
-29.39
-33.68
-38.83
-44.48
-49.80
-53.62
-54.68
-52.10
-45.70
-36.10
-24.58
-12.66
-1.74
7.26
13.97
18.53
21.32
22.80
23.30
23.11
22.43
21.51
20.63
20.09
20.06
20.55
21.41
22.42
23.37
24.19
24.85
25.31
25.42
24.88
23.44
20.98
17.63
13.70
9.58
5.57
1.77
-1.91
-5.69
-9.77
-14.24
-18.95
-23.62
-27.88
-31.49
-34.44
-37.04
-39.87
-43.56
-48.50
-54.51
-60.76
-65.88
-68.34
-66.92
-61.16
-51.50
-39.16
-25.73
-12.74
-1.31
7.99
15.04
20.01
23.25
25.15
26.13
26.61
27.00
27.60
28.60
30.05
31.85
33.88
35.96
38.01
39.95
41.79
43.48
44.92
45.89
46.12
45.38
43.62
41.00
37.95
34.94
32.37
30.28
28.33
25.87
22.24
17.00
10.21
2.33
-5.91
-13.86
-21.11
-27.64
-33.77
-39.99
-46.85
-54.69
-63.45
-72.50
-80.63
-86.27
-87.96
-84.81
-76.97
-65.57
-52.38
-39.29
-27.70
-18.29
-11.12
-5.83
-2.00
0.70
2.52
3.71
4.61
5.59
6.98
8.94
11.36
13.98
16.52
18.77
20.74
22.53
24.24
25.87
27.22
27.98
27.78
26.43
23.99
20.79
17.32
14.02
11.11
8.45
5.65
2.29
-1.88
-6.73
-11.84
-16.68
-20.87
-24.29
-27.14
-29.82
-32.79
-36.48
-41.22
-47.05
-53.62
-60.05
-64.97
-66.90
-64.66
-57.85
-47.07
-33.75
-19.69
-6.58
4.52
13.22
19.72
24.42
27.72
29.83
30.83
30.86
30.26
29.52
29.23
29.74
31.07
32.91
34.80
36.36
37.44
38.12
38.54
38.69
38.38
37.29
35.18
32.05
28.16
23.97
19.87
16.05
12.37
8.53
4.25
-0.56
-5.67
-10.72
-15.31
-19.23
-22.56
-25.60
-28.81
-32.64
-37.48
-43.51
-50.50
-57.76
-64.11
-68.06
-68.28
-64.05
-55.55
-43.87
-30.64
-17.55
-5.83
3.83
11.36
16.95
20.84
23.19
24.11
23.80
22.62
21.13
19.93
19.51
20.05
21.38
23.11
24.75
26.01
26.80
27.22
27.35
27.16
26.44
24.88
22.22
18.40
13.58
8.13
2.52
-2.84
-7.68
-11.92
-15.67
-19.18
-22.79
-26.84
-31.65
-37.32
-43.57
-49.68
-54.51
-56.79
-55.47
-50.13
-41.14
-29.62
-17.10
-5.09
5.35
13.63
19.66
23.64
25.81
26.43
25.74
24.08
21.91
19.76
18.16
17.42
17.60
18.45
19.59
20.68
21.52
22.07
22.42
22.51
22.14
20.96
18.58
14.80
9.72
3.70
-2.71
-8.95
-14.64
-19.64
-24.04
-28.14
-32.38
-37.27
-43.21
-50.35
-58.32
-66.14
-72.33
-75.24
-73.60
-66.99
-56.05
-42.27
-27.50
-13.43
-1.13
8.98
16.98
23.14
27.63
30.53
31.90
31.98
31.18
30.13
29.40
29.43
30.30
31.83
33.68
35.50
37.06
38.24
38.99
39.19
38.68
37.29
34.91
31.64
27.66
23.23
18.47
13.42
8.01
2.27
-3.63
-9.37
-14.63
-19.26
-23.35
-27.27
-31.51
-36.58
-42.87
-50.51
-59.29
-68.38
-76.39
-81.58
-82.29
-77.51
-67.35
-53.06
-36.63
-20.19
-5.39
6.93
16.66
24.20
30.08
34.73
38.40
41.26
43.46
45.19
46.72
48.33
50.20
52.40
54.79
57.12
59.07
60.39
61.03
61.01
60.45
59.39
57.76
55.35
51.98
47.57
42.30
36.63
31.16
26.41
22.60
19.55
16.69
13.32
8.93
3.45
-2.75
-8.97
-14.56
-19.21
-23.06
-26.62
-30.56
-35.55
-42.09
-50.40
-60.26
-70.86
-80.74
-87.95
-90.54
-87.17
-77.65
-63.09
-45.55
-27.39
-10.59
3.73
15.30
24.44
31.71
37.54
42.21
45.87
48.73
51.01
53.01
54.95
56.85
58.60
60.01
60.92
61.34
61.39
61.22
60.90
60.36
59.39
57.80
55.50
52.52
48.96
44.98
40.66
36.10
31.40
26.68
22.16
18.00
14.23
10.76
7.33
3.62
-0.55
-5.18
-10.07
-14.88
-19.36
-23.40
-27.16
-30.97
-35.33
-40.74
-47.57
-55.91
-65.29
-74.62
-82.23
-86.23
-85.05
-78.02
-65.74
-49.90
-32.82
-16.71
-3.06
7.55
15.35
20.92
24.87
27.56
29.14
29.71
29.52
28.97
28.60
28.83
29.85
31.57
33.67
35.79
37.60
38.91
39.55
39.39
38.27
36.08
32.84
28.73
24.08
19.24
14.47
9.88
5.44
1.05
-3.33
-7.64
-11.74
-15.51
-18.87
-21.90
-24.88
-28.23
-32.47
-37.96
-44.73
-52.25
-59.30
-64.29
-65.56
-62.08
-53.77
-41.60
-27.30
-12.73
0.60
11.84
20.79
27.63
32.65
36.10
38.19
39.18
39.46
39.50
39.69
40.31
41.40
42.79
44.28
45.71
47.02
48.21
49.30
50.16
50.45
49.76
47.69
44.06
39.00
32.91
26.37
19.91
13.84
8.22
2.84
-2.52
-8.03
-13.67
-19.20
-24.37
-28.96
-32.99
-36.72
-40.63
-45.27
-51.15
-58.50
-67.11
-76.16
-84.21
-89.46
-90.20
-85.41
-75.13
-60.52
-43.55
-26.39
-10.79
2.19
12.31
19.89
25.42
29.42
32.26
34.18
35.44
36.30
37.04
37.90
39.02
40.39
41.90
43.39
44.74
45.93
46.94
47.70
48.09
47.90
46.92
45.03
42.23
38.58
34.24
29.38
24.23
19.08
14.18
9.70
5.64
1.85
-1.95
-5.98
-10.36
-15.05
-19.89
-24.66
-29.19
-33.38
-37.28
-41.05
-44.98
-49.43
-54.86
-61.62
-69.79
-78.90
-87.69
-94.40
-97.04
-94.16
-85.32
-71.36
-54.09
-35.81
-18.56
-3.68
8.28
17.47
24.35
29.42
33.14
35.83
37.82
39.39
40.83
42.35
44.05
45.90
47.69
49.24
50.41
51.22
51.76
52.11
52.23
51.96
51.05
49.31
46.66
43.14
38.87
33.98
28.62
23.02
17.50
12.37
7.90
4.12
0.81
-2.43
-6.02
-10.21
-14.92
-19.89
-24.68
-28.98
-32.70
-36.00
-39.32
-43.17
-48.07
-54.35
-62.01
-70.51
-78.71
-85.04
-87.76
-85.54
-77.91
-65.51
-49.91
-33.15
-17.15
-3.25
7.95
16.45
22.58
26.70
29.15
30.19
30.17
29.52
28.70
28.18
28.26
29.05
30.50
32.36
34.31
36.02
37.19
37.59
37.11
35.79
33.74
31.06
27.84
24.03
19.58
14.46
8.80
2.90
-2.88
-8.19
-12.91
-17.07
-20.90
-24.63
-28.51
-32.80
-37.72
-43.44
-49.81
-56.20
-61.42
-64.02
-62.69
-56.78
-46.63
-33.48
-19.08
-5.18
6.99
16.83
24.26
29.52
32.81
34.31
34.18
32.69
30.34
27.78
25.73
24.70
24.93
26.29
28.39
30.69
32.65
33.89
34.18
33.48
31.85
29.44
26.32
22.48
17.89
12.49
6.38
-0.15
-6.69
-12.86
-18.45
-23.51
-28.27
-33.04
-38.08
-43.53
-49.51
-56.10
-63.20
-70.39
-76.74
-80.84
-81.20
-76.75
-67.33
-53.83
-37.94
-21.65
-6.63
6.10
16.21
23.86
29.41
33.20
35.49
36.54
36.70
36.43
36.15
36.22
36.76
37.68
38.76
39.76
40.52
41.02
41.34
41.46
41.30
40.62
39.12
36.53
32.76
27.97
22.55
16.98
11.65
6.72
2.09
-2.52
-7.39
-12.57
-17.92
-23.09
-27.79
-31.86
-35.40
-38.76
-42.43
-46.99
-52.90
-60.30
-68.79
-77.21
-83.82
-86.69
-84.34
-76.27
-63.27
-47.12
-30.07
-14.12
-0.52
10.36
18.80
25.36
30.56
34.68
37.84
40.07
41.53
42.50
43.34
44.34
45.63
47.04
48.34
49.31
49.92
50.30
50.68
51.11
51.40
51.10
49.65
46.65
42.04
36.15
29.60
23.08
17.12
11.95
7.50
3.50
-0.43
-4.56
-8.96
-13.54
-18.08
-22.34
-26.17
-29.57
-32.76
-36.13
-40.23
-45.63
-52.58
-60.86
-69.48
-76.87
-81.09
-80.55
-74.48
-63.28
-48.45
-32.04
-16.08
-2.04
9.39
18.18
24.71
29.46
32.83
35.09
36.48
37.27
37.77
38.30
39.12
40.31
41.73
43.15
44.32
45.10
45.53
45.78
45.90
45.81
45.19
43.66
40.99
37.19
32.58
27.68
22.98
18.77
15.07
11.62
8.05
4.03
-0.50
-5.35
-10.09
-14.31
-17.75
-20.49
-22.89
-25.58
-29.22
-34.35
-41.10
-48.98
-56.84
-63.01
-65.73
-63.76
-56.86
-45.92
-32.68
-19.17
-6.98
3.07
10.91
16.86
21.22
24.09
25.39
25.13
23.66
21.68
20.09
19.60
20.47
22.40
24.72
26.70
27.84
28.04
27.47
26.44
25.17
23.67
21.81
19.38
16.17
12.12
7.31
1.98
-3.51
-8.74
-13.36
-17.16
-20.22
-22.85
-25.55
-28.86
-33.19
-38.60
-44.68
-50.52
-54.86
-56.44
-54.36
-48.38
-39.06
-27.61
-15.49
-4.03
5.86
13.80
19.79
24.01
26.68
27.98
28.08
27.29
26.01
24.73
23.89
23.77
24.32
25.28
26.26
26.95
27.19
26.97
26.35
25.33
23.81
21.64
18.74
15.13
10.94
6.36
1.52
-3.43
-8.40
-13.23
-17.71
-21.63
-24.90
-27.58
-29.94
-32.46
-35.65
-39.94
-45.48
-51.90
-58.26
-63.16
-65.10
-62.97
-56.44
-46.16
-33.53
-20.32
-8.07
2.28
10.44
16.70
21.53
25.31
28.25
30.33
31.55
32.01
32.01
31.97
32.28
33.13
34.44
35.90
37.13
37.80
37.83
37.30
36.41
35.24
33.75
31.71
28.90
25.26
20.93
16.38
12.11
8.57
5.88
3.81
1.82
-0.66
-4.03
-8.32
-13.15
-17.93
-22.06
-25.29
-27.75
-29.98
-32.68
-36.49
-41.76
-48.50
-56.20
-63.95
-70.38
-74.03
-73.67
-68.75
-59.66
-47.69
-34.65
-22.32
-11.90
-3.81
2.21
6.73
10.29
13.15
15.37
16.93
17.86
18.36
18.67
19.02
19.47
19.89
20.05
19.72
18.83
17.47
15.90
14.35
12.96
11.70
10.42
8.96
7.26
5.45
3.79
2.63
2.22
2.67
3.98
6.03
8.67
11.75
15.07
18.42
21.62
24.47
26.95
29.12
31.23
33.56
36.30
39.31
42.04
43.49
42.39
37.52
28.25
14.82
-1.44
-18.38
-33.47
-44.58
-50.39
-50.77
-46.63
-39.52
-31.08
-22.69
-15.16
-8.88
-3.89
-0.13
2.47
4.02
4.69
4.78
4.72
4.89
5.56
6.77
8.31
9.89
11.26
12.33
13.17
13.91
14.57
15.02
14.97
14.03
11.93
8.65
4.44
-0.23
-4.82
-8.89
-12.22
-14.84
-16.97
-18.94
-21.09
-23.73
-27.06
-31.14
-35.84
-40.71
-45.03
-47.84
-48.26
-45.68
-40.08
-32.02
-22.56
-12.91
-4.16
3.02
8.33
11.80
13.57
13.86
12.90
11.04
8.77
6.66
5.21
4.68
5.06
6.06
7.26
8.34
9.14
9.68
10.01
10.10
9.76
8.75
6.89
4.18
0.91
-2.53
-5.78
-8.67
-11.41
-14.43
-18.23
-23.11
-28.94
-34.97
-40.05
-42.88
-42.40
-38.19
-30.61
-20.70
-9.80
0.78
10.12
17.72
23.47
27.49
29.90
30.85
30.51
29.17
27.22
25.10
23.19
21.79
20.98
20.70
20.83
21.17
21.57
21.85
21.84
21.32
20.06
17.88
14.66
10.45
5.50
0.22
-4.94
-9.62
-13.70
-17.38
-21.05
-25.22
-30.28
-36.37
-43.28
-50.32
-56.37
-60.10
-60.22
-56.03
-47.64
-36.10
-23.11
-10.46
0.49
9.08
15.39
19.94
23.31
25.90
27.88
29.22
29.89
29.93
29.52
28.90
28.37
28.10
28.16
28.49
28.92
29.30
29.49
29.39
28.92
28.02
26.57
24.46
21.60
17.90
13.41
8.27
2.78
-2.67
-7.71
-12.08
-15.76
-18.92
-21.94
-25.26
-29.32
-34.39
-40.52
-47.39
-54.22
-59.82
-62.82
-62.09
-57.09
-48.21
-36.61
-23.91
-11.72
-1.15
7.32
13.75
18.55
22.21
25.08
27.32
28.98
29.97
30.29
30.06
29.48
28.88
28.48
28.39
28.55
28.84
29.15
29.44
29.64
29.59
29.01
27.57
25.05
21.53
17.35
13.01
8.89
5.18
1.74
-1.69
-5.34
-9.27
-13.31
-17.22
-20.81
-24.04
-27.08
-30.27
-33.97
-38.51
-44.00
-50.11
-56.05
-60.60
-62.38
-60.29
-53.97
-43.92
-31.45
-18.22
-5.75
4.95
13.55
20.14
25.07
28.61
30.93
32.12
32.35
31.92
31.26
30.75
30.66
31.04
31.74
32.51
33.14
33.54
33.77
33.87
33.82
33.41
32.35
30.37
27.40
23.61
19.33
14.91
10.57
6.30
1.95
-2.62
-7.37
-12.08
-16.45
-20.27
-23.48
-26.32
-29.12
-32.30
-36.20
-41.02
-46.68
-52.76
-58.41
-62.39
-63.40
-60.44
-53.23
-42.40
-29.31
-15.69
-3.06
7.53
15.67
21.38
24.90
26.52
26.50
25.19
23.03
20.59
18.44
17.08
16.73
17.37
18.74
20.48
22.27
23.87
25.15
26.03
26.44
26.21
25.16
23.10
19.99
15.96
11.35
6.60
2.09
-1.98
-5.70
-9.36
-13.40
-18.23
-24.05
-30.68
-37.51
-43.54
-47.59
-48.60
-45.97
-39.74
-30.62
-19.82
-8.76
1.36
9.67
15.79
19.69
21.60
21.80
20.62
18.34
15.27
11.75
8.15
4.87
2.31
0.72
0.21
0.65
1.71
2.92
3.80
4.00
3.33
1.79
-0.55
-3.54
-7.06
-11.00
-15.26
-19.71
-24.29
-29.13
-34.44
-40.47
-47.25
-54.33
-60.77
-65.37
-67.08
-65.39
-60.52
-53.28
-44.63
-35.30
-25.67
-15.88
-6.21
2.75
10.10
14.98
17.07
16.74
15.05
13.26
12.36
12.64
13.77
15.02
15.78
15.89
15.62
15.63
16.68
19.55
25.08
34.11
47.29
64.73
85.55
107.66
128.10
143.76
152.39
153.38
147.93
138.64
128.53
120.25
115.44
114.72
117.75
123.65
131.19
139.10
146.34
152.42
157.55
162.54
168.36
175.41
183.03
189.41
192.10
188.90
178.81
162.58
142.67
122.52
105.44
93.55
87.17
85.02
84.91
84.64
82.82
79.05
73.54
66.72
58.71
49.21
37.76
24.05
8.16
-9.30
-27.36
-44.80
-60.36
-72.96
-81.89
-86.87
-88.10
-86.09
-81.58
-75.46
-68.79
-62.73
-58.37
-56.41
-56.77
-58.47
-59.86
-59.19
-55.34
-48.31
-39.23
-29.84
-21.84
-16.27
-13.42
-13.05
-14.82
-18.56
-24.13
-31.17
-38.73
-45.30
-49.12
-48.78
-43.73
-34.39
-22.03
-8.24
5.53
18.17
28.99
37.60
43.74
47.35
48.59
47.83
45.66
42.68
39.35
35.84
32.08
27.84
22.91
17.26
11.04
4.58
-1.83
-8.10
-14.62
-22.26
-32.28
-45.94
-64.08
-86.76
-113.21
-142.07
-171.93
-201.71
-230.91
-259.49
-287.39
-314.10
-338.55
-359.19
-374.61
-384.11
-388.15
-388.33
-386.86
-385.90
-386.75
-389.49
-392.91
-394.88
-392.90
-384.67
-368.51
-343.62
-310.14
-269.07
-222.21
-171.86
-120.59
-70.96
-25.11
15.46
49.95
78.24
100.66
117.65
129.54
136.45
138.36
135.28
127.43
115.36
99.94
82.37
64.19
47.15
33.05
23.40
19.07
20.05
25.55
34.29
45.01
56.73
68.92
81.28
93.48
104.98
115.02
122.95
128.53
132.15
134.76
137.66
142.17
149.30
159.47
172.32
186.58
199.99
209.48
211.59
203.22
182.49
149.39
105.97
55.88
3.36
-47.76
-94.94
-137.13
-174.67
-208.65
-240.24
-270.05
-297.70
-321.72
-339.86
-349.64
-349.08
-337.27
-314.61
-282.90
-244.98
-204.36
-164.75
-129.47
-100.91
-80.01
-66.08
-57.07
-50.24
-43.03
-33.85
-22.47
-9.86
2.29
12.26
18.88
21.82
21.60
19.27
15.94
12.46
9.06
5.47
1.03
-5.03
-13.24
-23.65
-35.58
-47.47
-57.03
-61.65
-59.11
-48.35
-29.90
-5.77
21.07
47.61
71.55
91.66
107.69
119.93
128.78
134.62
137.75
138.65
138.03
136.76
135.64
135.15
135.33
135.88
136.43
136.76
136.84
136.77
136.51
135.75
133.89
130.30
124.52
116.55
106.87
96.30
85.77
75.97
67.24
59.40
51.92
43.92
34.54
23.28
10.44
-2.63
-13.68
-20.00
-19.38
-10.88
4.71
25.07
47.08
67.80
85.24
98.59
107.98
113.99
117.18
117.93
116.53
113.39
109.12
104.50
100.25
96.90
94.59
93.16
92.29
91.60
90.83
89.78
88.30
86.19
83.26
79.36
74.43
68.57
61.95
54.80
47.33
39.70
31.96
24.15
16.33
8.64
1.28
-5.50
-11.56
-16.95
-22.00
-27.35
-33.70
-41.55
-50.71
-60.13
-67.92
-71.81
-69.89
-61.23
-46.36
-27.11
-6.13
13.96
31.18
44.48
53.73
59.37
62.04
62.35
60.85
58.08
54.64
51.21
48.39
46.60
45.97
46.40
47.61
49.28
51.06
52.67
53.79
54.16
53.48
51.58
48.40
44.06
38.83
33.10
27.27
21.64
16.31
11.15
5.91
0.38
-5.51
-11.50
-17.19
-22.16
-26.19
-29.39
-32.23
-35.46
-39.82
-45.79
-53.18
-61.01
-67.51
-70.58
-68.41
-60.13
-46.24
-28.53
-9.55
8.14
22.63
33.06
39.49
42.57
43.13
41.87
39.33
35.93
32.08
28.20
24.72
21.98
20.15
19.33
19.49
20.51
22.18
24.16
26.01
27.26
27.54
26.69
24.77
22.05
18.82
15.34
11.69
7.86
3.76
-0.68
-5.42
-10.32
-15.19
-19.80
-23.98
-27.66
-30.91
-33.90
-36.96
-40.52
-44.93
-50.25
-56.00
-61.01
-63.69
-62.42
-56.21
-45.13
-30.43
-14.19
1.35
14.38
23.89
29.73
32.32
32.38
30.58
27.51
23.67
19.47
15.33
11.63
8.66
6.62
5.63
5.64
6.58
8.23
10.30
12.42
14.18
15.19
15.14
13.91
11.60
8.45
4.78
0.83
-3.32
-7.71
-12.42
-17.44
-22.55
-27.40
-31.63
-35.06
-37.83
-40.35
-43.22
-46.97
-51.80
-57.38
-62.77
-66.53
-67.09
-63.25
-54.58
-41.73
-26.28
-10.31
4.21
15.86
24.08
28.98
31.05
30.89
28.95
25.57
21.05
15.85
10.53
5.76
2.17
0.13
-0.31
0.54
2.20
4.11
5.86
7.20
8.05
8.41
8.26
7.51
6.01
3.65
0.33
-3.84
-8.61
-13.67
-18.65
-23.29
-27.48
-31.29
-34.95
-38.75
-42.99
-47.91
-53.61
-59.94
-66.39
-72.02
-75.50
-75.44
-70.84
-61.43
-47.98
-32.06
-15.63
-0.51
12.04
21.46
27.72
31.05
31.72
30.02
26.33
21.18
15.36
9.71
5.02
1.82
0.22
0.00
0.75
2.05
3.63
5.40
7.30
9.19
10.72
11.34
10.50
7.88
3.54
-2.06
-8.22
-14.20
-19.54
-24.13
-28.21
-32.27
-36.86
-42.43
-49.11
-56.54
-63.77
-69.33
-71.52
-68.93
-60.90
-47.86
-31.34
-13.45
3.59
18.10
29.13
36.49
40.46
41.52
40.10
36.67
31.68
25.73
19.47
13.62
8.78
5.41
3.73
3.75
5.26
7.87
11.03
14.13
16.54
17.74
17.33
15.19
11.41
6.39
0.68
-5.18
-10.77
-16.05
-21.31
-27.17
-34.19
-42.54
-51.60
-59.94
-65.55
-66.44
-61.35
-50.21
-34.36
-16.04
2.20
18.18
30.61
39.06
43.74
45.10
43.61
39.64
33.62
26.15
18.12
10.62
4.70
1.10
0.05
1.17
3.67
6.58
9.07
10.61
11.02
10.35
8.75
6.34
3.20
-0.64
-5.20
-10.59
-17.07
-24.85
-33.98
-43.89
-53.27
-60.14
-62.42
-58.60
-48.38
-32.90
-14.38
4.54
21.60
35.36
45.27
51.40
54.07
53.57
50.19
44.33
36.69
28.25
20.19
13.59
9.18
7.10
6.94
7.89
9.06
9.77
9.70
8.88
7.50
5.73
3.57
0.80
-2.93
-7.96
-14.58
-22.78
-32.14
-41.62
-49.66
-54.37
-54.13
-48.16
-36.81
-21.57
-4.56
12.07
26.63
38.13
46.06
50.17
50.25
46.15
37.84
25.54
9.78
-8.54
-28.16
-47.56
-65.19
-79.90
-91.34
-100.09
-107.38
-114.44
-121.77
-128.84
-134.27
-136.59
-134.99
-129.77
-122.31
-114.49
-108.04
-103.95
-102.21
-101.79
-100.94
-97.74
-90.70
-79.29
-64.14
-46.81
-29.18
-12.79
1.60
13.96
24.77
34.56
43.72
52.46
60.89
69.08
76.99
84.43
91.02
96.31
99.94
101.72
101.67
99.94
96.74
92.33
86.91
80.67
73.71
66.15
58.17
50.16
42.63
35.88
29.67
23.05
14.73
3.86
-9.02
-21.72
-30.82
-33.07
-26.83
-12.92
5.53
24.39
40.16
51.14
57.69
61.52
64.69
68.66
74.04
80.72
88.21
95.77
102.38
106.83
108.13
106.28
102.88
101.08
104.56
115.98
135.57
160.51
185.89
206.50
218.78
221.92
217.64
208.83
198.06
186.56
174.32
160.81
145.73
129.36
112.13
94.24
75.12
53.79
29.43
2.01
-27.51
-57.67
-87.55
-117.68
-150.07
-187.07
-229.51
-274.95
-317.42
-348.83
-361.96
-353.30
-324.43
-281.21
-231.22
-181.07
-134.95
-95.00
-62.62
-39.41
-26.73
-24.42
-29.68
-37.32
-41.66
-39.05
-29.54
-16.56
-4.98
1.60
2.60
0.49
-0.68
2.52
11.50
25.42
42.09
59.13
74.84
88.27
98.79
105.70
108.29
106.08
99.33
89.00
76.53
63.30
50.40
38.78
29.40
23.20
20.70
21.42
23.71
25.27
24.23
20.11
14.03
8.11
4.13
2.61
2.58
2.20
-0.06
-4.78
-11.55
-19.54
-28.05
-36.77
-45.41
-53.23
-58.79
-60.22
-55.96
-45.50
-29.76
-10.95
8.22
25.36
39.01
48.71
54.74
57.65
57.88
55.70
51.34
45.21
38.03
30.78
24.45
19.76
16.90
15.45
14.54
13.07
10.13
5.33
-1.04
-8.17
-15.01
-20.74
-25.05
-28.14
-30.74
-33.87
-38.75
-46.52
-57.86
-72.50
-88.92
-104.60
-116.70
-123.18
-123.55
-119.05
-111.96
-104.43
-97.55
-90.95
-83.30
-73.14
-59.71
-43.28
-24.91
-5.88
12.79
30.55
47.25
62.78
76.91
89.13
98.90
105.84
109.92
111.44
110.82
108.39
104.27
98.43
90.83
81.64
71.31
60.51
49.89
39.88
30.57
21.66
12.73
3.55
-5.60
-13.72
-19.40
-21.19
-18.26
-10.77
0.03
12.29
24.17
34.39
42.55
48.92
54.09
58.54
62.47
65.83
68.58
70.93
73.27
76.15
79.97
84.90
90.82
97.44
104.37
111.26
117.73
123.39
127.78
130.46
131.13
129.67
126.35
121.72
116.55
111.61
107.38
103.92
100.79
97.17
92.24
85.51
77.14
68.02
59.62
53.60
51.31
53.26
58.82
66.20
72.80
75.99
73.86
65.84
52.76
36.49
19.08
2.17
-13.49
-27.86
-41.36
-54.50
-67.75
-81.56
-96.36
-112.30
-128.97
-145.23
-159.38
-169.71
-175.21
-176.09
-173.75
-170.29
-167.81
-167.62
-169.85
-173.33
-175.91
-175.09
-168.73
-155.67
-135.98
-110.82
-82.09
-51.93
-22.42
4.62
27.65
45.64
58.23
65.90
69.97
72.19
74.18
76.95
80.60
84.39
87.09
87.35
84.07
76.62
64.93
49.36
30.66
9.87
-11.81
-33.01
-52.38
-68.77
-81.49
-90.48
-96.24
-99.56
-101.21
-101.77
-101.57
-100.85
-99.92
-99.01
-98.23
-97.33
-95.82
-93.30
-89.73
-85.65
-82.01
-79.76
-79.33
-80.36
-81.75
-81.99
-79.69
-74.00
-64.86
-52.97
-39.56
-25.99
-13.48
-2.77
5.90
12.64
17.78
21.62
24.40
26.31
27.62
28.56
29.43
30.40
31.46
32.52
33.41
34.03
34.38
34.50
34.44
34.13
33.49
32.33
30.55
28.11
25.09
21.66
18.12
14.81
12.06
10.11
8.98
8.52
8.37
8.17
7.65
6.74
5.58
4.41
3.48
2.77
2.11
1.14
-0.41
-2.62
-5.40
-8.49
-11.62
-14.67
-17.67
-20.75
-24.07
-27.81
-32.01
-36.61
-41.27
-45.28
-47.65
-47.35
-43.67
-36.58
-26.81
-15.70
-4.80
4.60
11.76
16.50
19.06
19.88
19.42
18.05
16.14
13.99
11.93
10.19
8.91
8.17
7.95
8.19
8.85
9.89
11.31
13.05
15.02
17.12
19.25
21.40
23.60
25.94
28.46
31.13
33.83
36.38
38.52
39.95
40.32
39.19
36.19
31.12
24.11
15.69
6.72
-1.88
-9.32
-15.13
-19.20
-21.69
-22.98
-23.45
-23.39
-22.90
-21.79
-19.68
-16.12
-10.84
-3.88
4.37
13.26
22.10
30.23
37.15
42.43
45.89
47.49
47.49
46.34
44.55
42.59
40.71
38.98
37.44
36.17
35.28
34.88
34.85
34.85
34.28
32.50
29.07
23.89
17.25
9.66
1.74
-6.01
-13.32
-20.06
-26.19
-31.62
-36.28
-40.07
-43.06
-45.44
-47.53
-49.64
-51.91
-54.31
-56.65
-58.72
-60.43
-61.87
-63.33
-65.14
-67.69
-71.16
-75.62
-80.75
-85.90
-90.00
-91.86
-90.41
-85.06
-75.97
-63.95
-50.34
-36.58
-23.92
-13.18
-4.72
1.48
5.74
8.50
10.21
11.30
12.09
12.84
13.75
15.00
16.65
18.72
21.05
23.46
25.77
27.88
29.70
31.21
32.35
33.03
33.19
32.75
31.67
29.90
27.42
24.29
20.67
16.81
13.00
9.42
6.08
2.79
-0.75
-4.76
-9.28
-14.09
-18.85
-23.27
-27.19
-30.71
-34.16
-37.98
-42.66
-48.48
-55.43
-63.02
-70.25
-75.71
-77.88
-75.58
-68.34
-56.60
-41.71
-25.43
-9.57
4.51
16.05
24.89
31.21
35.30
37.53
38.17
37.61
36.32
34.85
33.74
33.32
33.69
34.66
35.93
37.20
38.28
39.12
39.75
40.15
40.20
39.73
38.52
36.43
33.41
29.52
24.89
19.72
14.20
8.53
2.92
-2.50
-7.61
-12.33
-16.58
-20.34
-23.64
-26.66
-29.77
-33.47
-38.16
-43.88
-50.04
-55.38
-58.31
-57.34
-51.69
-41.67
-28.57
-14.30
-0.78
10.55
19.01
24.63
27.83
29.17
29.09
27.97
26.11
23.88
21.70
19.98
19.03
18.95
19.63
20.82
22.26
23.72
25.04
25.99
26.30
25.62
23.67
20.33
15.74
10.26
4.40
-1.39
-6.85
-12.00
-17.09
-22.54
-28.71
-35.76
-43.40
-50.81
-56.75
-59.82
-58.90
-53.52
-44.10
-31.85
-18.40
-5.34
6.13
15.34
22.09
26.45
28.56
28.57
26.78
23.59
19.65
15.61
12.07
9.42
7.80
7.20
7.56
8.75
10.53
12.49
14.02
14.49
13.41
10.66
6.46
1.33
-4.18
-9.62
-14.80
-19.78
-24.84
-30.38
-36.85
-44.48
-53.02
-61.57
-68.64
-72.47
-71.59
-65.36
-54.19
-39.47
-23.12
-7.06
7.25
18.95
27.75
33.73
37.12
38.27
37.61
35.69
33.14
30.58
28.54
27.33
26.98
27.32
28.06
28.89
29.57
29.94
29.90
29.34
28.06
25.75
22.12
17.03
10.59
3.22
-4.47
-11.84
-18.46
-24.19
-29.24
-33.98
-38.84
-44.04
-49.35
-54.01
-56.78
-56.21
-51.15
-41.16
-26.82
-9.63
8.43
25.42
39.98
51.47
59.88
65.59
69.08
70.74
70.89
69.84
67.97
65.76
63.74
62.37
61.91
62.32
63.25
64.19
64.59
64.08
62.45
59.73
56.06
51.61
46.49
40.76
34.42
27.46
19.95
12.07
4.16
-3.40
-10.21
-16.07
-20.94
-25.03
-28.64
-32.15
-35.97
-40.49
-46.01
-52.50
-59.37
-65.41
-68.95
-68.35
-62.64
-51.93
-37.53
-21.48
-5.93
7.52
18.14
26.03
31.79
36.06
39.31
41.72
43.30
44.08
44.22
44.03
43.88
44.03
44.52
45.14
45.52
45.30
44.26
42.34
39.65
36.32
32.47
28.19
23.59
18.78
13.91
9.05
4.21
-0.56
-5.20
-9.57
-13.51
-16.91
-19.81
-22.42
-25.08
-28.18
-32.05
-36.91
-42.67
-48.87
-54.56
-58.48
-59.32
-56.17
-48.89
-38.24
-25.67
-12.93
-1.49
7.76
14.68
19.59
22.99
25.27
26.55
26.83
26.19
24.96
23.66
22.84
22.84
23.62
24.81
25.87
26.37
26.12
25.24
23.93
22.36
20.57
18.47
15.93
12.84
9.22
5.23
1.16
-2.65
-5.93
-8.55
-10.62
-12.46
-14.52
-17.28
-21.10
-26.10
-32.12
-38.58
-44.54
-48.83
-50.26
-48.08
-42.21
-33.33
-22.76
-12.00
-2.29
5.61
11.52
15.62
18.18
19.45
19.60
18.88
17.67
16.49
15.83
15.98
16.93
18.40
20.01
21.44
22.56
23.36
23.89
24.13
23.93
23.06
21.28
18.51
14.89
10.80
6.75
3.23
0.52
-1.43
-2.94
-4.54
-6.68
-9.57
-13.08
-16.82
-20.31
-23.23
-25.52
-27.42
-29.40
-32.02
-35.79
-40.98
-47.38
-54.24
-60.27
-63.88
-63.68
-58.95
-49.91
-37.73
-24.16
-11.00
0.36
9.24
15.64
20.03
23.07
25.32
27.12
28.57
29.63
30.25
30.55
30.79
31.24
32.04
33.10
34.11
34.73
34.77
34.28
33.47
32.57
31.65
30.60
29.19
27.16
24.39
20.95
17.05
13.03
9.24
5.94
3.22
0.98
-1.06
-3.22
-5.77
-8.80
-12.21
-15.77
-19.22
-22.38
-25.23
-27.96
-30.78
-33.99
-37.84
-42.51
-48.05
-54.23
-60.37
-65.40
-67.97
-66.88
-61.50
-52.10
-39.84
-26.45
-13.62
-2.67
5.92
12.26
16.90
20.44
23.31
25.69
27.64
29.18
30.38
31.45
32.54
33.79
35.17
36.51
37.67
38.48
38.93
39.03
38.75
37.99
36.63
34.58
31.88
28.74
25.44
22.20
19.08
16.02
12.92
9.72
6.59
3.72
1.29
-0.74
-2.58
-4.62
-7.16
-10.33
-13.98
-17.77
-21.40
-24.63
-27.49
-30.14
-32.88
-36.00
-39.77
-44.41
-49.90
-55.90
-61.59
-65.78
-67.18
-64.80
-58.40
-48.61
-36.80
-24.60
-13.47
-4.28
2.70
7.72
11.21
13.57
15.01
15.63
15.51
14.84
13.94
13.20
12.97
13.43
14.51
15.95
17.39
18.51
19.12
19.23
18.89
18.24
17.32
16.06
14.35
12.05
9.11
5.60
1.75
-2.16
-5.86
-9.18
-12.07
-14.58
-16.88
-19.15
-21.64
-24.60
-28.28
-32.78
-37.90
-43.05
-47.22
-49.27
-48.22
-43.65
-35.89
-26.01
-15.41
-5.46
2.88
9.20
13.55
16.24
17.58
17.83
17.17
15.86
14.26
12.78
11.85
11.69
12.30
13.43
14.71
15.74
16.28
16.23
15.70
14.85
13.83
12.66
11.21
9.25
6.49
2.84
-1.63
-6.58
-11.52
-15.99
-19.68
-22.64
-25.22
-27.98
-31.44
-35.96
-41.51
-47.64
-53.52
-58.05
-60.11
-58.84
-53.83
-45.34
-34.22
-21.78
-9.39
1.75
10.92
17.92
22.90
26.26
28.41
29.73
30.51
31.03
31.48
32.04
32.71
33.42
34.06
34.54
34.86
35.07
35.24
35.27
35.01
34.23
32.76
30.58
27.80
24.66
21.35
17.99
14.55
10.93
7.05
2.97
-1.16
-5.05
-8.46
-11.23
-13.48
-15.47
-17.64
-20.46
-24.33
-29.48
-35.78
-42.62
-48.88
-53.07
-53.68
-49.67
-40.97
-28.53
-14.15
0.15
12.73
22.78
30.35
36.10
40.84
45.24
49.58
53.85
57.88
61.50
64.68
67.47
69.96
72.29
74.60
77.16
80.40
84.67
90.11
96.21
101.79
105.12
104.50
98.85
88.14
73.44
56.56
39.49
23.81
10.36
-0.84
-10.36
-19.06
-27.73
-36.85
-46.48
-56.38
-66.16
-75.48
-84.16
-92.11
-99.33
-105.81
-111.46
-116.22
-119.90
-122.10
-122.16
-119.21
-112.48
-101.66
-87.24
-70.45
-53.04
-36.71
-22.71
-11.61
-3.40
2.32
6.00
7.99
8.52
7.84
6.28
4.37
2.70
1.76
1.75
2.54
3.72
4.81
5.50
5.75
5.74
5.68
5.56
5.13
3.98
1.73
-1.69
-5.99
-10.62
-14.94
-18.49
-21.17
-23.26
-25.25
-27.65
-30.76
-34.63
-39.04
-43.48
-47.26
-49.53
-49.44
-46.32
-39.96
-30.70
-19.46
-7.53
3.84
13.71
21.57
27.33
31.09
33.02
33.31
32.24
30.21
27.76
25.45
23.70
22.68
22.34
22.48
22.86
23.30
23.72
24.04
24.12
23.75
22.63
20.50
17.27
13.08
8.28
3.37
-1.22
-5.22
-8.66
-11.80
-15.13
-19.13
-24.11
-29.99
-36.18
-41.61
-44.94
-45.02
-41.20
-33.70
-23.57
-12.38
-1.71
7.33
14.28
19.31
22.91
25.52
27.31
28.23
28.20
27.27
25.83
24.41
23.58
23.68
24.69
26.31
28.08
29.60
30.66
31.18
31.15
30.56
29.34
27.36
24.55
20.93
16.62
11.86
6.92
2.07
-2.50
-6.65
-10.39
-13.77
-17.01
-20.33
-24.00
-28.26
-33.28
-39.04
-45.24
-51.17
-55.71
-57.59
-55.77
-49.83
-40.28
-28.38
-15.86
-4.31
5.21
12.36
17.44
21.04
23.73
25.90
27.69
29.15
30.38
31.46
32.55
33.66
34.66
35.38
35.64
35.50
35.18
34.96
34.97
35.06
34.83
33.81
31.71
28.53
24.59
20.34
16.25
12.57
9.37
6.50
3.67
0.63
-2.76
-6.43
-10.19
-13.75
-16.90
-19.66
-22.24
-25.10
-28.71
-33.44
-39.35
-46.03
-52.55
-57.59
-59.74
-57.92
-51.81
-41.96
-29.71
-16.81
-4.89
4.91
12.17
17.09
20.21
22.18
23.54
24.57
25.40
26.07
26.58
27.02
27.50
28.11
28.91
29.83
30.73
31.43
31.81
31.76
31.24
30.19
28.51
26.14
23.08
19.49
15.58
11.62
7.77
4.09
0.57
-2.82
-6.06
-9.12
-11.95
-14.60
-17.21
-20.02
-23.31
-27.37
-32.34
-38.07
-43.98
-49.02
-51.91
-51.45
-47.06
-39.01
-28.43
-16.91
-5.98
3.25
10.35
15.34
18.52
20.13
20.41
19.56
17.93
16.04
14.50
13.78
14.10
15.31
16.98
18.58
19.66
20.03
19.78
19.15
18.41
17.65
16.76
15.37
13.13
9.90
5.85
1.49
-2.57
-5.87
-8.35
-10.35
-12.45
-15.22
-18.99
-23.71
-28.88
-33.73
-37.24
-38.43
-36.59
-31.52
-23.66
-14.02
-3.90
5.45
13.16
18.86
22.60
24.70
25.49
25.31
24.43
23.12
21.72
20.59
20.05
20.28
21.18
22.48
23.71
24.46
24.49
23.82
22.69
21.43
20.27
19.19
17.90
16.01
13.23
9.49
5.07
0.42
-3.95
-7.69
-10.69
-13.13
-15.37
-17.81
-20.79
-24.51
-29.09
-34.51
-40.56
-46.77
-52.28
-55.95
-56.65
-53.59
-46.73
-36.84
-25.38
-13.99
-3.99
3.95
9.87
14.25
17.68
20.52
22.85
24.58
25.59
25.93
25.83
25.64
25.68
26.10
26.87
27.82
28.80
29.67
30.34
30.76
30.77
30.20
28.86
26.68
23.78
20.44
17.04
13.89
11.10
8.59
6.11
3.33
0.05
-3.77
-7.95
-12.16
-16.04
-19.39
-22.23
-24.86
-27.80
-31.59
-36.68
-43.04
-50.09
-56.63
-61.09
-62.02
-58.53
-50.69
-39.55
-26.81
-14.33
-3.55
4.82
10.80
14.91
17.82
20.05
21.85
23.26
24.26
24.87
25.21
25.47
25.77
26.15
26.58
26.98
27.30
27.53
27.62
27.52
27.08
26.15
24.61
22.45
19.74
16.65
13.34
9.89
6.37
2.79
-0.82
-4.36
-7.72
-10.71
-13.30
-15.48
-17.44
-19.43
-21.83
-25.00
-29.19
-34.34
-39.88
-44.79
-47.68
-47.31
-42.97
-34.88
-24.13
-12.31
-1.02
8.61
16.08
21.44
24.97
26.95
27.57
27.02
25.61
23.80
22.17
21.20
21.14
21.93
23.18
24.42
25.28
25.60
25.49
25.17
24.81
24.45
23.94
23.05
21.58
19.51
17.01
14.40
12.02
10.13
8.84
8.10
7.69
7.35
6.72
5.48
3.44
0.71
-2.11
-3.96
-3.53
0.34
8.22
19.82
33.96
48.88
62.58
73.29
79.65
80.85
76.70
67.53
54.27
38.35
21.44
5.25
-8.86
-20.13
-28.47
-34.27
-38.26
-41.16
-43.54
-45.75
-47.94
-50.11
-52.18
-53.98
-55.30
-55.90
-55.69
-54.75
-53.39
-52.08
-51.24
-51.08
-51.52
-52.21
-52.74
-52.86
-52.60
-52.39
-52.83
-54.53
-57.68
-61.89
-66.13
-68.94
-68.90
-65.12
-57.50
-46.80
-34.38
-21.79
-10.29
-0.69
6.73
12.11
15.77
18.11
19.55
20.49
21.26
22.12
23.21
24.55
26.06
27.63
29.11
30.37
31.33
31.92
32.11
31.84
31.09
29.84
28.10
25.92
23.31
20.31
16.87
12.99
8.73
4.21
-0.33
-4.63
-8.52
-11.95
-15.07
-18.12
-21.40
-25.19
-29.71
-35.09
-41.29
-47.91
-54.11
-58.67
-60.19
-57.62
-50.65
-39.92
-26.91
-13.47
-1.26
8.69
16.07
21.19
24.60
26.84
28.24
29.02
29.38
29.53
29.72
30.18
31.00
32.10
33.36
34.67
35.98
37.31
38.57
39.54
39.86
39.10
37.05
33.80
29.72
25.31
21.00
16.97
13.19
9.48
5.69
1.77
-2.22
-6.16
-9.92
-13.44
-16.73
-19.91
-23.23
-27.05
-31.78
-37.68
-44.61
-51.87
-58.15
-61.92
-61.86
-57.33
-48.66
-37.03
-24.13
-11.59
-0.62
8.20
14.85
19.64
22.97
25.19
26.50
27.08
27.06
26.68
26.15
25.75
25.66
25.94
26.49
27.11
27.55
27.65
27.33
26.63
25.61
24.32
22.70
20.61
17.90
14.48
10.37
5.77
0.93
-3.86
-8.36
-12.46
-16.08
-19.29
-22.22
-25.15
-28.41
-32.39
-37.33
-43.13
-49.30
-54.80
-58.35
-58.76
-55.31
-48.08
-37.92
-26.20
-14.39
-3.68
5.22
12.03
16.79
19.63
20.73
20.33
18.79
16.64
14.50
12.98
12.49
13.18
14.83
16.99
19.06
20.57
21.27
21.17
20.45
19.28
17.68
15.48
12.39
8.25
3.17
-2.48
-8.10
-13.08
-17.03
-19.86
-21.82
-23.36
-25.06
-27.45
-30.87
-35.32
-40.31
-44.86
-47.65
-47.41
-43.33
-35.46
-24.69
-12.54
-0.62
9.84
18.24
24.51
28.95
31.85
33.44
33.81
33.14
31.70
29.97
28.45
27.60
27.66
28.60
30.15
31.83
33.16
33.75
33.44
32.30
30.55
28.42
26.01
23.26
19.96
15.92
11.09
5.71
0.21
-4.91
-9.28
-12.85
-15.85
-18.75
-22.10
-26.38
-31.86
-38.52
-45.89
-53.05
-58.66
-61.25
-59.68
-53.53
-43.33
-30.49
-16.81
-3.95
7.04
15.78
22.46
27.46
31.19
33.82
35.48
36.28
36.45
36.33
36.32
36.75
37.71
39.09
40.60
41.84
42.49
42.37
41.47
39.91
37.85
35.43
32.75
29.80
26.50
22.74
18.43
13.57
8.32
2.97
-2.13
-6.68
-10.58
-13.94
-17.13
-20.51
-24.48
-29.26
-34.93
-41.24
-47.56
-52.84
-55.74
-55.05
-50.16
-41.31
-29.72
-17.14
-5.32
4.54
12.04
17.49
21.46
24.45
26.66
28.05
28.51
28.14
27.25
26.33
25.85
26.06
26.90
28.05
29.04
29.50
29.22
28.25
26.77
25.00
23.11
21.10
18.82
16.04
12.62
8.58
4.13
-0.37
-4.57
-8.22
-11.33
-14.08
-16.81
-19.87
-23.52
-27.93
-33.05
-38.59
-43.94
-48.13
-50.05
-48.69
-43.57
-35.02
-24.13
-12.47
-1.57
7.49
14.31
19.03
22.01
23.60
23.98
23.29
21.82
20.05
18.58
17.92
18.25
19.42
20.98
22.39
23.28
23.55
23.33
22.84
22.20
21.32
19.89
17.55
14.10
9.63
4.54
-0.53
-5.04
-8.65
-11.41
-13.65
-15.90
-18.67
-22.36
-27.14
-32.78
-38.64
-43.70
-46.75
-46.70
-42.97
-35.72
-25.84
-14.74
-3.90
5.56
13.10
18.71
22.74
25.59
27.59
28.90
29.60
29.78
29.56
29.13
28.68
28.39
28.42
28.82
29.57
30.53
31.46
32.05
32.02
31.16
29.41
26.83
23.56
19.80
15.70
11.34
6.82
2.19
-2.41
-6.82
-10.82
-14.29
-17.22
-19.76
-22.20
-24.87
-28.10
-32.15
-37.14
-42.92
-48.92
-54.09
-57.09
-56.65
-52.02
-43.43
-31.96
-19.33
-7.24
3.09
11.17
17.16
21.53
24.74
27.09
28.69
29.60
29.98
30.08
30.15
30.38
30.80
31.34
31.85
32.26
32.61
33.00
33.49
34.00
34.25
33.88
32.62
30.38
27.36
23.94
20.50
17.32
14.47
11.84
9.27
6.64
3.95
1.32
-1.08
-3.15
-4.90
-6.45
-8.04
-9.97
-12.57
-16.07
-20.53
-25.55
-30.32
-33.57
-34.08
-31.07
-24.63
-15.84
-6.45
1.72
7.40
10.18
10.50
9.21
7.09
4.64
1.98
-0.90
-3.92
-6.86
-9.38
-11.22
-12.29
-12.65
-12.50
-12.04
-11.41
-10.64
-9.75
-8.77
-7.83
-7.07
-6.66
-6.71
-7.27
-8.31
-9.73
-11.44
-13.30
-15.23
-17.12
-18.91
-20.56
-22.10
-23.61
-25.18
-26.92
-28.96
-31.46
-34.57
-38.35
-42.58
-46.64
-49.53
-50.17
-47.75
-42.05
-33.59
-23.47
-13.03
-3.40
4.71
11.05
15.72
18.95
20.95
21.81
21.62
20.58
19.02
17.43
16.31
16.03
16.68
18.01
19.58
20.90
21.65
21.66
20.96
19.62
17.78
15.53
12.97
10.17
7.17
3.97
0.53
-3.12
-6.91
-10.63
-14.06
-16.99
-19.42
-21.54
-23.70
-26.36
-29.89
-34.50
-40.01
-45.89
-51.20
-54.73
-55.37
-52.42
-45.90
-36.54
-25.63
-14.57
-4.52
3.87
10.45
15.39
18.98
21.44
22.95
23.63
23.72
23.52
23.39
23.64
24.41
25.64
27.08
28.43
29.42
29.96
30.09
29.94
29.63
29.13
28.28
26.86
24.72
21.83
18.46
14.98
11.78
9.13
7.05
5.27
3.39
1.02
-1.99
-5.51
-9.20
-12.65
-15.60
-18.04
-20.21
-22.53
-25.46
-29.46
-34.74
-41.11
-47.79
-53.44
-56.42
-55.30
-49.44
-39.20
-25.99
-11.67
1.98
13.84
23.54
31.31
37.67
43.05
47.68
51.58
54.72
57.13
59.00
60.72
62.73
65.49
69.25
74.01
79.37
84.59
88.67
90.50
89.14
84.02
75.18
63.24
49.33
34.77
20.75
8.08
-2.88
-12.16
-20.09
-27.14
-33.79
-40.48
-47.48
-54.80
-62.13
-68.93
-74.56
-78.53
-80.73
-81.49
-81.51
-81.66
-82.72
-85.08
-88.61
-92.53
-95.58
-96.25
-93.29
-86.16
-75.23
-61.78
-47.53
-34.15
-22.69
-13.50
-6.32
-0.67
3.78
7.15
9.41
10.65
11.16
11.41
11.92
13.01
14.75
17.03
19.64
22.43
25.31
28.17
30.78
32.86
34.10
34.32
33.55
31.92
29.65
26.88
23.67
20.08
16.17
12.07
7.97
4.03
0.39
-2.87
-5.73
-8.19
-10.40
-12.66
-15.38
-18.97
-23.56
-28.76
-33.63
-36.91
-37.38
-34.36
-27.96
-19.03
-8.86
1.21
10.12
17.33
22.66
26.19
28.10
28.54
27.71
25.89
23.54
21.21
19.43
18.56
18.67
19.49
20.60
21.58
22.20
22.47
22.51
22.39
21.99
21.00
19.10
16.15
12.27
7.82
3.26
-1.08
-5.10
-8.90
-12.69
-16.74
-21.24
-26.33
-32.03
-38.01
-43.58
-47.64
-48.96
-46.59
-40.26
-30.60
-18.95
-6.92
4.08
13.23
20.29
25.43
28.86
30.74
31.16
30.34
28.71
26.95
25.75
25.63
26.68
28.63
30.94
33.15
35.02
36.60
38.10
39.66
41.25
42.60
43.32
43.06
41.67
39.29
36.30
33.23
30.48
28.22
26.20
23.69
19.70
13.30
3.90
-8.48
-23.16
-38.96
-54.28
-67.43
-76.87
-81.54
-81.16
-76.31
-68.36
-59.12
-50.38
-43.46
-38.94
-36.71
-36.08
-36.14
-35.99
-34.99
-32.84
-29.61
-25.60
-21.15
-16.52
-11.75
-6.77
-1.57
3.82
9.20
14.27
18.73
22.32
24.82
26.05
25.86
24.28
21.53
18.04
14.35
10.88
7.81
5.00
2.12
-1.17
-4.99
-9.18
-13.38
-17.21
-20.47
-23.26
-25.97
-29.10
-33.21
-38.60
-45.24
-52.60
-59.56
-64.67
-66.48
-64.00
-57.02
-46.26
-33.12
-19.30
-6.25
5.12
14.51
22.06
28.08
32.87
36.56
39.26
41.09
42.30
43.22
44.20
45.45
47.04
48.79
50.40
51.56
52.05
51.78
50.83
49.33
47.37
44.93
41.85
37.93
33.12
27.54
21.59
15.77
10.45
5.78
1.59
-2.44
-6.55
-10.75
-14.81
-18.38
-21.24
-23.43
-25.31
-27.45
-30.47
-34.87
-40.82
-48.00
-55.55
-62.05
-65.91
-65.72
-60.82
-51.53
-39.16
-25.55
-12.49
-1.25
7.68
14.45
19.50
23.26
25.96
27.64
28.33
28.22
27.75
27.46
27.83
29.05
30.94
32.95
34.44
34.94
34.35
32.98
31.35
29.94
28.89
27.94
26.55
24.16
20.51
15.75
10.39
5.09
0.38
-3.51
-6.74
-9.69
-12.78
-16.35
-20.63
-25.66
-31.34
-37.25
-42.60
-46.25
-47.04
-44.15
-37.47
-27.77
-16.44
-5.04
5.17
13.48
19.76
24.18
26.94
28.18
27.98
26.58
24.45
22.30
20.82
20.51
21.45
23.26
25.32
26.96
27.78
27.65
26.75
25.36
23.65
21.59
18.98
15.54
11.10
5.73
-0.19
-6.12
-11.54
-16.10
-19.78
-22.85
-25.78
-29.04
-32.99
-37.82
-43.42
-49.42
-55.05
-59.27
-60.92
-59.06
-53.29
-43.98
-32.19
-19.44
-7.21
3.35
11.70
17.83
22.13
25.07
27.01
28.16
28.61
28.47
27.95
27.39
27.10
27.35
28.13
29.30
30.55
31.59
32.23
32.37
31.96
30.97
29.37
27.14
24.32
21.01
17.27
13.17
8.71
3.90
-1.14
-6.20
-10.96
-15.13
-18.57
-21.37
-23.92
-26.74
-30.42
-35.38
-41.70
-48.94
-56.12
-61.80
-64.47
-62.95
-56.88
-46.86
-34.31
-21.06
-8.70
1.72
9.89
16.07
20.77
24.45
27.39
29.69
31.42
32.64
33.54
34.28
35.05
35.94
36.90
37.88
38.78
39.55
40.12
40.43
40.30
39.54
37.94
35.42
32.05
28.09
23.90
19.78
15.89
12.17
8.41
4.43
0.13
-4.34
-8.74
-12.77
-16.32
-19.45
-22.49
-25.89
-30.09
-35.37
-41.68
-48.50
-54.79
-59.15
-60.18
-56.96
-49.47
-38.69
-26.26
-13.99
-3.20
5.55
12.40
17.84
22.31
25.92
28.57
30.06
30.42
29.94
29.16
28.64
28.73
29.48
30.64
31.78
32.51
32.59
32.02
30.94
29.56
27.92
25.95
23.44
20.18
16.10
11.32
6.22
1.26
-3.14
-6.81
-9.88
-12.66
-15.62
-19.13
-23.42
-28.47
-33.99
-39.40
-43.85
-46.38
-46.07
-42.38
-35.30
-25.50
-14.14
-2.57
8.04
16.93
23.87
28.97
32.49
34.63
35.51
35.24
34.05
32.40
30.91
30.13
30.39
31.57
33.20
34.63
35.32
35.05
33.97
32.43
30.75
28.97
26.88
24.09
20.27
15.30
9.40
3.00
-3.33
-9.12
-14.04
-18.05
-21.32
-24.22
-27.20
-30.72
-35.12
-40.46
-46.42
-52.24
-56.75
-58.67
-56.94
-51.13
-41.68
-29.77
-16.99
-4.85
5.61
13.97
20.27
24.84
27.98
29.95
30.99
31.33
31.29
31.10
30.94
30.80
30.62
30.31
29.82
29.14
28.27
27.09
25.49
23.28
20.36
16.78
12.72
8.46
4.28
0.34
-3.31
-6.78
-10.23
-13.74
-17.27
-20.65
-23.64
-26.04
-27.82
-29.17
-30.39
-31.90
-34.06
-37.18
-41.34
-46.36
-51.59
-55.98
-58.26
-57.36
-52.74
-44.72
-34.31
-23.00
-12.20
-2.97
4.22
9.39
12.83
14.97
16.19
16.81
17.14
17.43
17.91
18.69
19.83
21.29
23.04
25.00
27.08
29.16
31.10
32.71
33.74
34.01
33.37
31.83
29.51
26.66
23.54
20.38
17.27
14.17
10.88
7.26
3.22
-1.16
-5.63
-9.90
-13.71
-16.99
-19.85
-22.64
-25.84
-29.97
-35.30
-41.65
-48.21
-53.69
-56.56
-55.58
-50.32
-41.32
-29.98
-18.07
-7.15
1.82
8.60
13.44
16.75
18.90
20.06
20.35
19.90
19.01
18.03
17.34
17.19
17.65
18.58
19.68
20.61
21.08
20.94
20.23
19.09
17.71
16.09
14.12
11.58
8.29
4.23
-0.35
-5.05
-9.43
-13.24
-16.41
-19.11
-21.57
-24.02
-26.66
-29.67
-33.19
-37.30
-41.83
-46.24
-49.62
-50.85
-49.03
-43.79
-35.49
-25.20
-14.33
-4.20
4.25
10.59
14.84
17.25
18.17
17.96
17.04
15.84
14.81
14.31
14.48
15.24
16.30
17.36
18.21
18.80
19.23
19.58
19.81
19.70
18.91
17.11
14.14
10.10
5.32
0.23
-4.72
-9.24
-13.22
-16.77
-20.20
-23.95
-28.42
-33.82
-39.97
-46.16
-51.22
-53.82
-52.90
-48.05
-39.69
-28.96
-17.38
-6.36
3.08
10.54
16.06
19.93
22.44
23.78
24.08
23.49
22.27
20.88
19.77
19.34
19.72
20.81
22.28
23.74
24.86
25.46
25.58
25.29
24.65
23.59
21.92
19.38
15.85
11.39
6.31
1.08
-3.91
-8.43
-12.49
-16.28
-20.08
-24.16
-28.78
-34.14
-40.26
-46.81
-52.94
-57.37
-58.72
-55.98
-48.90
-38.22
-25.38
-12.09
0.26
10.86
19.60
26.74
32.66
37.60
41.62
44.68
46.84
48.30
49.44
50.70
52.47
54.97
58.20
61.94
65.75
68.98
70.84
70.56
67.60
61.95
54.12
45.13
36.09
27.81
20.50
13.77
6.84
-1.02
-10.27
-20.87
-32.35
-43.98
-54.93
-64.45
-72.01
-77.46
-81.04
-83.43
-85.58
-88.40
-92.49
-97.70
-103.14
-107.28
-108.45
-105.36
-97.58
-85.64
-70.89
-55.06
-39.75
-26.09
-14.62
-5.37
1.95
7.78
12.55
16.63
20.23
23.51
26.44
29.06
31.36
33.41
35.30
37.11
38.86
40.43
41.65
42.20
41.82
40.26
37.49
33.66
29.13
24.36
19.78
15.65
11.95
8.48
4.96
1.16
-3.01
-7.43
-11.80
-15.84
-19.36
-22.39
-25.17
-28.15
-31.87
-36.77
-43.05
-50.45
-58.16
-64.88
-69.07
-69.40
-65.14
-56.51
-44.64
-31.20
-17.90
-6.09
3.65
11.23
16.95
21.10
23.81
25.17
25.36
24.79
24.06
23.83
24.47
25.93
27.78
29.43
30.38
30.45
29.80
28.80
27.73
26.64
25.29
23.28
20.25
16.11
11.05
5.54
0.14
-4.66
-8.63
-11.87
-14.69
-17.61
-21.08
-25.44
-30.79
-36.88
-43.10
-48.48
-51.85
-52.07
-48.46
-41.00
-30.47
-18.22
-5.82
5.45
14.83
22.17
27.66
31.56
34.03
35.11
34.92
33.79
32.31
31.19
31.00
31.97
33.92
36.34
38.66
40.48
41.65
42.22
42.34
42.03
41.20
39.66
37.23
33.89
29.87
25.56
21.36
17.60
14.34
11.48
8.75
5.81
2.38
-1.77
-6.73
-12.37
-18.20
-23.35
-26.68
-27.00
-23.50
-16.06
-5.32
7.42
20.60
32.81
43.05
50.79
55.92
58.58
59.01
57.56
54.72
51.14
47.51
44.37
41.95
40.02
38.07
35.53
32.02
27.55
22.48
17.32
12.52
8.28
4.56
1.14
-2.21
-5.65
-9.15
-12.61
-15.81
-18.62
-21.04
-23.26
-25.51
-28.00
-30.74
-33.53
-36.07
-38.06
-39.41
-40.29
-41.09
-42.29
-44.36
-47.74
-52.66
-58.96
-65.97
-72.39
-76.51
-76.69
-71.91
-62.21
-48.74
-33.43
-18.30
-4.90
6.07
14.62
21.19
26.31
30.32
33.37
35.54
36.90
37.70
38.26
38.92
39.89
41.18
42.63
43.96
44.93
45.45
45.59
45.48
45.16
44.50
43.18
40.88
37.49
33.17
28.39
23.72
19.64
16.38
13.83
11.63
9.29
6.41
2.78
-1.50
-6.15
-10.74
-14.94
-18.65
-22.04
-25.50
-29.52
-34.57
-40.84
-48.18
-55.97
-63.10
-68.19
-69.84
-67.07
-59.72
-48.55
-35.05
-21.08
-8.28
2.29
10.33
16.13
20.26
23.28
25.55
27.22
28.32
28.94
29.26
29.54
30.02
30.77
31.72
32.66
33.40
33.83
33.99
33.92
33.59
32.86
31.52
29.40
26.52
23.05
19.31
15.57
11.95
8.46
4.97
1.41
-2.13
-5.49
-8.49
-11.02
-13.25
-15.48
-18.12
-21.57
-26.06
-31.59
-37.75
-43.71
-48.29
-50.18
-48.41
-42.66
-33.50
-22.25
-10.59
0.03
8.72
15.27
19.88
22.93
24.65
25.14
24.46
22.83
20.64
18.41
16.66
15.68
15.52
15.96
16.62
17.15
17.29
16.97
16.22
15.16
13.87
12.28
10.16
7.29
3.49
-1.14
-6.27
-11.40
-16.09
-20.07
-23.37
-26.24
-29.06
-32.20
-35.96
-40.54
-45.91
-51.73
-57.30
-61.50
-63.13
-61.25
-55.57
-46.62
-35.65
-24.13
-13.38
-4.21
3.17
8.89
13.21
16.26
18.07
18.70
18.34
17.43
16.51
16.04
16.27
17.21
18.67
20.40
22.22
23.98
25.53
26.66
27.10
26.58
24.96
22.33
18.97
15.26
11.51
7.85
4.21
0.44
-3.62
-8.00
-12.61
-17.33
-21.99
-26.52
-30.88
-35.16
-39.55
-44.35
-49.90
-56.32
-63.26
-69.74
-74.31
-75.40
-71.92
-63.69
-51.52
-37.01
-21.96
-7.91
4.15
13.85
21.27
26.64
30.28
32.47
33.47
33.55
32.97
32.00
30.89
29.89
29.14
28.74
28.65
28.75
28.86
28.79
28.47
27.87
27.03
25.96
24.65
23.04
21.08
18.81
16.27
13.59
10.80
7.89
4.78
1.42
-2.18
-5.92
-9.64
-13.23
-16.70
-20.30
-24.43
-29.57
-35.94
-43.27
-50.61
-56.42
-59.11
-57.48
-51.30
-41.34
-29.14
-16.48
-4.84
4.90
12.49
18.06
21.98
24.56
26.06
26.70
26.65
26.20
25.61
25.19
25.15
25.62
26.53
27.69
28.79
29.56
29.83
29.53
28.71
27.43
25.77
23.75
21.33
18.45
15.06
11.17
6.88
2.35
-2.26
-6.83
-11.25
-15.49
-19.45
-23.12
-26.56
-30.04
-33.99
-38.81
-44.53
-50.63
-55.91
-58.87
-58.20
-53.37
-44.82
-33.88
-22.23
-11.35
-2.13
5.17
10.70
14.64
17.06
17.94
17.36
15.66
13.50
11.65
10.74
11.05
12.45
14.46
16.54
18.23
19.28
19.67
19.49
18.85
17.78
16.20
13.94
10.89
7.00
2.40
-2.56
-7.44
-11.80
-15.38
-18.19
-20.57
-23.00
-26.01
-29.98
-35.07
-41.16
-47.72
-53.83
-58.25
-59.69
-57.24
-50.71
-40.83
-29.02
-16.90
-5.78
3.66
11.28
17.28
21.82
24.91
26.48
26.63
25.73
24.38
23.28
22.97
23.69
25.32
27.47
29.61
31.31
32.24
32.30
31.54
30.09
28.07
25.58
22.65
19.29
15.57
11.57
7.34
3.02
-1.28
-5.38
-9.07
-12.19
-14.76
-17.01
-19.43
-22.63
-27.14
-33.17
-40.33
-47.63
-53.60
-56.69
-55.71
-50.27
-40.85
-28.76
-15.65
-3.09
7.85
16.74
23.68
29.10
33.42
36.92
39.69
41.75
43.14
44.00
44.59
45.16
45.90
46.85
47.88
48.83
49.54
49.93
50.01
49.71
48.96
47.56
45.31
42.14
38.14
33.63
29.05
24.83
21.19
18.04
15.06
11.86
8.16
4.04
-0.19
-4.08
-7.33
-9.93
-12.15
-14.50
-17.45
-21.36
-26.36
-32.22
-38.29
-43.47
-46.38
-45.72
-40.72
-31.50
-19.10
-5.15
8.74
21.42
32.37
41.60
49.20
55.07
58.87
60.23
59.02
55.63
50.92
45.97
41.65
38.36
35.91
33.69
31.02
27.50
23.12
18.25
13.32
8.60
4.06
-0.44
-5.07
-9.72
-14.02
-17.48
-19.73
-20.76
-20.95
-20.95
-21.36
-22.59
-24.66
-27.26
-29.95
-32.28
-34.05
-35.29
-36.29
-37.51
-39.41
-42.34
-46.44
-51.50
-56.94
-61.80
-64.89
-65.08
-61.66
-54.54
-44.38
-32.41
-20.09
-8.70
0.93
8.50
14.14
18.17
20.88
22.46
23.01
22.67
21.75
20.69
20.03
20.16
21.18
22.88
24.78
26.36
27.28
27.48
27.10
26.29
25.11
23.44
21.10
18.00
14.22
10.07
5.91
2.11
-1.17
-3.96
-6.48
-9.03
-11.96
-15.49
-19.81
-24.87
-30.46
-36.07
-40.94
-44.12
-44.69
-42.08
-36.27
-27.87
-17.97
-7.85
1.44
9.30
15.52
20.17
23.37
25.13
25.53
24.79
23.32
21.72
20.57
20.18
20.57
21.53
22.69
23.74
24.49
24.87
24.85
24.38
23.35
21.65
19.28
16.33
13.04
9.68
6.39
3.21
-0.02
-3.47
-7.27
-11.31
-15.33
-18.99
-22.03
-24.44
-26.45
-28.53
-31.17
-34.75
-39.41
-44.93
-50.62
-55.39
-57.97
-57.25
-52.69
-44.53
-33.84
-22.14
-10.98
-1.45
6.05
11.71
16.03
19.47
22.27
24.40
25.78
26.43
26.57
26.62
26.99
27.92
29.40
31.17
32.86
34.16
34.85
34.88
34.29
33.17
31.63
29.76
27.65
25.32
22.77
20.02
17.14
14.30
11.72
9.48
7.54
5.61
3.34
0.50
-2.97
-6.85
-10.83
-14.59
-17.92
-20.77
-23.29
-25.81
-28.80
-32.81
-38.23
-45.05
-52.67
-59.89
-65.18
-67.12
-64.86
-58.39
-48.53
-36.65
-24.23
-12.56
-2.50
5.58
11.67
16.01
18.91
20.73
21.78
22.38
22.78
23.22
23.83
24.67
25.69
26.77
27.77
28.61
29.25
29.70
29.98
30.06
29.83
29.19
28.03
26.32
24.08
21.41
18.44
15.33
12.21
9.15
6.18
3.35
0.68
-1.79
-4.04
-6.09
-8.10
-10.25
-12.78
-15.80
-19.27
-22.98
-26.69
-30.14
-33.32
-36.42
-39.90
-44.32
-50.05
-57.03
-64.48
-71.02
-74.99
-74.95
-70.24
-61.21
-49.20
-35.95
-23.19
-12.09
-3.13
3.81
9.09
13.11
16.12
18.22
19.49
20.13
20.44
20.81
21.55
22.77
24.38
26.15
27.82
29.23
30.36
31.20
31.73
31.80
31.21
29.78
27.49
24.52
21.17
17.74
14.40
11.13
7.73
3.98
-0.24
-4.85
-9.55
-13.99
-17.90
-21.23
-24.17
-27.13
-30.56
-34.89
