1707228615.00
64.000000
-0.00
-0.00
-0.00
-0.00
-0.00
-0.00
-0.00
-0.00
-0.00
-0.00
0.00
0.01
0.01
-0.00
-0.03
-0.05
-0.05
0.00
0.13
0.36
0.66
1.01
1.37
1.72
2.06
2.40
2.79
3.24
3.80
4.42
5.06
5.66
6.20
6.68
7.15
7.68
8.31
9.14
10.09
11.04
11.88
12.56
13.14
13.76
14.65
15.96
17.91
20.32
22.90
25.38
27.58
29.57
31.68
34.32
37.81
42.54
48.15
54.10
59.83
64.97
69.58
74.14
79.34
85.71
93.76
103.00
112.62
121.73
129.77
136.75
143.30
150.75
157.77
166.64
177.95
191.79
206.97
220.57
228.25
225.36
208.53
176.87
132.76
80.05
23.07
-34.94
-92.44
-149.16
-205.23
-260.37
-313.74
-363.87
-409.83
-450.91
-486.50
-515.74
-537.23
-549.22
-549.96
-538.37
-514.21
-478.67
-433.88
-382.45
-327.02
-269.84
-212.63
-156.66
-102.95
-52.37
-5.90
35.58
71.43
101.35
125.50
144.38
158.69
169.15
176.37
180.75
182.57
182.07
179.51
175.23
169.65
163.18
156.15
148.81
141.30
133.69
126.02
118.33
110.69
103.16
95.80
88.68
81.83
75.25
68.95
62.95
57.25
51.86
46.78
42.03
37.59
33.45
29.61
26.07
22.81
19.83
17.11
14.67
12.48
10.54
8.83
7.35
6.07
4.97
4.05
3.27
2.62
2.09
1.65
1.30
1.01
0.79
0.61
0.48
0.37
0.29
0.24
0.20
0.18
0.17
0.17
0.19
0.21
0.23
0.27
0.30
0.35
0.39
0.43
0.47
0.52
0.57
0.64
0.71
0.78
0.83
0.85
0.85
0.82
0.80
0.82
0.89
1.02
1.17
1.33
1.47
1.58
1.69
1.82
2.01
2.27
2.62
3.00
3.37
3.69
3.94
4.16
4.42
4.81
5.37
6.07
6.83
7.51
7.99
8.26
8.39
8.58
9.03
9.87
11.05
12.35
13.46
14.14
14.25
13.96
13.53
13.28
13.31
13.42
13.14
11.84
9.08
4.70
-0.95
-7.27
-13.54
-19.25
-24.25
-28.73
-33.03
-37.43
-42.15
-47.33
-52.99
-58.73
-63.45
-65.40
-62.71
-54.21
-40.38
-23.43
-6.68
6.77
15.23
18.85
19.17
18.04
16.72
15.53
14.25
12.67
11.01
9.79
9.42
9.86
10.51
10.67
9.81
7.96
5.78
4.25
4.24
6.07
9.38
13.19
16.29
17.68
16.96
14.40
10.72
6.78
3.25
0.47
-1.55
-2.89
-3.68
-3.99
-3.90
-3.60
-3.33
-3.37
-3.87
-4.85
-6.19
-7.73
-9.34
-10.99
-12.81
-14.95
-17.56
-20.67
-24.19
-27.86
-31.47
-34.87
-38.09
-41.33
-44.83
-48.78
-53.18
-57.86
-62.51
-66.75
-70.16
-72.24
-72.49
-70.47
-65.95
-59.09
-50.31
-40.15
-29.09
-17.43
-5.34
7.01
19.34
31.28
42.56
53.08
62.90
72.08
80.45
87.54
92.71
95.43
95.57
93.38
89.45
84.42
78.76
72.64
66.11
59.19
51.99
44.76
37.77
31.23
25.28
19.93
15.12
10.72
6.50
2.17
-2.50
-7.58
-12.79
-17.53
-20.95
-22.28
-21.07
-17.43
-12.04
-5.91
-0.02
4.93
8.68
11.28
12.92
13.69
13.59
12.64
11.05
9.23
7.67
6.77
6.58
6.84
7.18
7.32
7.19
6.91
6.69
6.62
6.67
6.63
6.26
5.37
3.88
1.90
-0.30
-2.44
-4.31
-5.90
-7.42
-9.16
-11.36
-14.05
-17.15
-20.51
-24.00
-27.54
-30.89
-33.54
-34.73
-33.71
-30.12
-24.23
-16.96
-9.49
-2.85
2.44
6.39
9.30
11.40
12.73
13.17
12.65
11.40
9.93
8.83
8.52
9.01
10.04
11.13
11.92
12.19
11.91
11.11
9.84
8.18
6.22
4.12
1.95
-0.24
-2.51
-4.87
-7.25
-9.43
-11.18
-12.42
-13.31
-14.20
-15.48
-17.40
-19.86
-22.41
-24.40
-25.09
-24.00
-21.00
-16.39
-10.75
-4.84
0.69
5.39
9.14
11.96
13.95
15.18
15.60
15.20
14.05
12.44
10.78
9.49
8.83
8.85
9.32
9.91
10.30
10.31
9.97
9.37
8.59
7.62
6.32
4.62
2.55
0.31
-1.82
-3.61
-5.04
-6.30
-7.69
-9.48
-11.76
-14.39
-17.05
-19.37
-20.96
-21.43
-20.46
-17.78
-13.43
-7.78
-1.58
4.29
9.08
12.40
14.34
15.24
15.51
15.40
14.98
14.24
13.25
12.22
11.39
10.94
10.89
11.14
11.56
12.02
12.46
12.78
12.84
12.48
11.57
10.12
8.24
6.17
4.15
2.29
0.63
-0.89
-2.35
-3.88
-5.59
-7.65
-10.20
-13.15
-16.22
-18.76
-19.99
-19.24
-16.27
-11.48
-5.76
-0.18
4.43
7.70
9.75
10.93
11.55
11.72
11.45
10.77
9.90
9.24
9.17
9.86
11.10
12.39
13.15
13.02
12.01
10.47
8.86
7.48
6.37
5.24
3.79
1.78
-0.70
-3.32
-5.66
-7.40
-8.49
-9.16
-9.87
-11.10
-13.19
-16.20
-19.85
-23.63
-26.86
-28.86
-29.10
-27.32
-23.58
-18.30
-12.19
-6.04
-0.56
3.86
7.13
9.47
11.12
12.26
12.92
13.10
12.88
12.49
12.24
12.37
12.88
13.54
14.00
13.97
13.37
12.35
11.16
10.00
8.88
7.67
6.22
4.48
2.58
0.73
-0.82
-2.02
-2.94
-3.78
-4.74
-5.96
-7.41
-9.02
-10.72
-12.51
-14.54
-16.93
-19.74
-22.72
-25.29
-26.61
-25.84
-22.53
-16.87
-9.77
-2.49
3.81
8.55
11.83
14.24
16.44
18.77
21.17
23.30
24.87
25.83
26.45
27.10
28.05
29.33
30.74
32.01
32.94
33.47
33.66
33.52
32.93
31.65
29.46
26.22
22.06
17.33
12.41
7.61
3.02
-1.46
-6.01
-10.76
-15.74
-20.85
-25.95
-30.90
-35.63
-40.16
-44.53
-48.79
-52.88
-56.55
-59.33
-60.53
-59.53
-55.97
-49.95
-42.09
-33.38
-24.82
-17.18
-10.84
-5.71
-1.52
2.07
5.25
8.08
10.62
12.90
15.03
17.10
19.15
21.17
23.08
24.84
26.38
27.67
28.61
29.08
28.92
27.99
26.30
24.03
21.48
18.99
16.76
14.80
12.88
10.71
8.04
4.84
1.29
-2.27
-5.54
-8.35
-10.71
-12.83
-14.97
-17.42
-20.33
-23.67
-27.10
-30.01
-31.64
-31.25
-28.45
-23.33
-16.51
-8.99
-1.81
4.24
8.82
12.07
14.37
16.15
17.64
18.83
19.58
19.83
19.67
19.36
19.25
19.65
20.66
22.23
24.18
26.24
28.17
29.74
30.82
31.39
31.50
31.25
30.69
29.80
28.54
26.92
25.09
23.28
21.71
20.48
19.51
18.61
17.60
16.32
14.68
12.55
9.79
6.22
1.80
-3.25
-8.55
-13.53
-17.69
-20.72
-22.52
-23.22
-23.10
-22.51
-21.85
-21.51
-21.84
-23.06
-25.26
-28.33
-32.05
-36.06
-39.99
-43.43
-46.00
-47.48
-47.83
-47.20
-45.90
-44.25
-42.51
-40.81
-39.18
-37.60
-36.11
-34.76
-33.55
-32.39
-31.10
-29.50
-27.49
-25.12
-22.60
-20.20
-18.20
-16.75
-15.90
-15.58
-15.67
-16.04
-16.52
-16.84
-16.67
-15.55
-13.14
-9.25
-4.09
1.82
7.77
13.08
17.32
20.39
22.39
23.48
23.76
23.30
22.25
20.91
19.81
19.44
20.11
21.72
23.73
25.45
26.27
25.93
24.57
22.53
20.15
17.55
14.70
11.50
7.94
4.14
0.36
-3.15
-6.31
-9.13
-11.80
-14.45
-17.16
-19.91
-22.56
-24.87
-26.47
-26.89
-25.61
-22.26
-16.75
-9.42
-0.89
7.93
16.19
23.23
28.63
32.33
34.44
35.20
34.92
33.97
32.72
31.48
30.40
29.42
28.37
26.99
25.15
22.85
20.21
17.38
14.32
10.85
6.67
1.63
-4.15
-10.18
-15.81
-20.44
-23.80
-26.07
-27.63
-28.99
-30.45
-32.18
-34.16
-36.36
-38.65
-40.84
-42.50
-42.98
-41.66
-38.17
-32.79
-26.39
-20.16
-15.26
-12.27
-11.13
-11.18
-11.56
-11.49
-10.63
-9.05
-7.18
-5.61
-4.84
-5.00
-5.80
-6.60
-6.62
-5.34
-2.82
0.32
3.01
4.30
3.72
1.49
-1.53
-4.25
-5.69
-5.27
-3.03
0.26
3.08
3.21
-1.62
-12.73
-29.25
-47.54
-61.85
-66.30
-57.39
-35.80
-6.48
23.32
46.88
60.43
63.91
59.95
52.00
42.77
33.81
26.04
20.51
18.64
21.69
29.94
42.18
55.96
68.42
77.38
81.92
82.46
80.26
76.69
72.74
68.88
65.21
61.78
58.74
56.22
54.13
51.87
48.39
42.46
33.22
20.45
4.70
-12.82
-30.61
-47.11
-60.90
-70.89
-76.51
-77.81
-75.57
-71.04
-65.52
-60.00
-54.74
-49.40
-43.33
-35.98
-27.23
-17.42
-7.20
2.78
11.96
19.99
26.58
31.49
34.46
35.36
34.19
31.20
26.81
21.51
15.77
9.83
3.78
-2.45
-9.00
-15.98
-23.44
-31.33
-39.51
-47.78
-55.82
-63.15
-69.04
-72.65
-73.19
-70.25
-64.06
-55.49
-45.74
-35.96
-26.93
-18.98
-12.30
-7.22
-4.23
-3.86
-6.29
-11.00
-16.91
-22.72
-27.47
-30.86
-33.33
-35.68
-38.75
-43.02
-48.46
-54.68
-61.11
-67.26
-72.92
-78.11
-83.14
-88.26
-93.64
-99.13
-104.32
-108.64
-111.47
-112.32
-110.77
-106.50
-99.25
-88.96
-75.81
-60.48
-44.01
-27.58
-12.14
2.04
15.39
28.82
43.16
58.64
74.63
89.88
103.07
113.40
120.87
126.11
129.89
132.66
134.30
134.23
131.87
127.01
119.94
111.54
102.87
95.00
88.68
84.22
81.40
79.66
78.15
76.09
73.16
69.61
66.27
64.26
64.43
66.61
69.43
70.52
67.24
57.94
42.95
24.80
7.43
-4.99
-9.09
-2.95
13.67
39.16
69.93
100.34
123.52
133.09
125.34
100.70
63.57
20.28
-23.84
-66.32
-107.43
-147.80
-185.80
-216.36
-232.37
-228.13
-202.66
-160.89
-111.89
-65.54
-28.65
-3.23
12.77
23.01
30.19
34.81
35.67
31.55
22.68
11.29
0.66
-6.25
-8.18
-5.77
-1.07
3.69
7.17
9.33
11.22
14.10
18.65
24.47
30.25
34.42
35.93
34.79
32.09
29.48
28.39
29.50
32.42
36.03
38.92
39.98
38.68
35.00
29.27
21.99
13.76
5.13
-3.36
-11.31
-18.59
-25.29
-31.71
-38.12
-44.64
-51.20
-57.59
-63.46
-68.38
-71.74
-72.82
-71.01
-65.97
-57.98
-47.89
-36.91
-26.28
-16.88
-9.14
-3.05
1.56
4.96
7.38
9.09
10.39
11.52
12.64
13.67
14.36
14.42
13.71
12.37
10.84
9.65
9.25
9.72
10.75
11.74
12.05
11.28
9.38
6.70
3.67
0.74
-1.81
-3.88
-5.52
-6.87
-8.16
-9.69
-11.69
-14.19
-16.87
-19.02
-19.71
-18.05
-13.56
-6.42
2.54
12.07
20.84
27.81
32.52
35.05
35.89
35.61
34.62
33.06
30.91
28.20
25.13
22.12
19.54
17.55
15.95
14.33
12.32
9.86
7.23
4.86
3.15
2.10
1.32
0.22
-1.71
-4.63
-8.25
-11.96
-15.15
-17.45
-18.95
-20.08
-21.32
-22.98
-25.11
-27.55
-30.09
-32.54
-34.67
-36.07
-36.13
-34.21
-29.94
-23.46
-15.44
-6.76
1.83
9.90
17.36
24.15
30.05
34.60
37.36
38.14
37.30
35.61
34.04
33.34
33.78
35.13
36.74
37.97
38.40
37.99
36.94
35.52
33.81
31.67
28.91
25.41
21.28
16.78
12.21
7.72
3.30
-1.20
-5.96
-11.04
-16.45
-22.09
-27.77
-33.17
-37.77
-40.90
-41.93
-40.42
-36.37
-30.19
-22.64
-14.58
-6.81
0.05
5.63
9.76
12.41
13.68
13.84
13.25
12.47
12.21
13.04
15.21
18.37
21.67
24.02
24.70
23.67
21.61
19.48
18.05
17.48
17.42
17.35
16.96
16.42
16.17
16.58
17.67
19.03
20.00
19.81
17.81
13.49
6.64
-2.63
-13.71
-25.62
-37.23
-47.53
-55.89
-62.14
-66.41
-68.86
-69.56
-68.38
-65.10
-59.62
-52.11
-43.07
-33.17
-23.08
-13.18
-3.48
6.33
16.59
27.34
38.21
48.34
56.73
62.44
64.87
63.75
59.18
51.52
41.46
30.02
18.40
7.77
-1.03
-7.75
-12.68
-16.44
-19.59
-22.38
-24.63
-25.98
-25.96
-24.25
-20.79
-15.71
-9.36
-2.18
5.30
12.53
18.93
24.00
27.37
28.88
28.65
27.00
24.42
21.41
18.34
15.38
12.55
9.74
6.80
3.65
0.29
-3.16
-6.62
-9.94
-13.10
-16.09
-18.94
-21.65
-24.18
-26.47
-28.50
-30.37
-32.32
-34.67
-37.59
-40.95
-44.21
-46.43
-46.65
-44.19
-39.01
-31.72
-23.42
-15.29
-8.23
-2.65
1.46
4.33
6.20
7.26
7.59
7.34
6.77
6.19
5.89
6.07
6.77
7.89
9.24
10.60
11.70
12.32
12.26
11.41
9.79
7.58
5.05
2.52
0.18
-1.95
-3.98
-6.17
-8.72
-11.73
-15.10
-18.55
-21.65
-23.87
-24.69
-23.64
-20.51
-15.45
-8.99
-2.03
4.41
9.48
12.76
14.30
14.55
14.06
13.24
12.28
11.15
9.80
8.32
6.91
5.81
5.22
5.06
5.14
5.22
5.07
4.58
3.74
2.55
1.04
-0.65
-2.29
-3.60
-4.31
-4.43
-4.17
-3.96
-4.23
-5.17
-6.55
-7.82
-8.22
-7.09
-4.15
0.45
6.07
11.90
17.15
21.27
24.05
25.53
25.93
25.42
24.15
22.28
20.03
17.77
15.93
14.81
14.51
14.85
15.40
15.67
15.23
13.85
11.49
8.29
4.55
0.59
-3.19
-6.54
-9.25
-11.30
-12.78
-13.93
-15.00
-16.17
-17.35
-18.10
-17.68
-15.24
-10.09
-2.11
8.11
19.39
30.29
39.56
46.54
51.22
54.13
55.87
56.89
57.26
56.78
55.19
52.41
48.66
44.34
39.94
35.78
31.96
28.44
25.06
21.71
18.37
15.13
12.15
9.75
8.36
8.46
10.41
14.22
19.23
24.11
27.06
26.17
20.11
8.61
-7.32
-25.52
-43.31
-58.26
-68.83
-74.70
-76.52
-75.44
-72.60
-68.85
-64.67
-60.39
-56.34
-52.87
-50.18
-48.18
-46.44
-44.36
-41.38
-37.24
-32.02
-26.09
-19.97
-14.14
-8.89
-4.28
-0.22
3.35
6.33
8.35
8.91
7.56
4.06
-1.40
-8.35
-16.22
-24.44
-32.60
-40.36
-47.30
-52.95
-56.77
-58.37
-57.54
-54.43
-49.48
-43.41
-37.10
-31.41
-27.07
-24.49
-23.79
-24.60
-26.16
-27.21
-26.17
-21.43
-11.90
2.45
20.32
39.17
55.98
68.14
74.31
74.65
70.57
63.92
56.36
48.95
42.20
36.34
31.50
27.84
25.28
23.40
21.40
18.38
13.78
7.76
1.28
-4.12
-6.97
-6.39
-2.53
3.53
10.20
15.89
19.58
20.96
20.37
18.46
15.95
13.35
10.93
8.77
6.86
5.21
3.90
2.99
2.46
2.09
1.53
0.34
-1.69
-4.48
-7.62
-10.58
-12.96
-14.68
-16.00
-17.30
-18.95
-21.06
-23.51
-26.15
-28.80
-31.45
-34.00
-36.26
-37.78
-37.95
-36.23
-32.36
-26.56
-19.46
-11.92
-4.78
1.43
6.44
10.23
12.81
14.22
14.49
13.82
12.53
11.09
9.92
9.33
9.42
10.09
11.08
12.04
12.60
12.47
11.54
9.95
8.05
6.26
4.87
3.90
3.10
2.11
0.64
-1.40
-3.91
-6.75
-9.76
-12.75
-15.38
-17.12
-17.33
-15.52
-11.54
-5.80
0.85
7.39
12.91
16.88
19.19
20.03
19.69
18.43
16.49
14.13
11.67
9.53
8.14
7.81
8.51
9.91
11.34
12.13
11.76
10.11
7.50
4.51
1.70
-0.56
-2.26
-3.69
-5.24
-7.23
-9.83
-13.10
-16.94
-21.18
-25.44
-29.10
-31.32
-31.30
-28.55
-23.18
-15.95
-8.04
-0.68
5.31
9.68
12.74
14.98
16.68
17.82
18.09
17.23
15.30
12.80
10.44
8.91
8.52
9.08
10.10
10.96
11.11
10.27
8.41
5.74
2.66
-0.37
-2.99
-5.01
-6.50
-7.73
-9.04
-10.71
-12.86
-15.55
-18.71
-22.23
-25.79
-28.87
-30.67
-30.43
-27.62
-22.31
-15.16
-7.31
0.07
6.00
9.99
12.05
12.57
12.06
11.04
9.90
8.85
8.01
7.43
7.12
7.09
7.25
7.44
7.54
7.44
7.15
6.78
6.49
6.39
6.45
6.46
6.19
5.42
4.05
2.11
-0.34
-3.18
-6.28
-9.47
-12.58
-15.53
-18.21
-20.46
-21.92
-22.06
-20.30
-16.40
-10.59
-3.70
3.17
9.07
13.46
16.34
18.05
18.90
18.97
18.26
16.81
14.94
13.24
12.30
12.44
13.45
14.73
15.51
15.32
14.16
12.45
10.76
9.43
8.35
7.13
5.30
2.73
-0.33
-3.34
-5.76
-7.39
-8.43
-9.43
-11.02
-13.65
-17.42
-21.98
-26.58
-30.27
-32.05
-31.24
-27.64
-21.67
-14.27
-6.54
0.55
6.47
11.09
14.57
17.11
18.74
19.42
19.13
18.05
16.58
15.28
14.60
14.74
15.58
16.78
17.97
18.84
19.26
19.15
18.51
17.26
15.41
12.97
10.12
7.11
4.16
1.49
-0.81
-2.70
-4.25
-5.55
-6.82
-8.35
-10.44
-13.22
-16.44
-19.44
-21.30
-21.10
-18.35
-13.16
-6.32
1.01
7.64
12.71
15.87
17.23
17.21
16.30
14.95
13.43
11.98
10.80
10.04
9.86
10.26
11.06
11.91
12.41
12.29
11.50
10.20
8.68
7.18
5.78
4.32
2.62
0.50
-1.98
-4.65
-7.28
-9.77
-12.15
-14.58
-17.20
-20.08
-23.11
-26.07
-28.58
-30.10
-30.07
-27.93
-23.46
-16.96
-9.24
-1.47
5.26
10.30
13.65
15.80
17.34
18.64
19.65
20.12
19.84
18.92
17.76
16.85
16.50
16.65
16.93
16.84
16.14
14.83
13.27
11.85
10.77
9.94
8.98
7.45
5.09
2.02
-1.35
-4.42
-6.68
-8.00
-8.60
-9.06
-10.01
-11.91
-14.90
-18.69
-22.66
-26.03
-28.05
-28.09
-25.87
-21.44
-15.28
-8.13
-0.91
5.59
10.83
14.63
17.09
18.45
18.94
18.74
17.96
16.70
15.17
13.66
12.51
11.97
12.13
12.81
13.67
14.29
14.33
13.65
12.33
10.60
8.69
6.74
4.77
2.70
0.47
-1.94
-4.40
-6.72
-8.64
-9.96
-10.66
-10.98
-11.37
-12.37
-14.39
-17.41
-21.00
-24.33
-26.51
-26.81
-24.90
-20.94
-15.42
-9.07
-2.65
3.19
7.95
11.37
13.31
13.82
13.08
11.47
9.47
7.69
6.68
6.71
7.71
9.28
10.86
11.98
12.42
12.29
11.88
11.43
11.05
10.65
9.97
8.79
7.01
4.70
2.11
-0.51
-2.91
-5.02
-6.86
-8.53
-10.14
-11.75
-13.39
-15.07
-16.89
-18.88
-21.00
-22.99
-24.35
-24.47
-22.91
-19.53
-14.64
-8.92
-3.16
1.91
5.79
8.24
9.31
9.23
8.29
6.85
5.27
3.93
3.17
3.24
4.25
6.07
8.29
10.36
11.75
12.20
11.75
10.71
9.43
8.09
6.62
4.84
2.61
0.02
-2.65
-5.02
-6.92
-8.43
-9.92
-11.81
-14.44
-17.73
-21.27
-24.35
-26.21
-26.28
-24.38
-20.73
-15.89
-10.54
-5.26
-0.44
3.78
7.43
10.63
13.43
15.83
17.73
19.03
19.74
20.00
20.05
20.06
20.02
19.76
18.99
17.61
15.73
13.75
12.08
10.92
10.19
9.56
8.68
7.31
5.38
2.96
0.19
-2.76
-5.65
-8.32
-10.60
-12.45
-13.97
-15.30
-16.58
-17.88
-19.26
-20.74
-22.20
-23.27
-23.39
-21.92
-18.55
-13.47
-7.39
-1.27
4.05
8.26
11.41
13.77
15.50
16.58
16.80
16.14
14.82
13.30
12.12
11.55
11.54
11.66
11.41
10.39
8.61
6.54
4.83
4.05
4.29
5.09
5.63
5.16
3.37
0.55
-2.63
-5.50
-7.67
-9.20
-10.40
-11.58
-12.94
-14.46
-16.13
-17.99
-20.12
-22.50
-24.95
-26.98
-27.93
-27.24
-24.51
-19.79
-13.49
-6.37
0.70
6.90
11.70
14.94
16.82
17.75
18.11
18.16
18.01
17.73
17.38
17.09
16.98
17.05
17.15
16.97
16.22
14.68
12.36
9.52
6.50
3.66
1.28
-0.55
-1.86
-2.87
-3.86
-5.07
-6.66
-8.60
-10.68
-12.63
-14.18
-15.29
-16.07
-16.87
-18.10
-20.05
-22.79
-26.04
-29.20
-31.51
-32.24
-30.93
-27.55
-22.51
-16.53
-10.43
-4.88
-0.27
3.25
5.74
7.32
8.13
8.34
8.14
7.78
7.47
7.37
7.57
8.05
8.72
9.42
9.95
10.13
9.90
9.30
8.56
7.90
7.43
7.08
6.62
5.80
4.53
2.93
1.24
-0.30
-1.54
-2.51
-3.32
-4.13
-5.07
-6.28
-7.85
-9.84
-12.23
-14.82
-17.30
-19.28
-20.35
-20.11
-18.29
-14.79
-9.81
-3.90
2.14
7.44
11.35
13.58
14.22
13.63
12.26
10.49
8.69
7.10
5.97
5.45
5.59
6.28
7.35
8.58
9.80
10.79
11.41
11.52
11.06
10.06
8.64
6.96
5.17
3.37
1.61
-0.07
-1.68
-3.27
-4.89
-6.60
-8.44
-10.46
-12.74
-15.37
-18.37
-21.64
-24.78
-27.20
-28.23
-27.38
-24.60
-20.22
-14.89
-9.24
-3.80
1.11
5.28
8.48
10.50
11.20
10.66
9.24
7.54
6.15
5.47
5.57
6.21
7.04
7.75
8.23
8.50
8.64
8.63
8.42
7.88
6.95
5.72
4.35
2.98
1.66
0.33
-1.12
-2.73
-4.43
-6.06
-7.51
-8.83
-10.23
-12.02
-14.49
-17.67
-21.29
-24.71
-27.07
-27.53
-25.57
-21.18
-15.02
-8.14
-1.69
3.54
7.33
9.99
12.10
14.02
15.81
17.17
17.74
17.42
16.45
15.38
14.74
14.78
15.30
15.83
15.83
14.98
13.34
11.27
9.24
7.55
6.23
5.05
3.69
1.95
-0.14
-2.38
-4.49
-6.28
-7.71
-8.90
-10.01
-11.16
-12.47
-14.08
-16.14
-18.78
-21.91
-25.14
-27.77
-28.99
-28.16
-25.07
-20.01
-13.76
-7.23
-1.29
3.50
6.99
9.36
10.99
12.24
13.33
14.30
15.07
15.54
15.76
15.92
16.24
16.84
17.58
18.18
18.32
17.83
16.84
15.67
14.66
13.90
13.24
12.29
10.58
7.84
4.10
-0.16
-4.24
-7.43
-9.36
-10.17
-10.42
-10.82
-11.90
-13.81
-16.32
-19.08
-21.82
-24.43
-26.78
-28.54
-29.12
-27.85
-24.35
-18.77
-11.92
-4.92
1.20
5.77
8.65
10.10
10.58
10.55
10.41
10.40
10.67
11.29
12.26
13.50
14.90
16.28
17.42
18.12
18.23
17.75
16.80
15.60
14.33
13.06
11.72
10.19
8.38
6.23
3.80
1.20
-1.39
-3.74
-5.70
-7.16
-8.17
-8.92
-9.76
-11.06
-13.06
-15.73
-18.64
-21.02
-22.04
-21.04
-17.82
-12.73
-6.55
-0.16
5.76
10.88
15.11
18.46
20.81
22.04
22.04
20.95
19.19
17.34
15.97
15.44
15.83
16.94
18.33
19.48
19.99
19.61
18.40
16.65
14.66
12.74
10.95
9.24
7.51
5.73
3.90
2.01
0.11
-1.81
-3.70
-5.53
-7.30
-9.21
-11.49
-14.45
-18.11
-22.09
-25.70
-27.97
-28.19
-25.96
-21.49
-15.40
-8.54
-1.75
4.33
9.28
12.95
15.29
16.36
16.25
15.22
13.64
12.03
10.95
10.75
11.49
12.83
14.14
14.77
14.32
12.82
10.71
8.64
7.14
6.43
6.30
6.24
5.69
4.29
2.02
-0.87
-3.95
-6.86
-9.43
-11.66
-13.67
-15.65
-17.79
-20.27
-23.19
-26.52
-29.92
-32.77
-34.29
-33.74
-30.78
-25.66
-19.11
-12.15
-5.71
-0.30
3.96
7.27
9.85
11.83
13.22
14.04
14.42
14.58
14.82
15.30
16.00
16.75
17.29
17.47
17.27
16.75
16.04
15.17
14.17
12.99
11.63
10.09
8.37
6.50
4.54
2.64
1.00
-0.18
-0.88
-1.33
-2.00
-3.40
-5.87
-9.41
-13.64
-17.89
-21.46
-23.75
-24.32
-23.02
-19.92
-15.37
-9.91
-4.25
0.98
5.30
8.51
10.71
12.08
12.87
13.22
13.25
13.09
12.95
13.07
13.64
14.64
15.85
16.87
17.32
17.05
16.15
14.90
13.59
12.32
11.01
9.39
7.29
4.71
1.89
-0.84
-3.18
-5.04
-6.58
-8.09
-9.92
-12.34
-15.45
-19.18
-23.18
-26.94
-29.72
-30.82
-29.77
-26.49
-21.36
-15.13
-8.68
-2.71
2.32
6.26
9.08
10.81
11.49
11.26
10.43
9.48
8.88
8.92
9.61
10.67
11.72
12.45
12.77
12.75
12.53
12.15
11.50
10.38
8.62
6.18
3.22
0.06
-2.94
-5.45
-7.37
-8.81
-10.07
-11.60
-13.75
-16.64
-20.04
-23.39
-25.93
-26.91
-25.85
-22.70
-17.82
-11.91
-5.79
-0.18
4.42
7.84
10.16
11.56
12.30
12.54
12.38
11.89
11.21
10.55
10.10
9.98
10.14
10.36
10.44
10.25
9.86
9.42
9.04
8.68
8.09
6.94
5.07
2.53
-0.33
-3.09
-5.44
-7.27
-8.74
-10.24
-12.14
-14.71
-18.03
-21.84
-25.60
-28.54
-29.87
-29.00
-25.77
-20.53
-14.10
-7.45
-1.48
3.24
6.63
8.92
10.57
11.95
13.23
14.31
14.99
15.15
14.90
14.54
14.43
14.77
15.44
16.09
16.33
15.96
15.07
13.96
12.93
12.07
11.27
10.27
8.78
6.70
4.16
1.37
-1.35
-3.76
-5.71
-7.21
-8.43
-9.66
-11.25
-13.52
-16.52
-19.95
-23.10
-25.04
-24.87
-22.17
-17.14
-10.61
-3.77
2.36
7.21
10.75
13.29
15.15
16.48
17.18
17.20
16.67
16.00
15.65
15.99
17.10
18.74
20.55
22.20
23.48
24.31
24.74
24.83
24.70
24.44
24.08
23.57
22.79
21.59
19.98
18.16
16.42
15.13
14.46
14.40
14.70
15.03
15.00
14.31
12.81
10.54
7.84
5.27
3.56
3.37
5.03
8.40
12.81
17.31
20.87
22.68
22.31
19.62
14.76
7.89
-0.69
-10.69
-21.62
-32.83
-43.47
-52.76
-60.22
-65.73
-69.63
-72.48
-74.89
-77.25
-79.62
-81.76
-83.30
-83.88
-83.20
-81.08
-77.46
-72.41
-66.16
-59.15
-51.97
-45.27
-39.67
-35.49
-32.79
-31.32
-30.73
-30.65
-30.83
-31.10
-31.18
-30.65
-28.89
-25.42
-19.99
-12.83
-4.61
3.81
11.63
18.32
23.75
28.01
31.23
33.50
34.89
35.45
35.35
34.91
34.58
34.73
35.53
36.81
38.13
38.96
38.95
38.13
36.83
35.47
34.28
33.17
31.76
29.71
26.95
23.75
20.58
17.74
15.21
12.56
9.27
4.94
-0.49
-6.78
-13.51
-20.16
-26.16
-30.83
-33.51
-33.73
-31.42
-27.06
-21.54
-15.87
-10.82
-6.76
-3.68
-1.42
0.17
1.11
1.47
1.40
1.29
1.60
2.67
4.54
6.84
9.01
10.53
11.21
11.20
10.85
10.51
10.32
10.12
9.63
8.63
7.15
5.40
3.72
2.33
1.27
0.40
-0.48
-1.58
-3.03
-4.93
-7.21
-9.72
-12.08
-13.76
-14.20
-12.99
-9.95
-5.31
0.40
6.45
12.10
16.73
20.04
22.03
22.95
23.12
22.82
22.21
21.42
20.55
19.76
19.26
19.09
19.17
19.24
19.00
18.30
17.21
15.97
14.79
13.72
12.58
11.08
8.94
6.12
2.84
-0.55
-3.66
-6.25
-8.32
-10.06
-11.71
-13.49
-15.56
-17.99
-20.71
-23.47
-25.79
-27.00
-26.49
-23.90
-19.42
-13.73
-7.80
-2.56
1.39
3.90
5.15
5.46
5.06
4.16
2.86
1.36
-0.09
-1.24
-1.86
-1.93
-1.58
-1.13
-0.96
-1.39
-2.55
-4.31
-6.32
-8.22
-9.71
-10.70
-11.25
-11.48
-11.45
-11.22
-10.80
-10.26
-9.75
-9.44
-9.50
-10.01
-10.98
-12.23
-13.44
-14.10
-13.71
-11.86
-8.44
-3.76
1.59
6.87
11.48
15.06
17.54
19.04
19.79
19.98
19.81
19.46
19.11
18.95
19.09
19.61
20.48
21.64
22.98
24.29
25.39
26.01
25.93
25.00
23.24
20.86
18.15
15.48
13.08
11.10
9.46
8.03
6.54
4.73
2.36
-0.71
-4.44
-8.50
-12.31
-15.12
-16.25
-15.34
-12.52
-8.39
-3.83
0.36
3.66
5.95
7.30
7.84
7.58
6.47
4.62
2.38
0.34
-0.92
-1.10
-0.37
0.78
1.80
2.37
2.46
2.26
1.90
1.35
0.44
-1.04
-3.13
-5.68
-8.37
-10.90
-13.01
-14.64
-15.86
-16.88
-18.00
-19.51
-21.63
-24.33
-27.41
-30.45
-32.88
-34.14
-33.78
-31.57
-27.52
-21.91
-15.24
-8.12
-1.14
5.14
10.33
14.19
16.61
17.64
17.50
16.57
15.35
14.29
13.70
13.67
14.03
14.44
14.56
14.22
13.49
12.66
12.00
11.62
11.33
10.78
9.67
7.89
5.65
3.38
1.51
0.28
-0.36
-0.71
-1.15
-2.05
-3.60
-5.90
-8.87
-12.33
-15.91
-19.01
-20.95
-21.06
-18.89
-14.48
-8.35
-1.39
5.37
11.17
15.63
18.70
20.55
21.29
20.99
19.72
17.72
15.44
13.42
12.11
11.60
11.65
11.76
11.46
10.46
8.78
6.61
4.24
1.89
-0.34
-2.43
-4.45
-6.49
-8.59
-10.75
-12.84
-14.69
-16.13
-17.11
-17.72
-18.26
-19.07
-20.46
-22.49
-24.92
-27.33
-29.09
-29.68
-28.78
-26.32
-22.50
-17.68
-12.24
-6.55
-0.95
4.24
8.63
11.90
13.83
14.43
14.04
13.19
12.52
12.48
13.28
14.86
16.99
19.43
21.97
24.46
26.73
28.61
29.85
30.20
29.40
27.38
24.14
19.98
15.34
10.79
6.80
3.60
1.03
-1.38
-4.22
-7.93
-12.62
-18.00
-23.42
-28.05
-31.04
-31.73
-29.82
-25.48
-19.35
-12.31
-5.27
1.04
6.21
10.09
12.70
14.12
14.44
13.83
12.60
11.13
9.89
9.21
9.26
9.92
10.87
11.69
12.00
11.60
10.47
8.73
6.58
4.15
1.52
-1.27
-4.14
-6.98
-9.66
-12.13
-14.37
-16.45
-18.41
-20.38
-22.55
-25.14
-28.33
-31.91
-35.25
-37.35
-37.17
-34.14
-28.41
-20.94
-13.09
-6.15
-0.89
2.60
4.72
6.01
6.88
7.46
7.75
7.73
7.54
7.48
7.85
8.81
10.24
11.77
12.94
13.45
13.25
12.46
11.31
9.89
8.18
6.13
3.75
1.26
-1.05
-2.97
-4.53
-5.97
-7.68
-9.95
-12.86
-16.27
-19.86
-23.27
-26.08
-27.84
-28.03
-26.24
-22.24
-16.22
-8.77
-0.78
6.84
13.44
18.78
22.92
26.06
28.28
29.55
29.82
29.17
27.94
26.65
25.86
25.91
26.79
28.18
29.56
30.43
30.43
29.48
27.69
25.33
22.63
19.76
16.76
13.59
10.29
7.03
4.03
1.50
-0.58
-2.46
-4.55
-7.24
-10.70
-14.75
-18.88
-22.32
-24.29
-24.17
-21.68
-17.05
-10.88
-4.07
2.43
7.91
11.95
14.48
15.68
15.82
15.21
14.16
13.00
12.04
11.50
11.48
11.89
12.51
13.05
13.26
13.04
12.44
11.56
10.55
9.37
7.91
6.02
3.63
0.86
-2.02
-4.68
-6.91
-8.72
-10.41
-12.39
-15.09
-18.71
-23.18
-28.06
-32.57
-35.77
-36.78
-35.07
-30.65
-24.20
-16.76
-9.46
-3.14
1.77
5.25
7.45
8.55
8.69
7.99
6.67
5.12
3.80
3.13
3.35
4.41
6.04
7.83
9.36
10.29
10.39
9.60
7.97
5.73
3.14
0.46
-2.13
-4.52
-6.65
-8.43
-9.82
-10.86
-11.83
-13.15
-15.28
-18.41
-22.24
-25.97
-28.45
-28.65
-26.06
-20.89
-13.97
-6.41
0.78
6.92
11.77
15.35
17.76
19.03
19.20
18.38
16.91
15.38
14.35
14.19
14.88
16.07
17.23
17.93
17.99
17.42
16.38
14.99
13.30
11.33
9.10
6.71
4.29
1.99
-0.12
-1.98
-3.65
-5.21
-6.89
-8.98
-11.73
-15.24
-19.35
-23.52
-26.87
-28.39
-27.19
-22.89
-15.85
-7.10
1.92
9.88
16.00
20.24
23.14
25.43
27.61
29.73
31.53
32.65
32.96
32.65
32.04
31.45
30.95
30.40
29.55
28.21
26.36
24.15
21.78
19.42
17.10
14.72
12.16
9.28
6.10
2.63
-1.05
-4.86
-8.73
-12.62
-16.50
-20.36
-24.26
-28.25
-32.34
-36.38
-39.95
-42.35
-42.78
-40.71
-36.08
-29.51
-22.05
-14.83
-8.70
-3.92
-0.37
2.33
4.44
6.03
6.99
7.25
6.92
6.37
6.01
6.14
6.79
7.71
8.50
8.77
8.33
7.20
5.64
3.99
2.51
1.22
-0.07
-1.68
-3.83
-6.54
-9.50
-12.25
-14.36
-15.65
-16.26
-16.67
-17.46
-19.12
-21.85
-25.44
-29.34
-32.77
-34.86
-34.88
-32.40
-27.37
-20.25
-11.83
-3.11
4.91
11.46
16.12
18.84
19.84
19.57
18.52
17.21
16.08
15.49
15.62
16.47
17.79
19.17
20.22
20.64
20.34
19.42
18.01
16.26
14.25
11.98
9.45
6.77
4.06
1.48
-0.82
-2.82
-4.61
-6.38
-8.32
-10.63
-13.40
-16.59
-19.89
-22.79
-24.57
-24.52
-22.19
-17.60
-11.32
-4.37
2.12
7.36
11.03
13.29
14.61
15.37
15.78
15.81
15.38
14.46
13.22
11.98
11.07
10.68
10.71
10.84
10.64
9.80
8.28
6.33
4.33
2.60
1.19
-0.14
-1.71
-3.76
-6.21
-8.75
-10.97
-12.60
-13.60
-14.17
-14.70
-15.59
-17.20
-19.74
-23.21
-27.22
-31.06
-33.72
-34.24
-32.01
-27.03
-19.93
-11.79
-3.73
3.39
9.11
13.39
16.40
18.40
19.59
20.18
20.38
20.36
20.21
19.95
19.52
18.88
18.06
17.13
16.15
15.10
13.86
12.36
10.66
8.97
7.57
6.59
5.91
5.09
3.73
1.61
-1.07
-3.78
-5.89
-7.06
-7.38
-7.42
-7.95
-9.57
-12.48
-16.39
-20.61
-24.29
-26.60
-26.95
-25.03
-20.93
-15.04
-8.08
-0.90
5.71
11.11
15.03
17.44
18.56
18.66
18.05
17.03
15.94
15.08
14.66
14.77
15.32
16.09
16.79
17.15
16.95
16.13
14.73
12.88
10.77
8.54
6.27
4.02
1.77
-0.39
-2.36
-4.07
-5.58
-7.01
-8.65
-10.70
-13.20
-16.05
-19.06
-22.02
-24.76
-27.05
-28.51
-28.68
-27.09
-23.52
-18.17
-11.67
-4.86
1.50
6.91
11.22
14.39
16.44
17.33
17.09
15.99
14.53
13.44
13.29
14.35
16.37
18.76
20.83
22.12
22.54
22.25
21.51
20.45
19.06
17.17
14.71
11.75
8.55
5.49
2.80
0.57
-1.39
-3.33
-5.48
-7.95
-10.66
-13.46
-16.22
-18.80
-21.01
-22.52
-22.91
-21.76
-18.90
-14.49
-9.10
-3.46
1.77
6.13
9.39
11.45
12.24
11.73
10.07
7.65
5.16
3.34
2.72
3.38
4.92
6.64
7.86
8.17
7.54
6.26
4.72
3.14
1.51
-0.44
-2.98
-6.21
-9.95
-13.74
-17.10
-19.67
-21.44
-22.66
-23.74
-25.07
-26.84
-29.04
-31.43
-33.63
-35.11
-35.22
-33.41
-29.36
-23.22
-15.66
-7.73
-0.53
5.15
9.01
11.27
12.39
12.83
12.85
12.58
12.15
11.77
11.79
12.46
13.82
15.56
17.14
18.06
18.07
17.31
16.20
15.17
14.41
13.82
13.09
11.94
10.28
8.24
6.16
4.33
2.91
1.81
0.76
-0.61
-2.67
-5.67
-9.61
-14.20
-18.79
-22.49
-24.44
-24.06
-21.30
-16.68
-11.03
-5.28
-0.08
4.21
7.55
9.98
11.56
12.25
12.04
10.99
9.37
7.61
6.19
5.46
5.48
5.98
6.45
6.37
5.35
3.44
0.96
-1.60
-3.85
-5.70
-7.32
-9.02
-11.02
-13.29
-15.58
-17.55
-18.95
-19.82
-20.45
-21.28
-22.73
-25.01
-28.07
-31.49
-34.65
-36.81
-37.22
-35.47
-31.50
-25.74
-18.94
-12.02
-5.80
-0.78
2.89
5.38
6.98
8.02
8.75
9.36
10.01
10.82
11.89
13.22
14.75
16.32
17.76
18.92
19.75
20.23
20.38
20.14
19.44
18.20
16.45
14.33
12.06
9.93
8.16
6.90
6.22
6.05
6.22
6.39
6.17
5.18
3.33
0.96
-1.14
-1.93
-0.55
3.31
9.22
16.22
23.14
29.09
33.66
36.90
39.11
40.50
41.07
40.69
39.28
36.94
33.97
30.76
27.60
24.60
21.67
18.62
15.26
11.53
7.48
3.23
-1.04
-5.22
-9.27
-13.18
-16.97
-20.61
-23.94
-26.73
-28.69
-29.71
-29.91
-29.68
-29.47
-29.61
-30.06
-30.42
-30.00
-28.13
-24.43
-19.02
-12.46
-5.62
0.66
5.78
9.43
11.57
12.25
11.61
9.84
7.29
4.44
1.79
-0.34
-2.00
-3.59
-5.65
-8.51
-12.09
-15.82
-18.89
-20.70
-21.12
-20.51
-19.56
-18.90
-18.75
-18.93
-18.95
-18.33
-16.89
-14.80
-12.48
-10.34
-8.67
-7.57
-7.03
-7.02
-7.45
-8.06
-8.39
-7.76
-5.58
-1.60
3.90
10.09
15.95
20.54
23.38
24.49
24.21
23.04
21.42
19.67
17.96
16.37
14.79
13.00
10.68
7.62
3.92
0.09
-3.09
-4.94
-5.18
-4.15
-2.63
-1.48
-1.05
-1.07
-0.65
1.21
5.11
10.93
17.83
24.65
30.39
34.64
37.71
40.57
44.37
50.17
58.67
70.07
84.24
100.74
118.96
138.13
157.40
176.04
193.67
210.34
226.25
241.23
254.19
263.05
265.16
258.34
241.74
216.23
184.09
147.94
109.72
70.14
29.03
-13.74
-57.21
-98.99
-135.93
-165.34
-186.42
-200.60
-210.93
-220.56
-231.23
-242.62
-252.92
-260.15
-263.44
-263.50
-261.97
-260.28
-258.80
-256.71
-252.77
-246.20
-237.18
-226.57
-215.32
-203.67
-191.00
-176.11
-157.85
-135.77
-110.26
-82.49
-53.94
-26.03
0.26
24.44
46.56
66.89
85.70
102.96
118.22
130.79
139.98
145.51
147.53
146.59
143.30
138.09
131.12
122.42
112.15
100.82
89.37
78.90
70.36
64.12
59.86
56.59
53.11
48.39
42.00
34.17
25.62
17.08
8.88
0.86
-7.46
-16.40
-25.69
-34.57
-42.24
-48.42
-53.69
-59.21
-65.91
-73.85
-81.99
-88.74
-92.95
-94.70
-95.34
-96.75
-100.25
-105.76
-111.73
-115.80
-115.73
-110.26
-99.70
-85.99
-72.38
-62.63
-59.85
-65.21
-77.17
-91.59
-102.71
-104.96
-94.68
-71.43
-38.46
-2.42
27.91
43.85
39.70
15.59
-20.95
-56.05
-73.64
-61.33
-15.70
55.63
136.30
207.19
253.21
267.98
254.41
221.94
182.07
144.50
115.29
96.37
86.08
79.83
70.91
52.40
19.62
-27.57
-83.66
-138.85
-182.23
-205.53
-205.42
-183.99
-147.27
-103.02
-58.77
-20.73
6.53
20.28
19.93
7.44
-12.99
-35.59
-54.70
-65.98
-67.36
-59.30
-44.52
-26.75
-9.11
6.39
19.54
30.84
41.29
51.58
61.38
69.45
74.22
75.30
72.90
68.45
62.70
56.08
48.54
39.70
29.50
18.66
9.49
3.26
0.31
-1.79
-6.03
-14.57
-27.98
-45.18
-65.08
-86.81
-112.86
-137.22
-155.51
-165.22
-165.98
-158.29
-142.53
-127.59
-113.44
-100.72
-89.95
-82.14
-77.06
-70.27
-59.21
-42.44
-20.21
6.82
35.73
63.69
88.01
108.04
125.21
141.74
159.70
179.78
202.26
225.70
248.68
269.72
287.85
302.38
312.33
316.98
316.06
310.67
302.08
291.98
281.52
271.16
260.53
248.48
233.93
216.27
196.00
173.89
151.00
128.03
105.40
83.27
61.73
41.07
21.67
3.91
-12.29
-27.23
-41.25
-54.40
-66.45
-77.07
-86.19
-94.20
-101.97
-110.54
-120.62
-132.25
-144.84
-157.53
-169.64
-180.97
-191.78
-202.41
-212.91
-222.85
-231.35
-237.50
-240.70
-240.82
-238.12
-233.01
-226.05
-218.08
-210.28
-203.91
-199.77
-197.39
-194.90
-189.42
-178.29
-160.27
-136.09
-107.94
-78.34
-48.92
-19.99
9.00
38.49
67.97
95.87
120.12
138.99
151.72
158.51
160.27
158.13
153.09
145.97
137.49
128.25
118.75
109.26
99.88
90.41
80.49
69.70
57.72
44.50
30.33
15.79
1.56
-11.83
-24.22
-35.77
-46.79
-57.39
-67.25
-75.57
-81.37
-83.80
-82.56
-78.09
-71.39
-63.73
-56.27
-49.79
-44.67
-40.89
-38.17
-36.01
-33.68
-30.36
-25.35
-18.33
-9.58
0.00
9.28
17.18
23.15
27.18
29.67
31.07
31.71
31.64
30.92
29.68
28.23
26.94
26.03
25.50
24.98
24.01
22.18
19.33
15.68
11.65
7.69
4.01
0.52
-3.03
-6.88
-11.05
-15.43
-19.77
-23.95
-27.93
-31.71
-35.14
-37.79
-39.00
-38.13
-34.86
-29.33
-22.28
-14.75
-7.73
-1.91
2.56
6.02
8.99
11.87
14.78
17.59
20.08
22.08
23.25
23.00
20.35
14.51
5.43
-5.59
-16.06
-23.18
-25.06
-21.79
-15.40
-9.02
-5.39
-5.77
-9.52
-14.84
-19.71
-22.87
-24.20
-24.39
-24.46
-25.12
-26.43
-27.87
-28.57
-27.71
-24.84
-19.95
-13.43
-5.83
2.61
12.22
24.01
39.51
60.08
86.40
117.95
153.08
189.32
223.96
254.40
278.41
294.33
301.19
299.00
288.79
272.36
251.52
227.38
200.04
169.19
135.14
99.83
66.65
39.36
20.45
9.89
5.12
2.23
-2.40
-10.67
-22.48
-36.20
-49.79
-61.65
-71.06
-78.06
-83.12
-86.83
-89.62
-91.66
-92.84
-92.95
-91.83
-89.62
-86.73
-83.63
-80.55
-77.31
-73.36
-68.17
-61.59
-54.14
-46.80
-40.57
-36.04
-33.04
-30.94
-29.15
-27.60
-26.97
-28.33
-32.54
-39.67
-48.80
-58.37
-66.82
-73.21
-77.41
-79.81
-80.78
-80.21
-77.50
-71.98
-63.35
-52.04
-39.19
-26.17
-14.18
-3.80
5.03
12.86
20.32
27.66
34.49
39.76
42.09
40.23
33.74
23.25
10.22
-3.56
-16.85
-29.26
-41.11
-52.78
-63.93
-73.36
-79.34
-80.54
-76.84
-69.62
-61.30
-54.45
-50.75
-50.62
-53.31
-57.44
-61.63
-64.74
-65.92
-64.48
-59.88
-51.85
-40.61
-26.94
-12.05
2.65
15.80
26.24
33.09
35.80
34.38
29.45
22.12
13.72
5.39
-2.17
-8.60
-13.47
-16.08
-15.34
-10.11
0.30
15.74
35.24
57.32
80.35
102.84
123.41
140.91
154.43
163.54
168.33
169.23
166.76
161.12
152.16
139.58
123.29
103.74
81.87
58.84
35.72
13.27
-7.84
-26.94
-43.31
-56.32
-65.78
-72.05
-75.83
-77.74
-77.91
-76.09
-71.85
-65.19
-56.72
-47.53
-38.54
-29.96
-21.00
-10.16
3.85
21.18
40.28
58.10
70.95
75.74
70.95
57.00
35.92
10.60
-15.96
-41.11
-62.81
-79.54
-90.34
-94.96
-94.00
-88.87
-81.44
-73.45
-66.01
-59.41
-53.33
-47.21
-40.80
-34.31
-28.25
-23.19
-19.32
-16.40
-13.81
-10.89
-7.14
-2.48
2.85
8.39
13.57
17.86
20.83
22.25
22.26
21.55
21.30
23.00
27.72
35.42
44.62
52.80
57.46
57.46
53.73
49.05
46.73
49.10
56.53
67.43
79.12
88.84
94.68
95.82
92.26
84.42
72.99
59.07
44.17
30.01
17.83
8.14
0.58
-5.76
-11.94
-18.74
-26.42
-34.76
-43.27
-51.71
-59.91
-67.50
-74.01
-79.05
-82.55
-84.85
-86.59
-88.62
-92.57
-99.56
-109.59
-121.50
-133.73
-144.93
-153.93
-159.67
-161.26
-159.77
-156.32
-151.10
-143.35
-132.57
-119.27
-104.78
-90.54
-78.08
-71.10
-71.97
-80.00
-91.73
-103.36
-112.34
-117.28
-116.95
-110.85
-102.74
-97.09
-97.18
-104.04
-117.15
-134.59
-152.53
-165.71
-147.57
-85.36
11.20
114.40
198.97
255.72
289.15
308.71
322.12
329.88
326.76
307.15
270.09
220.30
164.78
108.92
54.35
9.98
-20.70
-40.92
-56.21
-70.53
-84.50
-97.05
-107.18
-113.76
-114.41
-106.72
-89.46
-62.52
-27.63
11.22
48.16
77.49
96.42
106.29
110.10
110.24
107.67
102.21
93.82
83.32
72.74
64.63
61.02
61.75
64.85
67.98
69.38
68.31
64.30
56.66
44.49
27.45
6.23
-17.27
-40.16
-59.66
-74.05
-82.94
-86.85
-86.33
-82.58
-74.77
-63.04
-48.45
-32.96
-18.66
-7.13
1.21
7.00
11.47
16.14
21.58
27.64
33.48
38.08
40.75
41.60
41.38
41.16
41.84
43.29
44.70
44.93
43.14
39.24
34.14
29.29
26.11
25.47
27.20
30.42
34.02
37.07
39.16
40.33
40.91
41.19
41.38
41.45
41.39
41.24
41.15
41.23
41.41
41.42
40.90
39.84
38.49
37.49
37.57
38.99
41.20
42.75
41.75
36.60
26.62
12.36
-4.72
-22.88
-40.71
-57.41
-72.61
-86.08
-97.30
-105.61
-110.34
-111.21
-108.46
-102.91
-95.72
-88.03
-80.69
-74.03
-67.94
-62.02
-55.93
-49.60
-43.35
-37.79
-33.69
-31.73
-32.42
-36.02
-42.26
-50.13
-57.71
-62.56
-62.41
-56.15
-44.49
-29.82
-15.22
-3.23
5.03
10.06
13.17
15.52
17.52
18.85
19.02
17.96
16.29
14.87
14.38
14.82
15.55
15.61
14.24
11.23
6.97
2.24
-2.16
-5.70
-8.37
-10.65
-13.36
-17.37
-23.22
-30.85
-39.57
-48.25
-55.62
-60.73
-63.15
-63.09
-61.20
-58.35
-55.38
-52.84
-50.98
-49.80
-49.14
-48.82
-48.64
-48.44
-48.03
-47.14
-45.25
-41.63
-35.49
-26.19
-13.71
1.20
17.02
31.91
44.30
53.47
59.68
63.88
67.18
70.22
73.00
75.01
75.65
74.56
71.81
67.75
62.95
58.03
53.59
50.20
48.33
48.21
49.75
52.46
55.59
58.29
59.83
59.79
58.12
55.08
51.08
46.53
41.74
36.94
32.33
28.16
24.77
22.50
21.54
21.81
23.09
25.08
27.55
30.41
33.66
37.24
41.05
44.94
48.80
52.60
56.35
59.96
63.12
65.26
65.70
63.92
59.89
54.17
47.84
42.13
37.94
35.49
34.40
33.80
32.95
31.50
29.54
27.47
25.58
23.87
22.08
19.82
16.90
13.41
9.72
6.24
3.26
0.94
-0.71
-1.75
-2.22
-2.27
-2.14
-2.21
-2.86
-4.31
-6.44
-8.80
-10.73
-11.68
-11.47
-10.33
-8.89
-7.84
-7.76
-8.95
-11.45
-14.98
-18.96
-22.56
-24.82
-25.07
-23.33
-20.59
-18.62
-19.28
-23.62
-31.31
-40.69
-49.54
-56.08
-59.58
-60.37
-59.19
-56.52
-52.28
-46.10
-37.86
-28.08
-17.95
-8.78
-1.61
3.25
6.04
7.24
7.25
6.20
3.99
0.55
-3.89
-8.80
-13.30
-16.55
-18.04
-17.83
-16.54
-15.14
-14.52
-15.13
-16.77
-18.73
-20.06
-19.96
-18.01
-14.32
-9.43
-4.10
0.98
5.37
8.91
11.69
13.85
15.43
16.36
16.57
16.16
15.46
14.92
14.94
15.62
16.66
17.59
17.91
17.40
16.19
14.63
13.12
11.83
10.67
9.34
7.51
5.02
1.96
-1.30
-4.28
-6.54
-7.87
-8.37
-8.42
-8.56
-9.30
-10.92
-13.41
-16.42
-19.39
-21.62
-22.47
-21.50
-18.61
-14.13
-8.63
-2.88
2.43
6.76
9.83
11.54
11.96
11.28
9.82
8.02
6.40
5.33
4.93
5.06
5.28
5.12
4.24
2.61
0.46
-1.71
-3.39
-4.23
-4.11
-3.17
-1.70
0.06
1.94
3.89
5.81
7.52
8.74
9.21
8.79
7.53
5.60
3.17
0.33
-2.89
-6.38
-9.83
-12.70
-14.38
-14.36
-12.48
-8.99
-4.45
0.45
5.12
9.17
12.47
15.00
16.76
17.65
17.53
16.39
14.49
12.34
10.58
9.67
9.64
10.14
10.59
10.54
9.85
8.75
7.62
6.75
6.21
5.80
5.25
4.30
2.83
0.88
-1.40
-3.76
-5.84
-7.30
-7.86
-7.55
-6.66
-5.81
-5.68
-6.85
-9.46
-13.16
-17.08
-19.96
-20.59
-18.17
-12.77
-5.44
2.09
7.99
11.02
10.92
8.49
5.10
2.10
0.31
-0.18
0.10
0.34
-0.17
-1.79
-4.37
-7.39
-10.09
-11.92
-12.71
-12.86
-13.17
-14.49
-17.27
-21.34
-25.95
-30.19
-33.35
-35.21
-36.01
-36.28
-36.62
-37.70
-40.24
-44.84
-51.52
-59.15
-65.15
-66.00
-58.42
-40.96
-14.96
15.64
45.76
71.05
89.21
100.02
104.36
102.95
95.65
81.89
61.86
37.42
12.11
-10.03
-26.05
-35.25
-39.16
-40.37
-40.87
-41.07
-39.86
-35.63
-27.58
-16.47
-4.46
5.99
13.26
17.21
18.94
20.00
21.39
23.10
24.33
24.02
21.60
17.33
12.13
7.08
2.87
-0.45
-3.31
-6.14
-9.01
-11.38
-12.45
-11.56
-8.64
-4.29
0.51
4.82
8.15
10.45
12.01
13.03
13.52
13.23
11.91
9.49
6.21
2.57
-0.84
-3.46
-5.00
-5.39
-4.94
-4.21
-3.89
-4.54
-6.30
-8.90
-11.70
-14.14
-15.89
-17.12
-18.24
-19.63
-21.48
-23.71
-26.07
-28.40
-30.74
-33.28
-36.17
-39.26
-42.00
-43.52
-42.92
-39.67
-33.91
-26.45
-18.55
-11.48
-5.99
-2.09
0.72
3.07
5.32
7.26
8.37
8.17
6.53
3.86
0.79
-2.17
-4.98
-8.03
-11.82
-16.57
-21.97
-27.35
-32.16
-36.43
-40.88
-46.61
-54.45
-64.38
-75.39
-85.97
-94.77
-101.34
-106.18
-110.50
-115.56
-122.09
-129.85
-137.50
-142.67
-142.11
-132.28
-110.10
-74.29
-26.58
27.76
80.56
123.04
148.80
156.46
150.43
139.42
133.24
139.34
160.62
195.27
238.11
282.50
321.69
349.49
360.59
351.28
320.68
271.77
211.54
149.46
94.78
53.88
28.55
16.25
11.69
9.04
3.83
-6.24
-21.29
-39.77
-59.38
-77.62
-92.44
-102.55
-107.61
-108.15
-105.21
-99.89
-93.06
-85.30
-76.95
-68.32
-59.79
-51.71
-44.40
-38.09
-32.99
-29.30
-27.14
-26.44
-26.77
-27.45
-27.76
-27.24
-25.79
-23.73
-21.45
-19.29
-17.42
-15.92
-14.93
-14.62
-15.09
-16.25
-17.78
-19.26
-20.33
-20.89
-21.02
-21.00
-21.11
-21.68
-22.99
-25.26
-28.42
-31.95
-34.95
-36.32
-35.27
-31.63
-25.95
-19.26
-12.72
-7.21
-3.16
-0.54
1.00
1.98
2.90
4.08
5.54
7.03
8.12
8.47
8.04
7.15
6.31
5.98
6.29
6.97
7.46
7.26
6.10
4.10
1.69
-0.68
-2.67
-4.25
-5.55
-6.76
-7.96
-9.10
-10.23
-11.58
-13.56
-16.56
-20.64
-25.23
-29.24
-31.43
-30.88
-27.34
-21.27
-13.65
-5.63
1.82
8.05
12.71
15.81
17.60
18.54
19.14
19.80
20.58
21.20
21.23
20.31
18.40
15.88
13.32
11.31
10.11
9.68
9.67
9.70
9.46
8.82
7.83
6.57
5.08
3.39
1.52
-0.49
-2.59
-4.75
-7.09
-9.79
-13.08
-17.02
-21.37
-25.51
-28.57
-29.68
-28.21
-24.00
-17.47
-9.52
-1.27
6.20
12.07
16.01
18.10
18.75
18.51
17.89
17.26
16.85
16.77
16.99
17.39
17.86
18.28
18.63
18.93
19.22
19.40
19.27
18.50
16.83
14.23
10.90
7.24
3.65
0.42
-2.30
-4.49
-6.18
-7.48
-8.70
-10.30
-12.79
-16.49
-21.22
-26.32
-30.74
-33.38
-33.51
-30.95
-26.12
-19.78
-12.81
-5.94
0.23
5.19
8.47
9.67
8.67
5.83
2.04
-1.46
-3.55
-3.64
-1.98
0.56
2.83
4.02
3.89
2.80
1.35
-0.04
-1.37
-3.03
-5.58
-9.35
-14.21
-19.61
-24.81
-29.24
-32.83
-36.04
-39.68
-44.48
-50.84
-58.58
-67.10
-75.55
-83.15
-89.27
-93.54
-95.79
-95.94
-93.96
-89.75
-83.15
-73.93
-61.72
-45.93
-25.96
-1.91
24.74
50.86
72.40
86.23
92.03
93.36
96.95
110.18
137.94
180.19
231.51
282.65
323.32
345.03
343.29
318.44
275.43
222.44
168.74
122.22
87.41
64.76
51.34
42.66
34.45
23.85
9.63
-8.19
-28.78
-50.63
-71.58
-89.14
-100.98
-105.86
-104.11
-97.59
-88.96
-80.70
-74.25
-69.77
-66.40
-62.90
-58.37
-52.67
-46.38
-40.56
-36.24
-33.97
-33.58
-34.35
-35.23
-35.34
-34.20
-31.84
-28.62
-25.10
-21.74
-18.86
-16.63
-15.08
-14.15
-13.76
-13.81
-14.23
-15.00
-16.08
-17.44
-18.94
-20.38
-21.55
-22.33
-22.83
-23.29
-24.03
-25.21
-26.75
-28.31
-29.32
-29.22
-27.62
-24.42
-19.74
-13.98
-7.60
-1.10
5.07
10.58
15.20
18.78
21.18
22.32
22.19
20.93
18.88
16.58
14.60
13.38
13.02
13.28
13.71
13.86
13.50
12.68
11.54
10.18
8.50
6.29
3.33
-0.44
-4.77
-9.13
-12.84
-15.30
-16.22
-15.79
-14.68
-13.79
-13.93
-15.44
-18.06
-21.02
-23.32
-24.12
-22.99
-19.92
-15.32
-9.71
-3.74
1.97
6.83
10.36
12.36
12.93
12.49
11.54
10.47
9.39
8.16
6.54
4.45
2.12
-0.06
-1.71
-2.75
-3.40
-4.08
-5.11
-6.46
-7.79
-8.64
-8.69
-8.00
-6.95
-6.11
-6.00
-6.85
-8.58
-10.89
-13.32
-15.53
-17.32
-18.76
-20.05
-21.27
-22.22
-22.33
-20.86
-17.28
-11.65
-4.74
2.17
7.78
11.28
12.60
12.39
11.51
10.72
10.26
9.97
9.48
8.57
7.36
6.18
5.43
5.23
5.43
5.69
5.71
5.39
4.82
4.13
3.38
2.41
1.03
-0.90
-3.27
-5.78
-8.06
-9.82
-11.01
-11.83
-12.64
-13.84
-15.74
-18.45
-21.75
-25.14
-27.94
-29.38
-28.92
-26.38
-21.98
-16.26
-9.93
-3.62
2.22
7.36
11.72
15.29
18.10
20.25
21.85
23.05
23.98
24.65
24.93
24.64
23.65
21.92
19.60
16.94
14.23
11.65
9.25
6.93
4.53
1.86
-1.24
-4.80
-8.73
-12.81
-16.70
-20.08
-22.86
-25.27
-27.87
-31.39
-36.37
-42.80
-49.94
-56.50
-61.15
-63.02
-62.24
-59.84
-57.23
-55.54
-54.95
-54.73
-53.76
-51.30
-47.60
-43.87
-41.53
-41.28
-42.36
-42.71
-39.83
-31.83
-18.16
0.53
22.82
47.00
71.07
92.59
109.04
118.88
122.85
124.43
128.85
140.42
159.76
182.44
200.23
204.96
192.68
166.03
133.28
104.52
86.97
82.07
85.42
89.63
87.97
77.16
58.08
34.40
10.45
-10.62
-27.46
-40.15
-49.22
-55.02
-57.67
-57.30
-54.52
-50.67
-47.55
-46.95
-49.87
-55.99
-63.57
-70.06
-73.09
-71.48
-65.80
-58.01
-50.62
-45.51
-43.25
-43.07
-43.47
-43.12
-41.57
-39.26
-37.13
-35.94
-35.73
-35.84
-35.29
-33.38
-30.12
-26.26
-22.93
-21.16
-21.45
-23.57
-26.74
-29.82
-31.70
-31.49
-28.76
-23.66
-16.92
-9.63
-2.98
2.16
5.48
7.28
8.18
8.77
9.37
9.89
10.05
9.59
8.56
7.25
6.14
5.63
5.83
6.54
7.30
7.68
7.36
6.26
4.52
2.36
0.00
-2.34
-4.54
-6.49
-8.14
-9.51
-10.67
-11.74
-12.85
-14.11
-15.58
-17.22
-18.85
-20.15
-20.65
-19.86
-17.50
-13.67
-8.85
-3.78
0.83
4.60
7.47
9.68
11.52
13.09
14.32
15.00
14.96
14.25
13.07
11.79
10.75
10.20
10.17
10.49
10.82
10.83
10.28
9.09
7.40
5.41
3.40
1.59
0.16
-0.80
-1.32
-1.56
-1.83
-2.53
-3.94
-6.18
-9.09
-12.36
-15.60
-18.48
-20.63
-21.70
-21.34
-19.34
-15.78
-11.04
-5.82
-0.74
3.74
7.51
10.63
13.22
15.25
16.59
17.11
16.81
15.90
14.67
13.44
12.41
11.73
11.46
11.56
11.93
12.36
12.58
12.33
11.49
10.08
8.29
6.37
4.53
2.94
1.63
0.56
-0.39
-1.32
-2.38
-3.64
-5.16
-7.02
-9.22
-11.81
-14.66
-17.46
-19.65
-20.57
-19.65
-16.70
-12.03
-6.40
-0.77
4.14
8.04
11.09
13.70
16.18
18.47
20.26
21.14
20.96
20.03
18.96
18.41
18.67
19.57
20.59
21.16
21.10
20.72
20.74
21.86
24.38
27.95
31.71
34.68
36.13
36.05
35.01
34.04
34.10
35.64
38.54
42.09
45.47
48.07
49.88
51.56
54.29
59.51
68.71
83.24
103.96
130.84
162.51
196.05
227.44
252.65
268.92
275.75
274.93
269.61
262.92
256.81
251.68
246.77
241.01
233.62
224.14
212.14
196.89
177.32
152.44
121.89
86.21
46.60
4.62
-38.43
-81.76
-124.89
-167.37
-208.74
-248.77
-287.47
-324.85
-359.92
-390.16
-411.84
-421.59
-418.34
-404.53
-385.40
-366.94
-353.45
-346.34
-344.61
-346.31
-349.93
-354.69
-359.98
-364.67
-367.15
-366.10
-361.30
-353.58
-344.05
-332.90
-319.33
-301.85
-279.37
-251.89
-220.30
-185.44
-147.28
-104.59
-55.18
2.92
70.30
145.21
223.23
297.90
361.92
408.73
434.13
437.36
421.46
392.83
359.83
330.70
311.34
303.61
304.85
308.97
308.74
298.41
275.61
241.58
199.69
153.13
103.37
50.20
-6.53
-64.95
-120.56
-167.63
-202.14
-224.36
-239.17
-253.70
-273.36
-298.74
-325.06
-344.64
-350.74
-340.53
-315.64
-280.21
-238.52
-193.36
-146.16
-98.22
-51.68
-9.30
26.52
54.95
77.09
95.26
111.92
128.60
145.49
161.55
174.95
183.54
185.48
179.78
166.64
147.30
123.41
96.47
67.45
37.34
7.74
-18.71
-38.67
-49.38
-49.84
-41.46
-27.97
-14.46
-6.30
-7.73
-20.47
-42.63
-68.67
-90.95
-102.66
-100.86
-87.96
-70.55
-56.07
-48.94
-48.55
-50.04
-47.20
-35.77
-15.33
11.24
39.64
66.36
89.71
109.55
126.17
139.28
147.73
150.00
145.29
134.29
119.33
103.70
90.42
81.07
75.30
71.32
67.00
61.14
54.19
47.96
44.59
45.35
49.80
55.91
60.98
62.81
60.55
54.87
47.38
39.77
33.09
27.60
23.02
18.99
15.38
12.28
9.77
7.60
5.27
2.23
-1.68
-6.03
-9.89
-12.27
-12.62
-11.16
-8.71
-6.36
-4.89
-4.58
-5.16
-6.20
-7.33
-8.40
-9.38
-10.21
-10.62
-10.21
-8.60
-5.56
-1.18
4.13
9.80
15.17
19.69
23.09
25.34
26.68
27.45
27.89
28.10
28.06
27.77
27.27
26.79
26.57
26.79
27.48
28.50
29.54
30.13
29.65
27.42
22.92
16.05
7.43
-1.81
-10.34
-17.31
-22.68
-27.23
-32.09
-38.13
-45.53
-53.69
-61.57
-68.12
-72.59
-74.59
-74.02
-70.93
-65.56
-58.42
-50.18
-41.70
-33.66
-26.58
-20.66
-15.89
-12.10
-9.08
-6.56
-4.28
-2.03
0.29
2.56
4.52
5.84
6.30
5.92
5.00
3.95
3.10
2.61
2.33
1.98
1.23
-0.04
-1.75
-3.63
-5.34
-6.70
-7.71
-8.58
-9.55
-10.79
-12.24
-13.56
-14.31
-13.94
-12.18
-9.01
-4.85
-0.37
3.61
6.45
7.80
7.70
6.50
4.71
2.87
1.39
0.50
0.29
0.70
1.54
2.55
3.51
4.29
4.85
5.22
5.41
5.38
5.04
4.33
3.36
2.34
1.49
0.87
0.25
-0.75
-2.55
-5.35
-9.09
-13.52
-18.35
-23.38
-28.46
-33.33
-37.58
-40.62
-41.95
-41.32
-38.98
-35.66
-32.31
-29.88
-29.05
-30.08
-32.87
-36.94
-41.65
-46.34
-50.57
-54.28
-57.74
-61.39
-65.55
-70.12
-74.57
-78.03
-79.50
-78.19
-73.75
-66.45
-57.47
-49.05
-43.90
-44.07
-49.36
-56.14
-57.61
-45.64
-13.46
42.11
119.53
212.90
313.15
409.54
491.05
547.87
572.86
562.87
519.53
448.95
360.42
264.42
170.78
87.41
19.61
-30.12
-62.32
-80.23
-88.90
-93.80
-99.15
-106.83
-116.26
-125.21
-131.01
-131.80
-127.22
-118.36
-107.27
-96.03
-86.13
-78.00
-71.35
-65.59
-60.33
-55.62
-51.72
-48.82
-46.69
-44.74
-42.33
-39.21
-35.70
-32.74
-31.48
-32.85
-37.21
-44.22
-52.96
-62.18
-70.57
-77.01
-80.77
-81.52
-79.37
-74.80
-68.47
-61.14
-53.56
-46.46
-40.34
-35.54
-32.00
-29.28
-26.63
-23.26
-18.68
-12.83
-6.14
0.80
7.52
13.83
19.84
25.64
31.12
35.85
39.32
41.11
41.21
39.96
37.80
34.97
31.42
26.81
20.85
13.53
5.19
-3.64
-12.56
-21.33
-29.82
-37.73
-44.40
-48.89
-50.42
-48.70
-44.17
-37.81
-30.75
-23.84
-17.58
-12.15
-7.72
-4.52
-2.86
-2.84
-4.21
-6.43
-8.85
-10.98
-12.63
-13.82
-14.66
-15.21
-15.44
-15.31
-14.88
-14.28
-13.71
-13.34
-13.29
-13.61
-14.29
-15.33
-16.68
-18.30
-20.13
-22.18
-24.59
-27.63
-31.56
-36.44
-41.89
-46.98
-50.38
-50.66
-46.87
-38.84
-27.33
-13.75
0.23
13.17
24.13
32.68
38.84
42.89
45.21
46.33
46.74
46.86
46.97
47.17
47.50
48.00
48.71
49.64
50.67
51.50
51.83
51.51
50.74
50.02
49.87
50.53
51.66
52.39
51.68
48.80
43.72
37.13
30.16
23.81
18.54
14.15
10.01
5.59
0.86
-3.61
-6.88
-8.15
-7.10
-4.06
0.20
4.76
8.89
12.27
14.87
16.87
18.46
19.73
20.66
21.20
21.33
21.14
20.82
20.63
20.83
21.61
23.03
25.02
27.40
29.89
32.18
34.06
35.51
36.73
38.14
40.19
43.13
46.83
50.85
54.59
57.67
60.05
62.15
64.44
67.21
70.29
72.98
74.32
73.34
69.24
61.52
49.87
34.36
15.56
-5.20
-25.90
-44.27
-58.49
-67.90
-73.23
-76.11
-78.26
-80.77
-83.73
-86.55
-88.64
-89.86
-90.65
-91.64
-93.24
-95.35
-97.45
-99.07
-100.11
-100.95
-102.22
-104.37
-107.43
-110.86
-113.87
-115.80
-116.44
-116.03
-115.09
-114.05
-113.01
-111.74
-109.75
-106.60
-101.88
-95.26
-86.34
-74.79
-60.40
-43.43
-24.61
-5.08
13.94
31.51
47.15
60.84
72.77
83.19
92.26
100.07
106.84
112.99
119.11
125.76
133.21
141.14
148.75
154.91
158.62
159.32
156.90
151.56
143.49
132.69
119.20
103.41
86.25
69.07
52.94
38.09
23.63
7.97
-10.32
-31.70
-55.44
-79.94
-103.46
-124.62
-142.36
-155.63
-163.04
-163.01
-154.60
-138.19
-116.03
-91.78
-69.57
-52.84
-43.43
-41.22
-44.35
-49.63
-53.40
-52.45
-44.94
-30.84
-11.86
9.34
30.05
48.28
62.73
72.40
76.07
72.42
60.65
41.41
17.17
-8.31
-31.18
-48.88
-60.80
-67.99
-72.18
-74.76
-76.23
-76.25
-74.19
-69.63
-62.62
-53.52
-42.78
-30.69
-17.44
-3.29
11.31
25.66
39.07
51.05
61.57
70.90
79.49
87.60
95.21
102.04
107.76
112.16
115.39
117.98
120.68
124.32
129.45
136.11
143.66
150.90
156.42
159.09
158.57
155.46
151.26
147.76
146.32
147.12
148.80
148.55
142.77
128.14
102.75
66.86
23.06
-24.40
-70.74
-112.06
-146.36
-173.91
-196.75
-217.54
-238.41
-260.06
-281.69
-301.62
-318.17
-330.39
-338.38
-343.19
-346.19
-348.61
-350.93
-352.52
-351.61
-345.75
-332.63
-311.13
-281.95
-247.37
-210.25
-172.64
-134.93
-96.29
-55.91
-14.40
25.64
60.33
86.01
100.90
106.04
105.06
103.00
104.66
113.13
128.99
150.50
174.64
198.27
219.26
236.73
250.58
260.70
266.42
266.73
260.95
249.61
234.53
218.13
202.41
188.13
174.83
161.71
148.44
135.75
125.15
117.99
114.69
114.50
115.90
117.26
117.29
115.03
109.74
100.80
88.04
72.23
55.26
39.82
28.38
22.23
20.92
22.53
24.61
25.10
22.96
18.08
11.00
2.54
-6.31
-14.36
-20.21
-22.47
-20.24
-13.42
-3.04
8.94
20.18
28.66
33.28
34.04
31.79
27.68
22.69
17.29
11.48
5.12
-1.79
-8.93
-15.79
-21.88
-27.00
-31.39
-35.56
-40.07
-45.24
-51.06
-57.21
-63.27
-68.95
-74.14
-78.97
-83.62
-88.21
-92.72
-97.05
-100.97
-104.24
-106.49
-107.24
-105.95
-102.17
-95.77
-87.05
-76.79
-65.94
-55.45
-45.95
-37.85
-31.31
-26.47
-23.38
-21.93
-21.73
-22.10
-22.25
-21.53
-19.56
-16.30
-11.93
-6.67
-0.80
5.40
11.59
17.36
22.37
26.37
29.16
30.52
30.11
27.55
22.75
16.11
8.60
1.44
-4.22
-7.59
-8.27
-6.09
-1.00
6.85
16.98
28.50
40.24
51.08
60.24
67.31
72.13
74.48
74.05
70.60
64.26
55.76
46.23
36.84
28.37
20.90
13.98
7.00
-0.44
-8.28
-16.02
-23.03
-28.80
-33.20
-36.50
-39.17
-41.69
-44.40
-47.44
-50.87
-54.73
-59.08
-63.86
-68.76
-73.13
-76.09
-76.79
-74.73
-69.89
-62.79
-54.26
-45.15
-36.18
-27.83
-20.39
-14.07
-9.07
-5.53
-3.38
-2.29
-1.69
-0.94
0.46
2.57
5.02
7.14
8.19
7.75
5.87
2.98
-0.25
-3.23
-5.67
-7.61
-9.44
-11.63
-14.65
-18.69
-23.64
-29.01
-33.94
-37.44
-38.65
-37.06
-32.75
-26.36
-18.83
-11.20
-4.28
1.43
5.76
8.73
10.41
10.99
10.74
10.08
9.54
9.58
10.43
11.94
13.65
14.94
15.35
14.72
13.30
11.50
9.78
8.38
7.25
6.15
4.75
2.78
0.15
-3.15
-7.02
-11.27
-15.60
-19.54
-22.45
-23.66
-22.67
-19.34
-13.96
-7.22
0.09
7.22
13.67
19.13
23.38
26.24
27.54
27.30
25.88
23.95
22.31
21.55
21.78
22.59
23.32
23.35
22.48
20.99
19.39
18.14
17.33
16.72
15.81
14.27
12.02
9.34
6.74
4.76
3.81
4.21
6.17
9.86
15.35
22.56
31.09
40.30
49.28
57.14
63.11
66.72
67.83
66.56
63.25
58.41
52.67
46.70
41.09
36.26
32.39
29.45
27.34
25.82
24.57
23.15
21.06
17.92
13.62
8.47
3.06
-1.94
-6.16
-9.67
-12.97
-16.73
-21.43
-27.18
-33.61
-40.07
-45.73
-49.82
-51.72
-51.06
-47.76
-42.17
-35.08
-27.55
-20.60
-14.97
-10.87
-8.12
-6.32
-5.18
-4.53
-4.38
-4.71
-5.33
-5.90
-6.05
-5.60
-4.58
-3.27
-2.04
-1.21
-0.97
-1.39
-2.38
-3.76
-5.32
-6.77
-7.95
-8.81
-9.52
-10.42
-11.98
-14.59
-18.42
-23.28
-28.56
-33.33
-36.53
-37.25
-35.01
-29.91
-22.61
-14.17
-5.70
1.88
8.04
12.62
15.71
17.49
18.15
17.93
17.13
16.13
15.21
14.53
13.92
13.09
11.71
9.70
7.27
4.81
2.67
1.00
-0.32
-1.61
-3.15
-5.11
-7.51
-10.25
-13.12
-15.82
-17.96
-19.15
-19.14
-17.95
-15.81
-13.07
-10.00
-6.62
-2.78
1.71
6.91
12.73
18.98
25.47
32.07
38.62
44.84
50.29
54.55
57.40
59.01
59.97
61.06
62.99
66.14
70.44
75.41
80.37
84.57
87.39
88.36
87.33
84.50
80.38
75.71
71.19
67.31
64.10
61.22
58.06
53.98
48.55
41.66
33.61
25.07
16.90
9.94
4.77
1.53
-0.18
-1.08
-2.12
-4.16
-7.79
-13.20
-20.23
-28.40
-37.16
-45.94
-54.29
-61.95
-68.70
-74.47
-79.20
-82.99
-86.10
-88.94
-91.88
-95.07
-98.38
-101.42
-103.82
-105.31
-105.93
-106.03
-106.11
-106.65
-107.91
-109.75
-111.53
-112.30
-110.98
-106.78
-99.39
-89.10
-76.58
-62.62
-47.93
-32.95
-17.96
-3.14
11.45
25.74
39.70
53.13
65.49
75.76
82.70
85.18
82.82
76.22
66.92
56.98
48.22
41.77
37.86
36.03
35.55
35.71
36.01
36.10
35.68
34.58
32.81
30.60
28.40
26.64
25.55
25.09
24.92
24.63
23.75
21.89
18.76
14.35
9.01
3.50
-1.11
-3.87
-4.32
-2.70
0.18
3.31
5.99
7.98
9.42
10.60
11.68
12.67
13.51
14.25
15.08
16.33
18.22
20.88
24.26
28.24
32.64
37.25
41.78
45.82
49.01
51.04
51.84
51.45
49.94
47.36
43.68
38.95
33.37
27.33
21.25
15.50
10.15
5.16
0.50
-3.60
-6.68
-8.21
-7.93
-5.99
-2.93
0.57
3.91
6.75
8.87
10.14
10.39
9.51
7.48
4.53
1.07
-2.49
-5.79
-8.65
-11.05
-13.12
-15.07
-17.16
-19.61
-22.46
-25.60
-28.74
-31.62
-34.08
-36.14
-37.89
-39.42
-40.70
-41.70
-42.42
-42.98
-43.58
-44.22
-44.68
-44.46
-42.90
-39.60
-34.51
-28.09
-21.05
-14.20
-8.10
-3.09
0.79
3.59
5.40
6.34
6.56
6.35
6.02
5.94
6.35
7.29
8.55
9.77
10.58
10.70
10.06
8.83
7.29
5.71
4.26
2.90
1.51
-0.08
-1.93
-4.02
-6.25
-8.60
-11.15
-14.04
-17.25
-20.52
-23.21
-24.51
-23.81
-20.94
-16.38
-11.05
-5.98
-1.87
1.04
3.01
4.41
5.51
6.30
6.58
6.15
5.03
3.48
1.89
0.61
-0.21
-0.59
-0.75
-0.91
-1.23
-1.81
-2.67
-3.75
-5.00
-6.37
-7.86
-9.47
-11.13
-12.75
-14.17
-15.22
-15.88
-16.29
-16.74
-17.45
-18.47
-19.46
-19.79
-18.77
-15.99
-11.51
-5.94
-0.14
5.09
9.38
12.80
15.68
18.38
21.00
23.44
25.49
27.09
28.36
29.58
30.92
32.32
33.51
34.14
34.02
33.22
31.95
30.38
28.50
26.12
22.99
19.08
14.60
10.00
5.69
1.94
-1.26
-4.19
-7.13
-10.36
-13.98
-17.95
-21.96
-25.48
-27.79
-28.16
-26.23
-22.13
-16.58
-10.60
-5.08
-0.43
3.46
6.97
10.39
13.64
16.28
17.76
17.76
16.43
14.31
12.09
10.29
9.06
8.19
7.25
5.78
3.65
1.02
-1.76
-4.29
-6.42
-8.26
-10.13
-12.28
-14.75
-17.33
-19.75
-21.90
-23.96
-26.34
-29.35
-32.90
-36.34
-38.69
-38.94
-36.61
-31.93
-25.79
-19.31
-13.45
-8.69
-5.00
-2.06
0.40
2.52
4.31
5.83
7.39
9.45
12.42
16.42
21.13
25.92
30.05
33.05
34.75
35.25
34.79
33.55
31.59
28.94
25.62
21.73
17.32
12.44
6.98
0.79
-6.29
-14.22
-22.73
-31.26
-38.95
-44.83
-47.96
-47.60
-43.50
-35.88
-25.41
-13.10
-0.04
12.69
24.22
33.84
41.18
46.12
48.82
49.69
49.25
47.96
46.09
43.58
40.11
35.28
28.82
20.67
11.03
0.25
-11.22
-22.99
-34.79
-46.61
-58.74
-71.59
-85.34
-99.51
-112.64
-122.47
-126.41
-122.46
-109.80
-89.19
-62.68
-32.95
-2.59
26.32
52.43
74.95
93.42
107.50
116.92
121.50
121.28
116.58
108.14
97.09
84.79
72.67
61.98
53.56
47.67
43.92
41.44
39.21
36.40
32.64
28.09
23.28
18.66
14.35
9.96
4.80
-1.75
-9.84
-18.96
-28.13
-36.23
-42.55
-46.96
-49.96
-52.33
-54.68
-57.16
-59.42
-60.88
-61.11
-60.20
-58.73
-57.51
-57.13
-57.61
-58.36
-58.46
-57.14
-54.07
-49.50
-44.00
-38.13
-32.13
-25.96
-19.36
-12.08
-4.06
4.48
13.09
21.18
28.14
33.52
37.18
39.35
40.54
41.40
42.46
43.95
45.80
47.78
49.85
52.31
55.84
61.24
69.05
79.22
90.97
102.99
113.99
123.08
130.20
135.95
141.19
146.53
151.93
156.72
159.81
160.14
157.08
150.61
141.33
130.32
118.85
107.92
97.86
87.97
76.34
60.26
37.01
5.01
-35.24
-80.90
-127.44
-169.88
-204.32
-229.10
-244.81
-253.42
-256.73
-254.92
-246.13
-227.44
-196.87
-155.17
-106.46
-57.23
-14.23
17.63
36.21
41.59
35.06
18.38
-6.16
-35.24
-64.55
-89.80
-108.08
-118.87
-123.62
-124.12
-120.93
-112.76
-97.60
-74.63
-45.64
-14.79
13.12
34.69
49.26
58.69
66.03
74.00
84.09
96.41
110.27
124.95
140.06
155.64
171.56
187.02
200.09
207.89
207.18
195.55
172.49
140.01
102.30
64.45
30.80
3.65
-17.05
-32.93
-46.03
-57.68
-68.22
-77.18
-83.96
-88.24
-90.06
-89.58
-86.79
-81.43
-73.15
-61.72
-47.16
-29.67
-9.67
12.16
34.63
56.05
74.34
87.42
93.76
92.54
83.41
66.28
41.18
8.86
-28.58
-67.15
-101.44
-125.87
-136.31
-131.11
-111.37
-80.10
-41.22
1.37
44.12
83.77
117.36
142.41
157.37
162.01
157.58
146.52
131.84
116.35
102.07
89.88
79.46
69.84
60.01
49.32
37.55
24.49
9.53
-8.65
-31.67
-61.06
-97.60
-140.86
-188.77
-237.49
-281.76
-315.86
-334.96
-336.50
-320.68
-290.00
-247.96
-197.80
-142.08
-83.10
-23.82
31.79
79.36
115.42
138.68
150.30
152.82
148.71
138.90
122.57
97.91
63.30
18.27
-36.20
-97.91
-163.73
-229.66
-290.90
-342.24
-379.10
-399.07
-403.17
-395.90
-383.65
-372.12
-363.85
-357.49
-349.01
-334.28
-311.34
-281.33
-247.55
-213.44
-180.87
-149.65
-118.28
-85.26
-50.27
-14.55
19.63
49.96
75.00
94.64
110.05
122.96
134.83
146.00
155.45
161.27
161.70
156.19
145.91
133.46
121.81
113.20
108.48
107.05
107.40
107.70
106.22
101.68
93.51
81.90
67.94
53.37
40.20
30.11
23.95
21.64
22.26
24.55
27.27
29.55
30.83
30.86
29.52
26.85
23.04
18.56
14.08
10.33
7.90
6.99
7.41
8.59
9.91
10.94
11.63
12.29
13.42
15.47
18.60
22.60
26.85
30.53
32.86
33.36
32.05
29.39
26.14
22.99
20.37
18.34
16.75
15.41
14.30
13.54
13.36
13.94
15.41
17.85
21.32
25.78
30.97
36.32
41.05
44.34
45.67
44.98
42.73
39.80
37.18
35.73
35.95
37.91
41.22
45.24
49.17
52.36
54.43
55.34
55.35
54.73
53.70
52.28
50.37
47.87
44.68
40.79
36.14
30.71
24.61
18.24
12.37
7.95
5.86
6.48
9.53
14.12
19.07
23.31
26.17
27.49
27.46
26.44
24.78
22.70
20.32
17.73
15.06
12.47
10.18
8.37
7.18
6.54
6.27
6.06
5.59
4.64
3.06
0.86
-1.87
-4.90
-7.98
-10.84
-13.21
-14.96
-16.15
-17.01
-17.86
-18.92
-20.13
-21.08
-21.10
-19.57
-16.11
-10.83
-4.27
2.82
9.63
15.57
20.30
23.75
25.99
27.21
27.59
27.32
26.61
25.68
24.78
24.15
24.03
24.50
25.47
26.61
27.40
27.29
25.84
22.80
18.24
12.50
6.18
0.06
-5.10
-8.73
-10.64
-11.09
-10.73
-10.40
-10.84
-12.37
-14.76
-17.33
-19.07
-19.08
-16.79
-12.12
-5.43
2.58
11.19
19.75
27.81
35.03
41.08
45.57
48.05
48.17
45.87
41.46
35.67
29.45
23.67
18.85
15.02
11.78
8.58
4.94
0.74
-3.80
-8.25
-12.16
-15.25
-17.50
-19.03
-20.05
-20.65
-20.89
-20.86
-20.79
-21.10
-22.13
-24.00
-26.44
-28.86
-30.71
-31.69
-31.99
-32.00
-32.06
-32.08
-31.57
-29.91
-26.71
-22.11
-16.74
-11.45
-6.90
-3.36
-0.72
1.26
2.77
3.78
4.07
3.44
1.84
-0.57
-3.41
-6.23
-8.64
-10.47
-11.84
-13.02
-14.31
-15.85
-17.50
-18.96
-19.95
-20.47
-20.83
-21.53
-22.97
-25.21
-27.95
-30.68
-32.87
-34.17
-34.24
-32.64
-28.68
-21.65
-11.11
2.66
18.69
35.59
52.05
67.27
81.06
93.62
105.14
115.68
125.20
133.87
142.24
151.19
161.61
173.92
187.84
202.37
216.20
228.06
237.04
242.51
244.02
241.10
233.42
221.04
204.73
185.88
166.08
146.50
127.30
107.70
86.46
62.64
36.15
7.85
-20.84
-48.41
-73.54
-95.25
-112.83
-126.06
-135.29
-141.54
-146.14
-150.21
-154.21
-157.79
-160.18
-160.81
-159.71
-157.48
-154.79
-151.86
-148.27
-143.21
-136.02
-126.68
-115.74
-104.12
-92.51
-81.15
-69.79
-58.07
-45.90
-33.52
-21.59
-10.81
-1.84
4.81
8.61
8.90
4.93
-3.83
-17.25
-34.18
-52.46
-69.38
-82.44
-90.04
-91.80
-88.48
-81.54
-72.57
-62.99
-53.81
-45.71
-39.01
-33.75
-29.67
-26.25
-22.83
-18.87
-14.08
-8.50
-2.47
3.55
9.06
13.71
17.29
19.74
21.13
21.58
21.21
20.05
18.09
15.34
11.85
7.80
3.43
-1.03
-5.47
-9.95
-14.66
-19.76
-25.18
-30.50
-34.94
-37.52
-37.31
-33.84
-27.24
-18.35
-8.43
1.18
9.45
15.96
20.82
24.48
27.40
29.88
31.96
33.48
34.21
33.99
32.76
30.53
27.41
23.52
19.07
14.36
9.70
5.46
1.94
-0.67
-2.22
-2.63
-1.87
0.03
2.78
5.86
8.53
9.91
9.36
6.61
2.03
-3.43
-8.29
-10.96
-10.01
-4.60
5.33
19.11
35.66
53.95
73.39
94.05
116.29
140.35
165.69
190.78
213.24
230.56
240.92
243.86
240.34
232.19
221.25
208.60
194.34
177.99
159.18
138.28
116.30
94.46
73.45
52.90
31.59
7.88
-19.68
-52.04
-89.43
-131.13
-175.03
-217.43
-253.50
-278.52
-289.48
-286.29
-271.86
-250.86
-227.86
-205.87
-185.86
-167.59
-150.79
-136.02
-124.56
-117.62
-115.44
-116.91
-119.92
-122.18
-121.97
-118.51
-112.03
-103.28
-93.14
-82.39
-71.64
-61.35
-51.94
-43.71
-36.78
-31.09
-26.43
-22.49
-18.92
-15.23
-10.89
-5.47
0.94
7.49
12.64
14.76
13.00
7.94
1.50
-3.80
-5.98
-4.39
0.35
7.05
14.75
22.92
30.89
37.00
38.10
30.15
9.86
-23.67
-67.96
-117.68
-166.26
-207.74
-238.17
-255.98
-261.62
-256.73
-243.56
-224.60
-202.26
-178.58
-154.92
-131.53
-107.67
-82.03
-53.51
-22.03
11.00
42.98
70.85
92.12
105.78
112.57
114.65
114.69
114.95
116.66
119.87
123.77
127.20
129.08
128.69
125.89
121.14
115.40
109.86
105.49
102.63
100.96
99.67
97.93
95.25
91.58
87.12
81.99
76.16
69.80
63.68
59.27
58.27
61.51
67.99
74.61
77.01
71.25
55.46
30.55
-0.46
-33.75
-66.24
-96.08
-122.29
-143.89
-159.35
-166.84
-165.03
-153.82
-134.54
-109.23
-79.78
-47.32
-12.32
24.67
62.15
97.29
126.21
144.89
150.35
141.50
119.60
88.06
52.02
17.44
-9.74
-24.48
-23.59
-6.41
24.79
65.21
108.62
149.07
182.37
206.88
223.22
232.77
236.04
231.59
216.34
187.18
143.18
87.06
25.06
-34.60
-84.05
-117.77
-133.50
-131.80
-115.14
-87.10
-51.86
-13.96
22.17
52.75
75.36
88.97
93.65
90.15
80.00
65.69
50.28
36.22
23.74
10.37
-7.78
-33.12
-64.01
-94.49
-117.01
-126.78
-124.85
-117.92
-114.76
-121.70
-139.88
-165.88
-194.64
-222.35
-247.27
-268.25
-282.73
-286.20
-273.63
-242.06
-192.69
-131.07
-65.29
-3.38
48.80
88.37
115.22
130.98
138.03
138.81
135.30
128.91
120.29
109.57
96.78
82.19
66.48
50.61
35.34
20.93
7.01
-7.14
-22.18
-38.36
-55.27
-71.76
-86.01
-95.72
-98.50
-92.65
-78.04
-56.55
-32.09
-9.50
6.77
14.11
12.39
3.75
-8.42
-20.49
-29.47
-33.28
-30.79
-21.82
-7.31
10.57
28.82
44.26
54.75
59.88
61.01
60.44
60.27
61.43
63.57
65.65
66.81
67.08
67.43
69.19
73.35
79.96
88.00
95.73
101.32
103.33
101.17
95.23
86.86
78.05
70.81
66.47
65.07
65.26
64.83
61.64
54.66
44.52
33.53
24.91
21.77
25.82
36.61
51.47
66.26
76.72
79.91
75.08
63.63
48.24
31.67
15.83
1.57
-10.92
-21.61
-30.32
-36.75
-40.91
-43.22
-44.44
-45.35
-46.48
-48.00
-49.79
-51.51
-52.69
-52.84
-51.55
-48.76
-44.76
-40.22
-35.84
-32.18
-29.57
-28.24
-28.63
-31.47
-37.46
-46.75
-58.51
-70.87
-81.45
-88.38
-91.04
-90.29
-87.87
-85.44
-83.69
-82.10
-79.35
-74.09
-65.44
-53.22
-37.73
-19.57
0.40
20.94
40.47
57.22
69.70
77.18
79.85
78.60
74.66
69.25
63.36
57.84
53.41
50.52
49.26
49.21
49.57
49.46
48.18
45.43
41.34
36.34
30.99
25.75
20.95
16.76
13.18
10.16
7.60
5.43
3.61
2.03
0.44
-1.47
-4.00
-7.23
-10.86
-14.27
-16.62
-17.25
-15.82
-12.48
-7.77
-2.40
2.96
7.85
11.99
15.15
17.13
17.76
17.02
15.19
12.84
10.62
9.04
8.18
7.65
6.79
5.07
2.32
-1.12
-4.59
-7.39
-9.15
-9.86
-9.87
-9.63
-9.57
-9.96
-10.95
-12.61
-14.93
-17.94
-21.64
-26.11
-31.49
-38.00
-45.74
-54.57
-63.99
-73.19
-81.26
-87.49
-91.60
-93.79
-94.55
-94.49
-94.11
-93.72
-93.48
-93.39
-93.30
-92.93
-91.72
-88.80
-83.13
-73.68
-59.86
-41.83
-20.47
2.80
26.47
49.29
70.49
89.75
107.11
123.00
138.23
153.87
170.75
188.88
206.97
222.54
232.59
234.82
228.49
214.57
195.25
172.96
149.61
126.43
104.09
83.14
64.04
47.18
32.71
20.39
9.74
0.20
-8.73
-17.44
-26.12
-34.69
-42.73
-49.53
-54.28
-56.43
-55.91
-53.19
-49.01
-44.04
-38.69
-33.18
-27.62
-22.25
-17.35
-13.02
-8.89
-4.02
2.94
13.24
27.49
45.30
65.33
85.63
104.20
119.48
130.45
136.62
137.80
133.95
125.24
112.16
95.67
77.11
58.02
39.70
23.03
8.38
-4.26
-15.06
-24.25
-32.07
-38.93
-45.38
-51.99
-59.15
-66.75
-74.15
-80.37
-84.49
-86.11
-85.53
-83.72
-81.94
-81.33
-82.55
-85.68
-90.13
-94.97
-99.05
-101.36
-101.24
-98.48
-93.35
-86.43
-78.45
-70.07
-61.81
-53.98
-46.69
-39.83
-33.20
-26.57
-19.91
-13.42
-7.45
-2.36
1.76
5.13
8.20
11.34
14.72
18.18
21.37
24.01
26.02
27.48
28.55
29.35
29.92
30.19
30.13
29.74
29.08
28.26
27.36
26.48
25.68
25.00
24.44
23.94
23.37
22.60
21.45
19.82
17.72
15.26
12.62
9.97
7.42
5.04
2.94
1.30
0.30
0.01
0.11
-0.10
-1.51
-4.90
-10.49
-17.81
-25.79
-33.12
-38.66
-41.75
-42.31
-40.80
-37.96
-34.62
-31.46
-28.88
-27.00
-25.75
-24.99
-24.65
-24.68
-25.08
-25.88
-27.11
-28.89
-31.37
-34.60
-38.42
-42.37
-45.78
-48.00
-48.57
-47.49
-45.17
-42.24
-39.31
-36.72
-34.44
-32.09
-29.14
-25.16
-19.95
-13.55
-6.25
1.52
9.27
16.38
22.15
25.91
27.26
26.31
23.70
20.45
17.58
15.74
15.05
15.12
15.36
15.18
14.20
12.31
9.65
6.56
3.44
0.70
-1.39
-2.69
-3.13
-2.59
-0.92
2.03
6.25
11.27
16.25
20.15
22.05
21.52
18.71
14.27
9.09
4.07
-0.05
-2.75
-3.70
-2.86
-0.44
3.04
6.90
10.38
12.83
13.78
13.12
11.02
8.01
4.85
2.36
1.20
1.64
3.52
6.27
9.19
11.64
13.27
14.03
14.09
13.71
13.08
12.25
11.20
9.84
8.21
6.51
5.25
5.15
6.97
11.23
18.01
26.80
36.62
46.30
54.86
61.88
67.53
72.45
77.31
82.50
87.91
93.05
97.23
99.68
99.58
95.93
87.78
74.52
56.44
34.95
12.39
-8.66
-26.18
-39.33
-48.42
-54.47
-58.58
-61.54
-63.77
-65.54
-67.09
-68.53
-69.55
-69.26
-66.32
-59.53
-48.54
-34.28
-18.85
-4.91
5.27
10.61
11.49
9.51
6.73
4.92
4.98
6.81
9.50
11.81
12.60
11.14
7.20
0.93
-7.25
-16.80
-27.11
-37.46
-47.11
-55.38
-61.78
-66.13
-68.51
-69.17
-68.40
-66.43
-63.51
-59.95
-56.05
-52.04
-47.87
-43.14
-37.24
-29.67
-20.36
-9.85
0.83
10.45
18.01
23.05
25.62
26.21
25.46
23.91
21.93
19.75
17.58
15.59
13.92
12.52
11.10
9.20
6.37
2.35
-2.72
-8.39
-14.05
-19.17
-23.56
-27.33
-30.91
-34.76
-39.19
-44.20
-49.39
-54.11
-57.64
-59.39
-59.05
-56.60
-52.29
-46.51
-39.75
-32.49
-25.24
-18.46
-12.45
-7.36
-3.16
0.34
3.28
5.79
7.96
9.84
11.49
12.99
14.37
15.59
16.60
17.33
17.80
18.04
18.04
17.71
16.88
15.43
13.34
10.76
7.95
5.12
2.37
-0.37
-3.23
-6.35
-9.82
-13.67
-17.88
-22.42
-27.11
-31.59
-35.32
-37.60
-37.87
-35.87
-31.76
-26.14
-19.77
-13.39
-7.50
-2.35
1.96
5.39
7.84
9.25
9.65
9.28
8.53
7.83
7.41
7.29
7.30
7.22
7.01
6.76
6.68
6.83
7.08
7.09
6.45
4.89
2.38
-0.86
-4.44
-8.01
-11.38
-14.50
-17.45
-20.37
-23.38
-26.48
-29.46
-31.85
-32.98
-32.14
-28.84
-23.09
-15.39
-6.57
2.51
11.23
19.28
26.62
33.24
39.10
44.18
48.57
52.56
56.56
60.84
65.36
69.70
73.23
75.37
75.88
74.95
73.02
70.61
67.99
65.15
61.81
57.61
52.32
45.95
38.76
31.18
23.65
16.51
9.94
3.90
-1.82
-7.52
-13.43
-19.54
-25.54
-30.76
-34.40
-35.74
-34.48
-30.80
-25.37
-19.09
-12.82
-7.12
-2.20
1.91
5.26
7.84
9.51
10.24
10.10
9.33
8.29
7.32
6.61
6.21
6.07
6.14
6.43
6.94
7.62
8.32
8.79
8.77
8.12
6.89
5.26
3.55
2.06
0.91
0.10
-0.55
-1.26
-2.23
-3.59
-5.45
-7.78
-10.39
-12.84
-14.50
-14.70
-12.99
-9.35
-4.19
1.70
7.52
12.58
16.48
18.98
20.02
19.62
17.96
15.40
12.43
9.58
7.25
5.59
4.60
4.13
4.06
4.24
4.54
4.76
4.69
4.15
3.09
1.61
-0.07
-1.73
-3.17
-4.28
-5.11
-5.77
-6.41
-7.18
-8.14
-9.28
-10.60
-12.17
-14.15
-16.64
-19.57
-22.49
-24.67
-25.29
-23.82
-20.25
-15.13
-9.37
-3.83
0.92
4.67
7.43
9.30
10.28
10.40
9.72
8.48
7.10
6.06
5.73
6.24
7.44
8.89
10.10
10.70
10.57
9.87
8.97
8.16
7.58
7.11
6.46
5.39
3.85
2.06
0.36
-0.97
-1.84
-2.39
-2.92
-3.72
-4.99
-6.73
-8.83
-11.02
-12.91
-14.06
-14.04
-12.58
-9.74
-5.84
-1.41
3.06
7.16
10.69
13.54
15.66
16.98
17.44
17.05
15.89
14.16
12.12
10.09
8.37
7.23
6.87
7.27
8.26
9.42
10.33
10.62
10.20
9.22
8.00
6.88
5.98
5.29
4.58
3.64
2.32
0.67
-1.28
-3.51
-6.14
-9.34
-13.17
-17.42
-21.59
-25.07
-27.28
-27.91
-26.95
-24.66
-21.46
-17.81
-14.16
-10.94
-8.39
-6.64
-5.61
-5.10
-4.94
-5.02
-5.31
-5.85
-6.57
-7.37
-8.11
-8.67
-9.05
-9.28
-9.45
-9.48
-9.31
-8.88
-8.23
-7.58
-7.20
-7.27
-7.74
-8.34
-8.66
-8.37
-7.41
-6.01
-4.63
-3.69
-3.48
-3.99
-4.98
-6.13
-7.08
-7.57
-7.35
-6.24
-4.09
-0.93
3.06
7.47
11.74
15.38
18.01
19.48
19.86
19.36
18.28
16.90
15.41
13.95
12.56
11.21
9.85
8.44
7.03
5.65
4.37
3.21
2.09
0.95
-0.23
-1.40
-2.40
-3.09
-3.44
-3.49
-3.44
-3.49
-3.82
-4.52
-5.62
-7.09
-8.90
-10.89
-12.77
-14.19
-14.71
-14.02
-12.02
-8.87
-5.00
-0.91
2.89
6.03
8.30
9.63
10.05
9.67
8.69
7.37
6.04
4.92
4.15
3.67
3.25
2.64
1.72
0.55
-0.67
-1.64
-2.18
-2.26
-2.02
-1.64
-1.37
-1.44
-1.95
-2.90
-4.07
-5.19
-5.94
-6.19
-6.07
-5.90
-6.01
-6.56
-7.40
-8.10
-8.14
-7.14
-4.99
-1.91
1.75
5.56
9.18
12.34
14.82
16.35
16.72
15.78
13.60
10.51
7.08
3.93
1.53
0.05
-0.67
-0.90
-0.95
-0.96
-0.99
-1.11
-1.41
-2.12
-3.38
-5.23
-7.48
-9.81
-11.85
-13.42
-14.54
-15.43
-16.41
-17.75
-19.56
-21.71
-23.94
-25.85
-27.04
-27.16
-25.93
-23.30
-19.36
-14.47
-9.16
-3.98
0.60
4.32
7.14
9.10
10.25
10.59
10.09
8.80
6.97
5.00
3.35
2.40
2.31
3.01
4.32
5.97
7.71
9.32
10.55
11.15
10.95
9.88
8.04
5.65
3.00
0.32
-2.24
-4.71
-7.20
-9.84
-12.67
-15.55
-18.10
-19.80
-20.12
-18.77
-15.73
-11.35
-6.24
-1.00
3.82
7.88
10.98
13.05
14.08
14.18
13.55
12.53
11.47
10.71
10.42
10.55
10.85
10.95
10.50
9.35
7.53
5.30
2.91
0.56
-1.76
-4.11
-6.58
-9.12
-11.55
-13.64
-15.25
-16.44
-17.47
-18.73
-20.47
-22.74
-25.24
-27.38
-28.48
-27.98
-25.64
-21.61
-16.41
-10.70
-5.07
0.06
4.50
8.16
10.97
12.91
13.96
14.23
13.96
13.44
12.99
12.80
12.94
13.36
13.89
14.33
14.50
14.23
13.44
12.10
10.24
7.94
5.36
2.67
0.07
-2.26
-4.30
-6.19
-8.16
-10.48
-13.28
-16.50
-19.89
-23.07
-25.65
-27.26
-27.53
-26.21
-23.16
-18.51
-12.61
-6.06
0.47
6.39
11.32
15.09
17.61
18.90
19.04
18.20
16.68
14.92
13.33
12.20
11.57
11.29
11.12
10.84
10.41
9.83
9.17
8.42
7.54
6.42
5.03
3.42
1.65
-0.20
-2.09
-3.96
-5.74
-7.31
-8.63
-9.79
-11.10
-12.95
-15.65
-19.21
-23.14
-26.64
-28.70
-28.54
-25.86
-20.94
-14.54
-7.61
-1.03
4.66
9.19
12.60
15.02
16.61
17.56
18.01
18.20
18.36
18.79
19.66
21.03
22.68
24.24
25.31
25.62
25.12
23.94
22.36
20.58
18.72
16.80
14.74
12.54
10.18
7.70
5.15
2.60
0.11
-2.17
-4.16
-5.79
-7.17
-8.48
-10.00
-12.03
-14.81
-18.42
-22.67
-27.02
-30.63
-32.51
-31.86
-28.33
-22.25
-14.52
-6.27
1.50
8.18
13.64
17.96
21.24
23.44
24.44
24.26
23.19
21.75
20.54
20.01
20.28
21.19
22.40
23.57
24.45
24.87
24.76
24.04
22.74
20.94
18.82
16.59
14.37
12.18
9.96
7.65
5.30
3.03
1.03
-0.56
-1.74
-2.61
-3.36
-4.22
-5.41
-7.12
-9.56
-12.84
-16.88
-21.31
-25.42
-28.26
-28.95
-26.90
-22.14
-15.26
-7.27
0.72
7.85
13.64
18.05
21.22
23.36
24.60
24.97
24.58
23.68
22.67
21.93
21.69
21.93
22.39
22.76
22.83
22.50
21.81
20.81
19.53
17.96
16.10
13.99
11.76
9.52
7.38
5.33
3.33
1.25
-0.99
-3.49
-6.18
-8.94
-11.52
-13.69
-15.41
-16.81
-18.27
-20.21
-22.89
-26.21
-29.61
-32.28
-33.33
-32.21
-28.75
-23.32
-16.54
-9.16
-1.84
4.93
10.78
15.45
18.75
20.62
21.17
20.73
19.77
18.79
18.18
18.11
18.48
19.01
19.40
19.38
18.85
17.89
16.63
15.20
13.64
11.82
9.61
6.90
3.80
0.56
-2.48
-5.03
-7.07
-8.73
-10.37
-12.27
-14.56
-17.15
-19.77
-22.17
-24.22
-26.06
-28.00
-30.31
-32.96
-35.44
-36.81
-35.93
-31.96
-24.71
-14.86
-3.77
6.88
15.71
21.91
25.37
26.76
27.43
29.34
34.60
44.85
60.45
79.97
100.43
118.12
130.05
134.91
133.47
128.07
121.46
115.86
112.27
110.66
110.41
110.82
111.33
111.40
110.33
107.12
100.63
89.82
74.27
54.46
31.89
8.76
-12.56
-30.24
-43.67
-53.55
-61.60
-69.80
-79.59
-91.36
-104.39
-117.29
-128.71
-137.86
-144.69
-149.74
-153.79
-157.61
-161.79
-166.61
-171.73
-175.86
-176.73
-171.60
-158.25
-136.15
-107.04
-74.57
-43.10
-16.22
4.28
18.40
27.31
32.39
34.69
34.96
34.02
32.97
33.10
35.33
39.92
46.34
53.57
60.53
66.27
70.06
71.37
69.91
65.85
59.83
52.89
46.10
40.18
35.41
31.89
29.93
30.16
33.31
39.72
48.78
59.00
68.59
76.26
81.80
86.01
89.98
94.32
98.61
101.56
101.74
98.36
91.63
82.73
73.10
63.86
55.47
47.85
40.76
34.18
28.39
23.82
20.67
18.74
17.48
16.15
14.14
11.07
6.82
1.38
-5.17
-12.72
-21.03
-29.64
-37.94
-45.30
-51.23
-55.51
-58.24
-59.70
-60.37
-60.75
-61.37
-62.64
-64.82
-67.86
-71.37
-74.69
-77.10
-78.05
-77.38
-75.30
-72.32
-68.93
-65.43
-61.91
-58.29
-54.43
-50.23
-45.57
-40.31
-34.27
-27.25
-19.26
-10.54
-1.55
7.20
15.30
22.54
28.89
34.31
38.67
41.73
43.19
42.86
40.64
36.51
30.52
22.79
13.58
3.36
-7.24
-17.52
-26.90
-35.04
-41.87
-47.56
-52.37
-56.57
-60.35
-63.85
-67.08
-70.03
-72.58
-74.47
-75.39
-74.95
-72.84
-68.93
-63.34
-56.47
-48.94
-41.44
-34.58
-28.72
-23.96
-20.08
-16.75
-13.53
-10.14
-6.47
-2.62
1.18
4.72
7.87
10.63
13.04
15.14
16.83
17.92
18.24
17.68
16.36
14.57
12.70
11.11
9.97
9.28
8.87
8.54
8.12
7.61
7.11
6.74
6.63
6.82
7.29
8.05
9.18
10.78
13.01
15.89
19.36
23.27
27.55
32.24
37.52
43.66
50.80
58.89
67.62
76.69
86.06
96.21
107.96
122.15
139.09
158.09
177.44
194.69
207.37
213.64
212.85
205.65
193.67
178.98
163.38
147.94
132.78
117.18
100.10
80.60
58.41
33.88
7.83
-19.13
-46.98
-76.57
-109.03
-145.08
-184.29
-225.22
-266.06
-305.45
-342.59
-376.09
-402.79
-417.43
-414.27
-390.04
-346.58
-291.03
-233.20
-181.58
-140.75
-111.66
-94.07
-88.82
-97.59
-120.23
-151.79
-182.13
-199.27
-194.84
-168.12
-126.11
-79.62
-37.65
-3.58
25.12
54.30
89.36
132.55
181.98
232.20
275.58
303.97
310.73
292.58
250.76
190.84
121.24
50.91
-12.97
-66.14
-107.32
-137.18
-157.39
-169.88
-176.79
-180.33
-182.66
-185.38
-189.02
-192.78
-194.84
-192.88
-184.97
-170.26
-149.16
-123.21
-94.72
-66.24
-39.98
-17.34
1.29
16.47
29.22
40.44
50.31
58.30
63.63
65.87
65.44
63.50
61.40
60.02
59.25
58.11
55.20
49.39
40.40
29.00
16.82
5.82
-2.25
-6.36
-6.45
-3.34
1.64
7.07
11.92
15.77
18.76
21.42
24.33
27.92
32.23
37.07
42.02
46.71
50.92
54.63
58.01
61.19
64.18
66.69
68.32
68.62
67.34
64.56
60.60
55.92
50.95
45.94
41.01
36.14
31.26
26.31
21.17
15.68
9.68
3.03
-4.24
-11.88
-19.30
-25.61
-29.74
-30.70
-27.93
-21.66
-12.89
-3.23
5.62
12.44
16.73
18.77
19.15
18.44
16.82
14.17
10.32
5.34
-0.24
-5.60
-9.83
-12.37
-13.22
-12.97
-12.60
-13.10
-15.16
-18.91
-23.95
-29.38
-34.00
-36.46
-35.48
-30.05
-19.75
-5.10
12.42
30.37
46.05
57.29
63.20
64.53
63.27
61.78
61.75
63.62
66.46
68.76
69.18
67.14
62.99
57.60
51.77
45.94
40.19
34.49
29.02
24.28
20.86
19.22
19.42
21.02
23.29
25.40
26.68
26.77
25.62
23.51
20.84
18.03
15.32
12.71
9.98
6.78
2.84
-1.95
-7.54
-13.81
-20.64
-27.84
-35.00
-41.33
-45.77
-47.24
-45.03
-39.19
-30.54
-20.44
-10.36
-1.48
5.58
10.65
13.95
15.75
16.41
16.27
15.71
15.13
14.88
15.18
16.04
17.29
18.61
19.62
20.02
19.57
18.18
15.91
12.91
9.43
5.75
2.16
-1.12
-4.00
-6.59
-9.16
-12.08
-15.66
-19.96
-24.63
-28.96
-31.95
-32.61
-30.27
-24.81
-16.80
-7.38
2.07
10.32
16.66
21.00
23.71
25.35
26.33
26.79
26.67
25.89
24.57
22.99
21.55
20.57
20.09
19.95
19.81
19.34
18.35
16.86
15.01
12.97
10.86
8.61
6.09
3.12
-0.33
-4.17
-8.21
-12.29
-16.38
-20.56
-24.86
-29.04
-32.50
-34.38
-33.81
-30.32
-24.05
-15.74
-6.52
2.42
10.22
16.37
20.75
23.48
24.82
25.13
24.78
24.14
23.54
23.15
23.00
22.99
23.01
22.96
22.80
22.47
21.98
21.23
20.17
18.75
16.90
14.64
11.99
9.11
6.17
3.44
1.09
-0.84
-2.54
-4.37
-6.81
-10.27
-14.86
-20.25
-25.67
-30.07
-32.37
-31.84
-28.29
-22.18
-14.37
-5.93
2.16
9.18
14.66
18.42
20.56
21.38
21.39
21.15
21.16
21.72
22.82
24.23
25.60
26.54
26.81
26.35
25.27
23.80
22.18
20.57
18.91
17.03
14.68
11.82
8.61
5.41
2.62
0.44
-1.20
-2.67
-4.38
-6.72
-9.78
-13.35
-16.91
-19.78
-21.18
-20.48
-17.35
-11.97
-4.99
2.61
9.79
15.78
20.23
23.17
24.81
25.35
24.94
23.69
21.84
19.87
18.26
17.41
17.42
18.04
18.89
19.58
19.85
19.61
18.78
17.29
15.08
12.13
8.61
4.79
0.98
-2.60
-5.81
-8.61
-11.00
-13.01
-14.81
-16.64
-18.76
-21.28
-23.95
-26.21
-27.29
-26.58
-23.78
-19.14
-13.25
-6.86
-0.62
5.00
9.76
13.50
16.10
17.49
17.67
16.84
15.40
13.83
12.56
11.83
11.64
11.80
12.08
12.25
12.23
11.93
11.30
10.30
8.92
7.24
5.44
3.66
1.91
0.05
-2.16
-4.86
-7.98
-11.20
-14.09
-16.29
-17.70
-18.47
-18.76
-18.64
-17.89
-16.10
-12.84
-7.88
-1.49
5.57
12.12
16.81
18.44
16.21
9.90
-0.07
-12.65
-26.25
-38.82
-48.20
-52.51
-50.75
-43.23
-31.65
-18.59
-6.68
2.31
8.00
11.21
13.37
15.59
18.19
20.69
22.26
22.36
21.02
18.83
16.55
14.76
13.62
13.04
12.91
13.40
14.93
18.03
22.96
29.59
37.29
45.17
52.23
57.53
60.27
59.86
55.98
48.79
38.90
27.41
15.62
4.78
-4.20
-10.78
-14.80
-16.36
-15.74
-13.40
-9.90
-5.86
-1.86
1.65
4.42
6.26
7.06
6.71
5.17
2.55
-0.96
-5.15
-9.93
-15.30
-21.30
-27.85
-34.52
-40.59
-45.16
-47.48
-47.24
-44.69
-40.59
-35.86
-31.28
-27.21
-23.65
-20.40
-17.29
-14.40
-11.99
-10.35
-9.60
-9.56
-9.81
-9.94
-9.71
-9.16
-8.50
-8.00
-7.80
-7.81
-7.76
-7.36
-6.43
-4.98
-3.22
-1.47
-0.01
1.05
1.75
2.18
2.44
2.51
2.24
1.44
-0.05
-2.22
-4.75
-7.08
-8.46
-8.17
-5.83
-1.45
4.45
11.05
17.52
23.24
27.93
31.64
34.51
36.65
38.01
38.45
37.84
36.15
33.56
30.39
27.02
23.72
20.56
17.45
14.18
10.61
6.80
3.00
-0.46
-3.34
-5.55
-7.24
-8.53
-9.49
-10.00
-9.88
-9.08
-7.80
-6.58
-6.12
-7.05
-9.59
-13.49
-18.07
-22.36
-25.44
-26.62
-25.64
-22.60
-17.91
-12.15
-5.93
0.23
5.90
10.75
14.59
17.28
18.76
19.01
18.14
16.35
13.94
11.31
8.82
6.76
5.25
4.27
3.67
3.24
2.74
2.05
1.10
-0.14
-1.59
-3.21
-4.93
-6.73
-8.58
-10.52
-12.60
-14.83
-17.17
-19.44
-21.44
-22.97
-24.01
-24.73
-25.44
-26.45
-27.85
-29.52
-31.04
-31.89
-31.61
-29.87
-26.64
-22.15
-16.82
-11.20
-5.90
-1.39
2.01
4.26
5.46
5.88
5.84
5.63
5.50
5.63
6.12
7.00
8.21
9.58
10.86
11.77
12.06
11.63
10.59
9.23
7.88
6.75
5.85
4.97
3.82
2.19
0.11
-2.20
-4.40
-6.19
-7.42
-8.09
-8.41
-8.67
-9.22
-10.36
-12.28
-14.90
-17.83
-20.47
-22.07
-22.09
-20.27
-16.86
-12.44
-7.77
-3.55
-0.18
2.19
3.69
4.45
4.56
4.03
2.90
1.38
-0.13
-1.18
-1.47
-1.00
-0.13
0.63
0.81
0.25
-0.90
-2.27
-3.49
-4.35
-4.95
-5.57
-6.56
-8.18
-10.46
-13.19
-16.03
-18.60
-20.65
-22.20
-23.47
-24.92
-27.04
-30.16
-34.37
-39.36
-44.49
-48.87
-51.62
-52.22
-50.61
-47.33
-43.31
-39.59
-36.90
-35.50
-35.02
-34.58
-33.13
-29.73
-23.90
-15.68
-5.63
5.39
16.42
26.66
35.62
43.16
49.33
54.23
57.98
60.60
62.17
62.80
62.68
61.96
60.73
58.92
56.38
53.04
48.95
44.29
39.32
34.18
28.85
23.20
17.20
11.06
5.33
0.75
-1.94
-2.25
-0.16
3.90
9.09
14.48
19.20
22.67
24.66
25.24
24.68
23.33
21.50
19.46
17.42
15.51
13.83
12.40
11.18
10.08
8.96
7.71
6.18
4.31
2.09
-0.37
-2.86
-5.12
-7.00
-8.50
-9.83
-11.36
-13.36
-15.93
-18.92
-22.00
-24.83
-27.06
-28.45
-28.77
-27.87
-25.71
-22.46
-18.55
-14.62
-11.36
-9.28
-8.53
-8.88
-9.93
-11.25
-12.67
-14.31
-16.42
-19.26
-22.82
-26.74
-30.41
-33.18
-34.58
-34.60
-33.58
-32.16
-30.93
-30.30
-30.39
-31.11
-32.31
-33.84
-35.48
-36.89
-37.54
-36.92
-34.71
-31.01
-26.32
-21.29
-16.40
-11.76
-7.15
-2.23
3.11
8.67
13.93
18.36
21.60
23.53
24.20
23.73
22.26
19.98
17.17
14.25
11.65
9.66
8.35
7.58
7.07
6.53
5.78
4.77
3.58
2.35
1.16
0.04
-1.11
-2.52
-4.53
-7.45
-11.39
-16.21
-21.40
-26.19
-29.75
-31.40
-30.79
-27.95
-23.28
-17.45
-11.25
-5.44
-0.59
2.95
5.08
5.91
5.65
4.64
3.22
1.71
0.37
-0.68
-1.44
-2.05
-2.66
-3.42
-4.35
-5.41
-6.47
-7.40
-8.18
-8.83
-9.53
-10.48
-11.91
-13.93
-16.51
-19.45
-22.35
-24.76
-26.13
-26.02
-24.13
-20.49
-15.41
-9.53
-3.59
1.74
6.00
9.01
10.76
11.42
11.19
10.32
9.09
7.80
6.74
6.05
5.82
5.95
6.30
6.68
6.86
6.65
5.87
4.51
2.64
0.50
-1.69
-3.85
-6.06
-8.57
-11.60
-15.17
-18.94
-22.25
-24.33
-24.49
-22.44
-18.29
-12.65
-6.32
-0.17
5.14
9.26
12.15
13.98
14.93
15.10
14.51
13.23
11.44
9.50
7.86
6.88
6.63
6.92
7.30
7.34
6.77
5.53
3.81
1.88
0.08
-1.32
-2.10
-2.16
-1.51
-0.26
1.45
3.51
5.97
9.24
14.09
21.57
32.71
48.15
67.78
90.64
115.18
139.61
162.53
183.11
201.19
217.03
230.94
243.01
252.93
260.08
263.70
263.08
257.68
247.20
231.61
211.07
185.98
157.08
125.46
92.57
60.06
29.42
1.88
-21.76
-41.11
-56.01
-66.51
-72.87
-75.69
-75.91
-74.69
-73.26
-72.75
-73.99
-77.37
-82.65
-88.94
-94.65
-97.94
-97.21
-91.71
-81.87
-69.22
-55.87
-43.83
-34.40
-27.97
-24.23
-22.55
-22.32
-23.04
-24.28
-25.52
-26.25
-26.07
-24.90
-22.98
-20.86
-19.17
-18.37
-18.58
-19.46
-20.34
-20.42
-19.15
-16.52
-13.17
-10.27
-9.03
-10.15
-13.42
-17.86
-22.22
-25.61
-27.87
-29.45
-30.98
-32.75
-34.63
-36.26
-37.50
-38.67
-40.40
-43.09
-46.44
-49.40
-50.53
-48.82
-44.21
-37.82
-31.39
-26.62
-24.43
-24.71
-26.70
-29.44
-32.32
-35.24
-38.50
-42.44
-47.24
-52.75
-58.54
-64.02
-68.53
-71.48
-72.48
-71.54
-69.15
-66.25
-64.09
-63.94
-66.80
-73.04
-82.21
-92.99
-103.51
-111.84
-116.65
-117.69
-115.93
-113.32
-111.96
-113.38
-117.98
-125.05
-133.17
-140.90
-147.11
-151.02
-152.08
-149.73
-143.62
-133.90
-121.58
-108.56
-97.11
-89.08
-85.14
-84.62
-85.82
-86.80
-85.98
-82.42
-75.54
-64.99
-50.50
-32.23
-11.09
11.20
32.42
50.65
64.82
74.95
81.86
86.68
90.35
93.51
96.62
100.11
104.35
109.46
115.01
120.01
123.15
123.27
119.83
113.06
103.83
93.27
82.46
72.18
62.90
54.80
47.95
42.28
37.64
33.78
30.44
27.38
24.58
22.19
20.46
19.66
19.86
20.92
22.55
24.47
26.42
28.29
30.07
31.76
33.41
35.04
36.69
38.39
40.15
41.89
43.39
44.36
44.53
43.86
42.55
41.04
39.77
38.90
38.19
36.98
34.47
30.04
23.59
15.58
6.96
-1.18
-7.93
-12.87
-16.20
-18.69
-21.41
-25.29
-30.79
-37.70
-45.19
-52.11
-57.34
-60.05
-59.75
-56.23
-49.45
-39.61
-27.29
-13.51
0.29
12.62
22.32
28.88
32.47
33.82
33.78
33.12
32.35
31.79
31.63
32.03
33.03
34.54
36.31
37.99
39.25
39.83
39.64
38.72
37.18
35.18
32.79
30.06
26.98
23.62
20.22
17.20
15.05
14.07
14.17
14.88
15.52
15.53
14.70
13.15
11.19
9.03
6.64
3.90
0.74
-2.67
-5.89
-8.38
-9.65
-9.42
-7.61
-4.41
-0.09
4.95
10.29
15.53
20.31
24.30
27.23
28.87
29.12
28.06
26.01
23.46
20.92
18.79
17.14
15.82
14.53
13.03
11.32
9.57
8.18
7.48
7.63
8.51
9.75
10.91
11.73
12.30
13.02
14.50
17.25
21.42
26.71
32.46
37.85
42.23
45.23
46.86
47.32
46.85
45.50
43.15
39.53
34.38
27.64
19.62
11.04
2.85
-3.95
-8.71
-11.21
-11.76
-11.01
-9.67
-8.29
-7.15
-6.29
-5.62
-5.13
-4.95
-5.35
-6.61
-8.88
-12.00
-15.59
-19.12
-22.14
-24.38
-25.73
-26.20
-25.75
-24.29
-21.82
-18.51
-14.77
-11.18
-8.33
-6.73
-6.64
-8.02
-10.61
-13.88
-17.15
-19.81
-21.43
-21.92
-21.52
-20.62
-19.53
-18.37
-17.08
-15.55
-13.83
-12.17
-11.01
-10.85
-12.04
-14.67
-18.49
-22.95
-27.26
-30.63
-32.43
-32.43
-30.83
-28.17
-25.10
-22.16
-19.62
-17.42
-15.33
-13.05
-10.40
-7.37
-4.11
-0.85
2.18
4.88
7.21
9.15
10.61
11.40
11.34
10.42
8.89
7.26
6.13
5.82
6.31
7.22
8.05
8.45
8.38
8.05
7.74
7.61
7.60
7.53
7.22
6.61
5.79
5.01
4.55
4.61
5.29
6.48
7.91
9.15
9.69
9.05
6.82
2.83
-2.82
-9.64
-16.82
-23.37
-28.35
-31.10
-31.42
-29.58
-26.15
-21.82
-17.24
-12.86
-8.97
-5.71
-3.15
-1.24
0.08
0.94
1.49
1.82
2.00
2.08
2.10
2.10
2.13
2.21
2.33
2.47
2.56
2.52
2.28
1.82
1.14
0.22
-0.94
-2.34
-3.92
-5.57
-7.09
-8.25
-8.89
-9.01
-8.80
-8.62
-8.81
-9.61
-10.97
-12.63
-14.24
-15.54
-16.49
-17.32
-18.35
-19.87
-21.92
-24.23
-26.27
-27.40
-27.13
-25.25
-21.88
-17.43
-12.39
-7.18
-2.11
2.60
6.79
10.28
12.97
14.81
15.88
16.36
16.49
16.51
16.59
16.84
17.29
17.90
18.63
19.42
20.23
21.02
21.74
22.23
22.29
21.71
20.43
18.62
16.69
15.04
13.92
13.30
12.85
12.18
10.96
9.11
6.74
4.10
1.41
-1.14
-3.45
-5.49
-7.31
-9.11
-11.21
-13.91
-17.33
-21.17
-24.74
-27.14
-27.57
-25.65
-21.61
-16.16
-10.23
-4.67
0.03
3.73
6.56
8.72
10.42
11.73
12.73
13.47
14.01
14.43
14.76
14.92
14.82
14.36
13.50
12.32
10.99
9.73
8.73
8.07
7.74
7.60
7.42
6.94
5.98
4.53
2.75
0.92
-0.66
-1.84
-2.68
-3.42
-4.35
-5.67
-7.35
-9.20
-10.93
-12.35
-13.46
-14.44
-15.64
-17.34
-19.65
-22.30
-24.73
-26.18
-25.96
-23.71
-19.56
-14.12
-8.24
-2.71
1.91
5.46
8.08
10.03
11.50
12.58
13.26
13.51
13.44
13.24
13.18
13.42
13.93
14.46
14.71
14.45
13.69
12.67
11.71
11.03
10.67
10.41
9.99
9.15
7.85
6.24
4.60
3.21
2.18
1.47
0.87
0.16
-0.83
-2.12
-3.67
-5.40
-7.30
-9.43
-11.81
-14.43
-17.11
-19.54
-21.31
-22.07
-21.52
-19.56
-16.27
-11.93
-7.00
-2.02
2.53
6.29
9.09
10.95
11.99
12.39
12.30
11.84
11.11
10.21
9.30
8.51
7.98
7.79
7.91
8.24
8.62
8.85
8.77
8.31
7.49
6.45
5.33
4.22
3.16
2.09
0.93
-0.30
-1.58
-2.79
-3.88
-4.86
-5.78
-6.67
-7.49
-8.21
-8.85
-9.58
-10.61
-11.98
-13.43
-14.42
-14.25
-12.49
-9.16
-4.84
-0.35
3.55
6.47
8.50
9.94
11.11
12.10
12.79
12.98
12.61
11.79
10.80
9.89
9.16
8.54
7.89
7.10
6.18
5.26
4.46
3.81
3.20
2.43
1.28
-0.33
-2.37
-4.63
-6.82
-8.68
-9.99
-10.68
-10.86
-10.77
-10.75
-11.14
-12.11
-13.62
-15.40
-16.94
-17.71
-17.27
-15.42
-12.34
-8.50
-4.50
-0.86
2.11
4.37
6.04
7.24
8.05
8.43
8.38
7.99
7.53
7.25
7.32
7.69
8.16
8.47
8.40
7.91
7.02
5.81
4.32
2.62
0.74
-1.18
-3.03
-4.70
-6.11
-7.31
-8.39
-9.44
-10.63
-12.08
-13.89
-16.01
-18.19
-19.96
-20.76
-20.14
-17.96
-14.46
-10.21
-5.85
-1.85
1.57
4.43
6.76
8.53
9.58
9.72
8.97
7.60
6.12
5.03
4.61
4.82
5.32
5.71
5.71
5.26
4.48
3.54
2.53
1.42
0.17
-1.24
-2.73
-4.10
-5.16
-5.89
-6.38
-6.91
-7.76
-9.19
-11.20
-13.53
-15.68
-17.02
-16.99
-15.25
-11.89
-7.32
-2.20
2.75
6.97
10.14
12.22
13.37
13.83
13.76
13.23
12.28
10.98
9.54
8.28
7.53
7.45
7.96
8.74
9.39
9.61
9.27
8.38
7.10
5.62
4.10
2.66
1.39
0.30
-0.68
-1.62
-2.63
-3.84
-5.39
-7.48
-10.20
-13.51
-17.06
-20.27
-22.40
-22.92
-21.63
-18.80
-15.05
-11.08
-7.48
-4.60
-2.57
-1.34
-0.74
-0.54
-0.45
-0.21
0.35
1.27
2.43
3.61
4.65
5.41
5.89
6.16
6.28
6.24
5.99
5.42
4.43
3.03
1.32
-0.49
-2.16
-3.50
-4.45
-5.07
-5.60
-6.31
-7.44
-9.06
-10.98
-12.78
-13.86
-13.65
-11.81
-8.40
-3.89
1.03
5.65
9.52
12.43
14.46
15.77
16.46
16.63
16.31
15.61
14.75
14.00
13.56
13.48
13.62
13.73
13.59
13.13
12.43
11.61
10.79
9.96
9.04
7.97
6.74
5.45
4.18
2.99
1.78
0.44
-1.13
-2.96
-5.00
-7.16
-9.34
-11.44
-13.18
-14.19
-14.00
-12.27
-8.95
-4.38
0.73
5.56
9.39
11.83
12.89
12.83
12.06
10.96
9.86
8.97
8.45
8.37
8.69
9.28
9.90
10.28
10.21
9.61
8.50
6.95
5.07
3.01
0.93
-1.02
-2.73
-4.23
-5.67
-7.25
-9.15
-11.37
-13.78
-16.15
-18.22
-19.76
-20.55
-20.38
-19.13
-16.82
-13.64
-9.91
-6.00
-2.22
1.27
4.36
6.93
8.82
9.91
10.14
9.61
8.53
7.16
5.77
4.53
3.61
3.14
3.18
3.66
4.35
4.92
5.05
4.57
3.49
2.00
0.34
-1.24
-2.56
-3.48
-3.92
-3.92
-3.65
-3.48
-3.79
-4.81
-6.46
-8.24
-9.40
-9.26
-7.48
-4.23
-0.12
4.10
7.79
10.62
12.56
13.77
14.41
14.60
14.33
13.64
12.58
11.34
10.12
9.11
8.45
8.15
8.14
8.27
8.35
8.21
7.74
6.91
5.75
4.39
2.95
1.53
0.18
-1.12
-2.46
-3.90
-5.53
-7.42
-9.60
-12.04
-14.56
-16.80
-18.30
-18.55
-17.25
-14.40
-10.35
-5.71
-1.09
3.01
6.31
8.75
10.35
11.17
11.22
10.57
9.38
7.90
6.47
5.40
4.84
4.75
4.94
5.17
5.28
5.23
5.09
4.93
4.70
4.27
3.51
2.36
0.97
-0.38
-1.43
-2.13
-2.60
-3.14
-4.02
-5.38
-7.23
-9.41
-11.74
-13.91
-15.52
-16.12
-15.32
-13.00
-9.43
-5.23
-1.12
2.29
4.73
6.25
7.10
7.51
7.64
7.59
7.39
7.20
7.15
7.31
7.65
8.05
8.38
8.56
8.57
8.42
8.12
7.61
6.82
5.71
4.33
2.86
1.53
0.54
-0.07
-0.41
-0.67
-1.11
-1.88
-3.05
-4.56
-6.33
-8.15
-9.77
-10.83
-11.01
-10.05
-7.91
-4.81
-1.15
2.52
5.71
8.05
9.43
9.93
9.80
9.37
8.93
8.62
8.47
8.39
8.28
8.10
7.84
7.53
7.13
6.63
5.96
5.06
3.92
2.58
1.09
-0.47
-1.96
-3.25
-4.26
-5.00
-5.56
-6.08
-6.67
-7.38
-8.19
-9.04
-9.89
-10.66
-11.18
-11.22
-10.50
-8.84
-6.29
-3.14
0.13
3.04
5.31
6.93
8.01
8.72
9.08
9.02
8.47
7.50
6.36
5.38
4.82
4.71
4.91
5.13
5.17
4.97
4.62
4.25
3.92
3.53
2.92
1.96
0.62
-0.94
-2.46
-3.70
-4.50
-4.87
-4.94
-5.00
-5.30
-6.15
-7.70
-9.94
-12.63
-15.28
-17.33
-18.22
-17.66
-15.64
-12.51
-8.78
-4.96
-1.46
1.48
3.74
5.32
6.24
6.62
6.57
6.32
6.06
5.95
6.12
6.57
7.20
7.82
8.18
8.05
7.39
6.36
5.29
4.49
4.10
3.95
3.72
3.11
2.02
0.64
-0.72
-1.78
-2.45
-2.89
-3.32
-3.99
-5.02
-6.44
-8.14
-10.00
-11.80
-13.24
-13.98
-13.72
-12.31
-9.81
-6.55
-2.97
0.46
3.42
5.78
7.53
8.73
9.35
9.31
8.52
7.10
5.39
3.94
3.19
3.35
4.23
5.33
6.12
6.29
5.83
5.06
4.35
3.95
3.81
3.68
3.23
2.24
0.77
-0.92
-2.45
-3.54
-4.13
-4.42
-4.72
-5.35
-6.50
-8.16
-10.19
-12.36
-14.39
-15.90
-16.55
-16.04
-14.26
-11.39
-7.86
-4.20
-0.91
1.77
3.78
5.24
6.31
7.07
7.52
7.67
7.57
7.35
7.16
7.10
7.20
7.35
7.41
7.24
6.78
6.05
5.21
4.39
3.72
3.13
2.47
1.49
0.06
-1.71
-3.50
-4.88
-5.58
-5.60
-5.29
-5.11
-5.46
-6.49
-8.10
-9.98
-11.71
-12.91
-13.19
-12.34
-10.30
-7.28
-3.68
-0.02
3.21
5.68
7.32
8.21
8.51
8.35
7.83
7.04
6.06
5.08
4.31
3.93
4.00
4.37
4.77
4.85
4.39
3.37
2.00
0.61
-0.53
-1.28
-1.73
-2.02
-2.38
-2.89
-3.60
-4.43
-5.32
-6.18
-7.01
-7.85
-8.84
-10.13
-11.76
-13.63
-15.37
-16.51
-16.64
-15.50
-13.20
-10.08
-6.65
-3.31
-0.32
2.25
4.44
6.26
7.62
8.34
8.31
7.58
6.39
5.14
4.22
3.82
3.91
4.21
4.42
4.37
4.06
3.64
3.27
2.98
2.70
2.27
1.59
0.66
-0.43
-1.54
-2.56
-3.46
-4.22
-4.86
-5.39
-5.90
-6.52
-7.41
-8.72
-10.42
-12.26
-13.82
-14.59
-14.15
-12.34
-9.34
-5.59
-1.65
2.00
5.06
7.46
9.29
10.63
11.49
11.80
11.48
10.55
9.25
7.95
7.07
6.86
7.29
8.07
8.76
9.01
8.68
7.90
6.89
5.87
4.87
3.80
2.53
1.07
-0.45
-1.79
-2.74
-3.22
-3.33
-3.29
-3.39
-3.89
-4.98
-6.72
-8.98
-11.42
-13.50
-14.65
-14.44
-12.72
-9.74
-6.12
-2.54
0.36
2.26
3.18
3.40
3.34
3.34
3.62
4.18
4.88
5.52
5.99
6.25
6.38
6.46
6.56
6.62
6.55
6.22
5.58
4.72
3.76
2.90
2.21
1.66
1.10
0.43
-0.38
-1.23
-1.97
-2.50
-2.89
-3.33
-4.06
-5.28
-6.93
-8.76
-10.34
-11.21
-10.99
-9.54
-7.01
-3.75
-0.30
2.79
5.07
6.28
6.49
5.95
5.10
4.30
3.75
3.43
3.12
2.56
1.60
0.34
-0.94
-1.83
-2.07
-1.63
-0.76
0.12
0.59
0.46
-0.21
-1.18
-2.13
-2.82
-3.25
-3.59
-4.09
-4.97
-6.31
-8.06
-10.05
-12.00
-13.65
-14.70
-14.89
-14.09
-12.33
-9.85
-7.01
-4.22
-1.77
0.23
1.78
2.94
3.71
4.05
3.95
3.48
2.90
2.49
2.46
2.84
3.45
3.99
4.20
3.96
3.34
2.52
1.65
0.81
-0.05
-1.01
-2.12
-3.35
-4.62
-5.83
-6.87
-7.68
-8.24
-8.62
-8.97
-9.49
-10.30
-11.36
-12.33
-12.71
-12.03
-10.03
-6.87
-3.03
0.91
4.44
7.26
9.30
10.60
11.29
11.50
11.40
11.16
10.87
10.51
9.99
9.24
8.31
7.39
6.73
6.47
6.53
6.64
6.47
5.79
4.61
3.09
1.48
-0.00
-1.25
-2.21
-2.88
-3.28
-3.50
-3.70
-4.10
-4.91
-6.17
-7.71
-9.12
-9.93
-9.74
-8.38
-6.02
-3.04
0.08
2.96
5.36
7.29
8.81
9.97
10.75
11.09
11.00
10.55
9.97
9.45
9.10
8.88
8.62
8.14
7.38
6.39
5.35
4.44
3.74
3.21
2.71
2.13
1.41
0.62
-0.11
-0.67
-1.08
-1.50
-2.20
-3.41
-5.20
-7.35
-9.46
-11.01
-11.59
-10.96
-9.17
-6.47
-3.26
0.06
3.21
6.02
8.50
10.74
12.82
14.72
16.30
17.38
17.86
17.85
17.65
17.68
18.30
19.74
21.99
24.88
28.09
31.19
33.70
35.12
35.09
33.54
30.79
27.42
24.01
20.84
17.77
14.35
10.08
4.71
-1.67
-8.67
-15.84
-22.79
-29.19
-34.65
-38.71
-40.90
-40.89
-38.86
-35.41
-31.45
-27.85
-25.13
-23.33
-22.14
-21.11
-19.88
-18.35
-16.55
-14.60
-12.58
-10.52
-8.44
-6.35
-4.30
-2.36
-0.63
0.77
1.76
2.31
2.51
2.51
2.50
2.62
2.86
3.15
3.41
3.54
3.53
3.36
2.97
2.24
1.03
-0.69
-2.74
-4.74
-6.17
-6.52
-5.53
-3.28
-0.19
3.06
5.75
7.37
7.79
7.28
6.37
5.61
5.35
5.62
6.26
6.99
7.62
8.10
8.46
8.75
8.99
9.15
9.26
9.40
9.67
10.13
10.69
11.06
10.93
10.04
8.33
5.94
3.14
0.23
-2.65
-5.46
-8.30
-11.16
-13.95
-16.42
-18.24
-19.10
-18.83
-17.39
-14.97
-11.95
-8.74
-5.74
-3.17
-1.11
0.52
1.82
2.83
3.49
3.69
3.41
2.81
2.17
1.80
1.86
2.31
2.87
3.25
3.21
2.73
1.97
1.19
0.69
0.59
0.84
1.18
1.26
0.82
-0.19
-1.56
-2.94
-4.05
-4.87
-5.61
-6.63
-8.08
-9.76
-11.12
-11.55
-10.59
-8.27
-5.13
-1.87
0.92
2.97
4.45
5.66
6.88
8.12
9.14
9.67
9.53
8.76
7.63
6.46
5.52
4.86
4.44
4.15
3.93
3.76
3.68
3.66
3.59
3.35
2.87
2.18
1.40
0.66
-0.02
-0.69
-1.44
-2.27
-3.11
-3.85
-4.39
-4.75
-4.93
-4.86
-4.34
-3.12
-1.03
1.78
4.93
7.90
10.30
12.02
13.17
13.92
14.43
14.71
14.76
14.65
14.60
14.87
15.66
17.01
18.73
20.63
22.48
24.15
25.49
26.24
26.09
24.72
22.01
18.09
13.36
8.27
3.21
-1.65
-6.39
-11.07
-15.72
-20.21
-24.39
-28.15
-31.53
-34.54
-37.11
-38.99
-39.79
-39.17
-37.04
-33.64
-29.49
-25.23
-21.37
-18.15
-15.56
-13.36
-11.38
-9.51
-7.83
-6.43
-5.37
-4.56
-3.88
-3.20
-2.47
-1.79
-1.21
-0.78
-0.45
-0.16
0.12
0.30
0.23
-0.18
-0.90
-1.72
-2.35
-2.60
-2.41
-1.94
-1.48
-1.35
-1.80
-2.93
-4.67
-6.75
-8.78
-10.35
-11.07
-10.71
-9.29
-7.08
-4.45
-1.81
0.59
2.67
4.55
6.35
8.11
9.73
10.97
11.64
11.68
11.21
10.49
9.84
9.44
9.35
9.45
9.59
9.59
9.39
8.99
8.46
7.83
7.07
6.09
4.81
3.24
1.56
0.07
-0.96
-1.37
-1.26
-0.92
-0.73
-1.01
-1.90
-3.36
-5.19
-7.05
-8.59
-9.49
-9.50
-8.56
-6.80
-4.50
-2.02
0.34
2.41
4.13
5.53
6.60
7.33
7.68
7.66
7.36
6.95
6.65
6.59
6.84
7.36
7.98
8.46
8.62
8.36
7.72
6.87
5.99
5.20
4.48
3.76
2.92
1.98
1.00
0.11
-0.59
-1.12
-1.56
-2.10
-2.87
-4.03
-5.61
-7.51
-9.52
-11.30
-12.46
-12.68
-11.83
-9.97
-7.45
-4.69
-2.17
-0.23
0.96
1.40
1.25
0.70
-0.08
-1.02
-2.05
-3.04
-3.78
-4.02
-3.59
-2.53
-1.08
0.40
1.56
2.25
2.51
2.54
2.55
2.64
2.83
2.99
3.02
2.90
2.70
2.54
2.53
2.65
2.74
2.56
1.89
0.66
-0.99
-2.73
-4.16
-4.95
-4.96
-4.22
-2.94
-1.41
0.10
1.39
2.40
3.17
3.83
4.46
5.05
5.53
5.68
5.36
4.56
3.47
2.39
1.65
1.43
1.66
2.12
2.53
2.71
2.62
2.36
2.04
1.65
1.13
0.36
-0.58
-1.47
-1.95
-1.73
-0.75
0.70
2.11
2.89
2.65
1.28
-1.05
-3.97
-7.00
-9.68
-11.57
-12.35
-11.92
-10.40
-8.22
-5.91
-3.96
-2.61
-1.84
-1.44
-1.14
-0.80
-0.38
0.09
0.52
0.91
1.28
1.61
1.93
2.27
2.69
3.28
4.06
4.94
5.70
6.08
5.91
5.20
4.11
2.89
1.75
0.72
-0.27
-1.37
-2.62
-3.95
-5.18
-6.14
-6.78
-7.24
-7.78
-8.67
-10.03
-11.74
-13.42
-14.55
-14.68
-13.56
-11.27
-8.16
-4.74
-1.49
1.31
3.57
5.35
6.74
7.77
8.37
8.49
8.13
7.45
6.70
6.15
5.97
6.18
6.66
7.15
7.47
7.50
7.25
6.79
6.28
5.77
5.22
4.50
3.45
2.02
0.36
-1.27
-2.59
-3.42
-3.80
-3.96
-4.26
-4.99
-6.23
-7.79
-9.25
-10.09
-9.94
-8.62
-6.30
-3.31
-0.13
2.85
5.34
7.20
8.35
8.74
8.33
7.17
5.49
3.65
2.11
1.23
1.10
1.59
2.35
3.01
3.28
3.02
2.29
1.22
-0.00
-1.17
-2.11
-2.72
-2.98
-3.02
-3.02
-3.20
-3.69
-4.47
-5.46
-6.53
-7.65
-8.84
-10.24
-11.89
-13.75
-15.54
-16.83
-17.15
-16.13
-13.77
-10.34
-6.45
-2.76
0.19
2.18
3.32
3.90
4.25
4.54
4.79
4.92
4.88
4.76
4.69
4.74
4.88
4.90
4.62
3.95
2.95
1.88
0.96
0.32
-0.10
-0.47
-0.92
-1.53
-2.26
-3.02
-3.77
-4.48
-5.20
-6.00
-7.00
-8.41
-10.47
-13.40
-17.30
-22.00
-27.01
-31.61
-34.96
-36.44
-35.80
-33.34
-29.69
-25.64
-21.67
-17.84
-13.78
-8.97
-3.14
3.54
10.44
16.81
22.06
26.03
28.88
30.93
32.37
33.22
33.35
32.67
31.23
29.21
26.91
24.60
22.41
20.39
18.44
16.50
14.49
12.43
10.38
8.43
6.63
4.97
3.38
1.75
-0.04
-2.07
-4.35
-6.77
-9.08
-10.85
-11.60
-10.94
-8.79
-5.40
-1.40
2.51
5.74
8.03
9.41
10.09
10.32
10.26
9.99
9.52
8.93
8.33
7.86
7.62
7.66
7.91
8.25
8.53
8.57
8.25
7.55
6.59
5.58
4.72
4.12
3.63
3.03
2.04
0.62
-1.11
-2.83
-4.38
-5.79
-7.28
-9.07
-11.09
-12.94
-13.97
-13.68
-11.91
-9.06
-5.80
-2.82
-0.54
0.98
1.89
2.38
2.48
2.17
1.38
0.21
-1.08
-2.10
-2.50
-2.15
-1.17
0.07
1.14
1.71
1.69
1.24
0.57
-0.15
-0.97
-2.00
-3.38
-5.04
-6.76
-8.25
-9.40
-10.41
-11.70
-13.70
-16.62
-20.30
-24.21
-27.69
-30.09
-30.97
-30.11
-27.55
-23.56
-18.62
-13.32
-8.20
-3.71
-0.05
2.73
4.70
5.87
6.25
5.86
4.84
3.45
2.05
0.93
0.23
-0.09
-0.17
-0.12
0.00
0.25
0.63
1.08
1.41
1.35
0.73
-0.48
-2.11
-3.87
-5.48
-6.81
-7.91
-9.04
-10.45
-12.34
-14.65
-17.05
-19.08
-20.26
-20.20
-18.78
-16.10
-12.45
-8.20
-3.78
0.45
4.15
7.09
9.12
10.22
10.53
10.27
9.75
9.23
8.89
8.79
8.89
9.12
9.41
9.72
9.95
9.93
9.46
8.34
6.53
4.21
1.74
-0.45
-2.05
-3.06
-3.79
-4.64
-6.00
-8.03
-10.62
-13.53
-16.46
-19.09
-21.12
-22.17
-21.88
-19.95
-16.37
-11.43
-5.74
0.02
5.26
9.55
12.66
14.48
15.02
14.46
13.20
11.78
10.77
10.50
11.05
12.14
13.37
14.38
14.99
15.21
15.11
14.81
14.34
13.72
12.94
12.04
11.06
10.06
9.07
8.08
7.03
5.77
4.16
2.10
-0.37
-3.06
-5.57
-7.42
-8.11
-7.27
-4.80
-0.82
4.36
10.31
16.58
22.75
28.39
33.07
36.47
38.38
38.87
38.26
37.16
36.24
36.03
36.66
37.75
38.50
37.88
35.08
29.71
22.03
12.80
2.96
-6.63
-15.45
-23.32
-30.30
-36.46
-41.84
-46.37
-50.03
-52.87
-55.11
-57.05
-58.96
-60.95
-62.79
-63.94
-63.64
-61.17
-56.14
-48.67
-39.51
-29.77
-20.66
-13.02
-7.18
-2.93
0.22
2.72
4.81
6.47
7.61
8.28
8.73
9.35
10.43
12.00
13.78
15.33
16.32
16.65
16.45
16.04
15.66
15.39
15.15
14.69
13.75
12.17
9.97
7.34
4.63
2.13
-0.03
-2.04
-4.39
-7.55
-11.77
-16.74
-21.64
-25.35
-26.82
-25.49
-21.45
-15.41
-8.41
-1.46
4.72
9.86
14.01
17.42
20.27
22.60
24.29
25.21
25.37
24.98
24.39
23.97
23.94
24.27
24.70
24.90
24.61
23.78
22.55
21.19
19.91
18.80
17.74
16.50
14.89
12.87
10.61
8.39
6.45
4.81
3.27
1.44
-1.06
-4.44
-8.68
-13.46
-18.26
-22.41
-25.24
-26.18
-24.94
-21.60
-16.59
-10.62
-4.48
1.17
5.93
9.66
12.40
14.21
15.23
15.56
15.37
14.94
14.55
14.48
14.84
15.52
16.28
16.80
16.78
16.17
15.08
13.75
12.42
11.17
9.89
8.33
6.29
3.72
0.89
-1.83
-4.04
-5.61
-6.68
-7.65
-8.98
-10.98
-13.79
-17.21
-20.83
-23.98
-25.91
-25.92
-23.61
-19.03
-12.74
-5.67
1.23
7.19
11.90
15.41
17.92
19.57
20.34
20.20
19.21
17.74
16.32
15.52
15.61
16.44
17.54
18.34
18.42
17.69
16.38
14.83
13.33
11.96
10.57
8.92
6.81
4.22
1.36
-1.45
-3.84
-5.60
-6.76
-7.61
-8.48
-9.72
-11.52
-13.99
-17.09
-20.67
-24.38
-27.61
-29.53
-29.36
-26.67
-21.59
-14.84
-7.47
-0.48
5.49
10.26
14.00
16.97
19.27
20.86
21.59
21.39
20.48
19.27
18.30
17.97
18.40
19.37
20.44
21.12
21.13
20.39
19.07
17.39
15.50
13.50
11.38
9.16
6.91
4.73
2.72
0.92
-0.70
-2.24
-3.81
-5.52
-7.44
-9.57
-11.92
-14.49
-17.34
-20.46
-23.73
-26.75
-28.92
-29.55
-28.09
-24.42
-18.92
-12.36
-5.66
0.44
5.55
9.55
12.52
14.54
15.65
15.88
15.41
14.53
13.64
13.13
13.16
13.69
14.47
15.17
15.56
15.50
15.02
14.23
13.26
12.24
11.24
10.21
9.04
7.62
5.90
3.95
1.92
0.07
-1.47
-2.64
-3.55
-4.41
-5.50
-7.07
-9.29
-12.20
-15.53
-18.71
-20.95
-21.44
-19.67
-15.65
-9.96
-3.54
2.61
7.78
11.64
14.18
15.60
16.11
15.84
14.94
13.56
12.01
10.63
9.73
9.51
9.93
10.81
11.84
12.68
13.11
13.02
12.46
11.54
10.38
9.07
7.59
5.93
4.04
1.99
-0.11
-2.07
-3.72
-5.04
-6.13
-7.21
-8.54
-10.32
-12.62
-15.40
-18.38
-21.13
-23.08
-23.61
-22.23
-18.81
-13.68
-7.64
-1.71
3.23
6.69
8.69
9.62
9.96
10.03
9.87
9.42
8.66
7.80
7.19
7.19
7.90
9.11
10.36
11.19
11.36
10.91
10.13
9.30
8.57
7.83
6.85
5.39
3.37
0.95
-1.58
-3.90
-5.80
-7.27
-8.45
-9.57
-10.89
-12.61
-14.85
-17.66
-20.93
-24.37
-27.44
-29.46
-29.78
-28.01
-24.20
-18.81
-12.70
-6.77
-1.68
2.26
5.14
7.21
8.74
9.82
10.40
10.37
9.79
8.92
8.11
7.77
8.03
8.80
9.71
10.38
10.54
10.16
9.40
8.48
7.59
6.70
5.70
4.39
2.71
0.73
-1.34
-3.24
-4.82
-6.06
-7.06
-8.02
-9.10
-10.43
-12.08
-14.05
-16.30
-18.72
-21.09
-23.07
-24.23
-24.13
-22.50
-19.34
-14.96
-9.88
-4.75
-0.08
3.75
6.63
8.55
9.57
9.76
9.26
8.29
7.19
6.38
6.17
6.68
7.75
9.03
10.11
10.64
10.49
9.75
8.64
7.41
6.22
5.13
4.12
3.13
2.11
1.02
-0.19
-1.53
-3.03
-4.63
-6.29
-7.96
-9.67
-11.48
-13.47
-15.65
-17.81
-19.62
-20.58
-20.23
-18.29
-14.76
-10.01
-4.65
0.61
5.21
8.77
11.19
12.51
12.83
12.27
11.02
9.39
7.82
6.76
6.52
7.07
8.09
9.10
9.68
9.61
8.99
8.08
7.13
6.25
5.34
4.23
2.75
0.94
-1.04
-2.91
-4.49
-5.74
-6.81
-7.92
-9.27
-10.97
-13.06
-15.49
-18.19
-20.94
-23.32
-24.71
-24.46
-22.16
-17.89
-12.25
-6.19
-0.63
3.85
7.10
9.35
10.86
11.82
12.20
11.95
11.10
9.84
8.50
7.40
6.76
6.61
6.90
7.43
8.03
8.49
8.68
8.47
7.87
6.94
5.77
4.48
3.14
1.76
0.37
-0.98
-2.23
-3.28
-4.17
-5.04
-6.12
-7.71
-9.97
-12.89
-16.22
-19.48
-22.04
-23.26
-22.69
-20.13
-15.83
-10.36
-4.54
0.84
5.24
8.45
10.57
11.78
12.24
12.02
11.25
10.13
9.07
8.46
8.62
9.53
10.88
12.18
12.94
12.90
12.04
10.57
8.83
7.15
5.75
4.68
3.85
3.09
2.20
1.09
-0.21
-1.63
-3.09
-4.55
-6.06
-7.71
-9.59
-11.72
-14.00
-16.10
-17.51
-17.68
-16.21
-13.03
-8.53
-3.42
1.46
5.43
8.11
9.53
9.94
9.68
9.05
8.24
7.36
6.53
5.85
5.46
5.42
5.77
6.46
7.31
8.12
8.63
8.66
8.08
6.95
5.38
3.55
1.61
-0.32
-2.18
-3.89
-5.37
-6.62
-7.70
-8.84
-10.33
-12.39
-15.06
-18.02
-20.74
-22.61
-23.11
-21.95
-19.11
-14.81
-9.44
-3.58
2.07
6.81
10.10
11.79
12.11
11.66
11.06
10.79
11.01
11.58
12.29
12.96
13.56
14.18
14.90
15.74
16.69
17.68
18.63
19.46
20.04
20.20
19.78
18.79
17.40
15.94
14.71
13.88
13.39
13.03
12.61
12.03
11.25
10.28
9.08
7.64
6.18
5.18
5.23
6.72
9.47
12.63
14.98
15.41
13.41
9.22
3.60
-2.54
-8.58
-14.25
-19.52
-24.41
-28.81
-32.45
-35.02
-36.30
-36.19
-34.83
-32.53
-29.74
-26.90
-24.29
-22.05
-20.16
-18.60
-17.35
-16.51
-16.12
-16.14
-16.42
-16.70
-16.75
-16.52
-16.14
-15.86
-16.00
-16.81
-18.43
-20.81
-23.68
-26.57
-28.85
-29.83
-28.99
-26.08
-21.29
-15.18
-8.66
-2.61
2.28
5.72
7.80
8.90
9.39
9.55
9.46
9.11
8.51
7.79
7.18
6.92
7.16
7.83
8.78
9.71
10.34
10.48
10.08
9.19
7.95
6.50
4.97
3.40
1.84
0.36
-0.96
-2.08
-3.07
-4.12
-5.50
-7.40
-9.76
-12.21
-14.18
-15.04
-14.35
-12.03
-8.36
-3.83
0.99
5.53
9.39
12.25
13.93
14.38
13.65
11.96
9.62
7.06
4.72
2.98
2.07
1.93
2.28
2.66
2.64
1.99
0.80
-0.68
-2.14
-3.45
-4.65
-5.90
-7.32
-8.76
-9.93
-10.52
-10.48
-10.12
-10.05
-10.84
-12.72
-15.33
-17.80
-19.09
-18.42
-15.56
-10.93
-5.35
0.28
5.31
9.39
12.50
14.70
16.12
16.77
16.74
16.10
15.05
13.83
12.73
11.94
11.55
11.49
11.61
11.69
11.57
11.18
10.52
9.62
8.47
7.04
5.31
3.30
1.05
-1.31
-3.66
-5.96
-8.22
-10.56
-13.12
-15.97
-19.02
-21.97
-24.32
-25.46
-24.90
-22.42
-18.19
-12.78
-6.92
-1.34
3.49
7.35
10.25
12.28
13.50
13.95
13.67
12.81
11.63
10.50
9.68
9.30
9.25
9.32
9.32
9.22
9.04
8.84
8.52
7.86
6.62
4.69
2.25
-0.34
-2.67
-4.50
-5.89
-7.19
-8.84
-11.20
-14.39
-18.21
-22.21
-25.77
-28.20
-28.93
-27.60
-24.24
-19.23
-13.24
-7.02
-1.22
3.76
7.73
10.68
12.65
13.72
14.00
13.66
12.92
12.00
11.10
10.34
9.73
9.29
8.96
8.72
8.55
8.43
8.26
7.93
7.28
6.18
4.64
2.77
0.82
-0.98
-2.47
-3.67
-4.76
-6.08
-7.93
-10.54
-13.91
-17.66
-21.15
-23.53
-24.07
-22.36
-18.54
-13.15
-7.00
-0.86
4.72
9.48
13.31
16.21
18.12
19.08
19.17
18.64
17.76
16.83
16.11
15.64
15.42
15.32
15.20
14.95
14.50
13.78
12.78
11.41
9.62
7.44
5.00
2.53
0.29
-1.57
-3.06
-4.38
-5.80
-7.59
-9.93
-12.88
-16.35
-20.03
-23.36
-25.56
-25.88
-23.88
-19.64
-13.85
-7.53
-1.62
3.27
7.07
9.95
12.15
13.77
14.77
15.09
14.87
14.40
14.08
14.18
14.71
15.48
16.17
16.49
16.27
15.52
14.39
13.07
11.70
10.31
8.81
7.06
4.99
2.70
0.39
-1.64
-3.25
-4.52
-5.74
-7.35
-9.69
-12.84
-16.54
-20.16
-22.89
-23.96
-22.84
-19.46
-14.24
-7.99
-1.70
3.78
7.94
10.66
12.15
12.70
12.61
12.03
11.10
9.97
8.88
8.09
7.81
8.11
8.87
9.86
10.81
11.47
11.61
11.06
9.71
7.60
4.93
2.10
-0.48
-2.48
-3.87
-4.87
-5.93
-7.52
-9.93
-13.11
-16.68
-20.01
-22.39
-23.23
-22.13
-19.02
-14.17
-8.17
-1.78
4.23
9.18
12.64
14.43
14.66
13.67
11.93
9.96
8.24
7.11
6.69
6.89
7.46
8.05
8.34
8.15
7.47
6.41
5.15
3.87
2.64
1.43
0.13
-1.37
-3.16
-5.22
-7.45
-9.81
-12.29
-14.90
-17.58
-20.07
-21.86
-22.38
-21.17
-18.09
-13.40
-7.70
-1.72
3.83
8.43
11.75
13.60
14.01
13.20
11.60
9.74
8.09
6.98
6.47
6.45
6.74
7.19
7.64
7.97
8.02
7.60
6.61
5.09
3.22
1.29
-0.47
-1.95
-3.27
-4.64
-6.33
-8.54
-11.33
-14.52
-17.70
-20.26
-21.47
-20.80
-18.07
-13.56
-7.95
-2.16
3.02
7.05
9.74
11.18
11.58
11.18
10.17
8.80
7.33
6.10
5.43
5.53
6.41
7.78
9.20
10.15
10.29
9.54
8.05
6.08
3.93
1.78
-0.30
-2.30
-4.31
-6.47
-8.92
-11.80
-15.06
-18.36
-21.11
-22.58
-22.16
-19.63
-15.25
-9.72
-3.88
1.49
5.91
9.22
11.49
12.88
13.46
13.26
12.29
10.67
8.71
6.81
5.41
4.73
4.75
5.17
5.56
5.52
4.84
3.59
1.98
0.31
-1.24
-2.64
-3.94
-5.28
-6.78
-8.54
-10.67
-13.22
-16.12
-19.11
-21.70
-23.20
-23.06
-21.00
-17.19
-12.22
-6.84
-1.67
2.94
6.95
10.38
13.15
15.07
15.87
15.43
13.98
12.02
10.17
8.94
8.51
8.69
9.05
9.18
8.76
7.71
6.09
4.04
1.75
-0.60
-2.84
-4.85
-6.59
-8.07
-9.40
-10.79
-12.52
-14.79
-17.65
-20.80
-23.59
-25.18
-24.81
-22.09
-17.20
-10.81
-3.96
2.37
7.46
11.01
13.05
13.82
13.61
12.71
11.39
9.96
8.76
8.09
8.10
8.74
9.72
10.65
11.14
11.00
10.22
8.97
7.53
6.08
4.77
3.57
2.41
1.18
-0.25
-1.97
-4.05
-6.55
-9.51
-12.82
-16.24
-19.33
-21.46
-22.08
-20.85
-17.77
-13.24
-7.86
-2.24
3.11
7.89
11.93
15.03
17.00
17.71
17.20
15.76
13.88
12.11
10.84
10.20
10.08
10.29
10.60
10.83
10.84
10.53
9.86
8.82
7.49
5.97
4.35
2.65
0.84
-1.05
-2.93
-4.63
-5.98
-6.93
-7.73
-8.79
-10.59
-13.32
-16.72
-20.04
-22.23
-22.43
-20.22
-15.93
-10.35
-4.51
0.80
5.16
8.49
10.91
12.48
13.23
13.14
12.32
11.05
9.80
9.05
9.19
10.33
12.25
14.43
16.22
17.12
16.90
15.74
14.04
12.21
10.47
8.77
6.99
5.06
3.12
1.44
0.26
-0.40
-0.82
-1.42
-2.69
-4.91
-8.11
-12.00
-16.03
-19.50
-21.69
-22.00
-20.15
-16.26
-10.82
-4.66
1.29
6.23
9.69
11.61
12.22
11.95
11.22
10.35
9.57
9.00
8.76
8.88
9.36
10.10
10.92
11.66
12.17
12.35
12.18
11.65
10.75
9.53
8.04
6.41
4.75
3.14
1.61
0.12
-1.40
-2.99
-4.70
-6.60
-8.79
-11.38
-14.33
-17.35
-19.85
-21.13
-20.54
-17.89
-13.45
-7.97
-2.36
2.60
6.48
9.22
10.92
11.73
11.71
10.86
9.31
7.29
5.22
3.55
2.66
2.73
3.69
5.29
7.15
8.94
10.31
11.09
11.12
10.43
9.11
7.33
5.33
3.27
1.30
-0.54
-2.21
-3.72
-5.13
-6.65
-8.54
-11.12
-14.60
-18.79
-23.08
-26.53
-28.13
-27.23
-23.79
-18.39
-12.00
-5.62
0.06
4.71
8.29
10.83
12.30
12.67
12.01
10.61
8.99
7.67
6.98
6.92
7.21
7.49
7.46
7.07
6.41
5.63
4.89
4.26
3.72
3.19
2.48
1.45
-0.01
-1.87
-3.89
-5.77
-7.27
-8.36
-9.25
-10.32
-11.87
-14.04
-16.70
-19.55
-22.12
-23.88
-24.33
-23.04
-19.85
-14.91
-8.72
-2.03
4.36
9.82
13.99
16.79
18.36
18.95
18.82
18.23
17.46
16.72
16.23
16.11
16.41
17.03
17.82
18.62
19.23
19.57
19.56
19.20
18.48
17.44
16.16
14.73
13.29
11.95
10.78
9.82
9.12
8.74
8.78
9.19
9.73
9.95
9.28
7.35
4.17
0.32
-3.23
-5.38
-5.28
-2.57
2.47
9.06
16.10
22.42
26.97
29.01
28.24
24.83
19.42
13.01
6.77
1.70
-1.61
-3.22
-3.72
-4.04
-5.04
-7.17
-10.33
-13.96
-17.36
-20.05
-21.93
-23.28
-24.46
-25.70
-26.92
-27.91
-28.45
-28.55
-28.47
-28.61
-29.33
-30.83
-33.05
-35.71
-38.37
-40.48
-41.42
-40.65
-37.86
-33.15
-27.04
-20.35
-13.94
-8.43
-4.04
-0.63
2.08
4.29
6.02
7.15
7.60
7.47
7.02
6.62
6.51
6.72
7.12
7.40
7.37
6.92
6.10
4.99
3.62
1.96
-0.03
-2.32
-4.78
-7.20
-9.39
-11.26
-12.88
-14.38
-15.96
-17.79
-19.98
-22.55
-25.34
-27.91
-29.64
-29.82
-27.92
-23.77
-17.73
-10.55
-3.16
3.55
9.06
13.18
16.04
17.88
19.01
19.64
19.91
19.91
19.74
19.58
19.62
20.05
20.92
22.11
23.30
24.14
24.37
23.91
22.86
21.41
19.77
18.10
16.50
15.05
13.77
12.62
11.43
9.96
7.92
5.10
1.41
-3.07
-8.10
-13.21
-17.76
-21.03
-22.36
-21.42
-18.37
-13.77
-8.47
-3.27
1.28
4.95
7.71
9.61
10.67
10.94
10.55
9.82
9.14
8.90
9.27
10.21
11.46
12.69
13.59
14.05
14.09
13.89
13.63
13.43
13.25
12.95
12.35
11.30
9.80
7.98
6.00
4.06
2.30
0.78
-0.52
-1.80
-3.36
-5.55
-8.56
-12.28
-16.14
-19.36
-21.14
-21.10
-19.33
-16.31
-12.71
-9.05
-5.68
-2.72
-0.29
1.49
2.53
2.81
2.48
1.79
1.00
0.31
-0.15
-0.29
-0.04
0.60
1.47
2.34
2.88
2.85
2.21
1.10
-0.20
-1.44
-2.44
-3.19
-3.83
-4.57
-5.60
-7.05
-8.93
-11.15
-13.52
-15.78
-17.56
-18.49
-18.25
-16.65
-13.75
-9.90
-5.62
-1.44
2.28
5.38
7.88
9.76
10.95
11.33
10.91
9.96
8.91
8.24
8.21
8.76
9.57
10.22
10.43
10.15
9.50
8.68
7.76
6.73
5.48
3.96
2.17
0.23
-1.72
-3.57
-5.25
-6.69
-7.88
-8.83
-9.62
-10.49
-11.74
-13.62
-16.14
-18.87
-21.07
-21.93
-20.90
-18.04
-13.92
-9.43
-5.31
-1.93
0.80
3.15
5.31
7.25
8.71
9.43
9.41
8.88
8.26
7.93
8.12
8.76
9.58
10.28
10.59
10.45
9.97
9.36
8.81
8.35
7.87
7.19
6.12
4.65
2.90
1.10
-0.49
-1.73
-2.61
-3.35
-4.19
-5.42
-7.22
-9.53
-12.08
-14.39
-15.92
-16.23
-15.12
-12.71
-9.34
-5.46
-1.47
2.33
5.75
8.70
11.08
12.78
13.70
13.81
13.27
12.37
11.54
11.15
11.38
12.19
13.27
14.26
14.81
14.84
14.48
14.04
13.83
13.99
14.48
15.07
15.51
15.57
15.20
14.52
13.79
13.31
13.29
13.81
14.65
15.39
15.51
14.54
12.30
9.04
5.42
2.33
0.65
0.91
3.14
6.80
10.90
14.30
15.93
15.19
11.95
6.65
0.07
-6.91
-13.52
-19.27
-23.92
-27.39
-29.68
-30.78
-30.81
-29.99
-28.70
-27.33
-26.13
-25.13
-24.22
-23.19
-21.97
-20.69
-19.62
-18.96
-18.80
-18.93
-19.09
-18.97
-18.50
-17.79
-17.14
-16.91
-17.32
-18.39
-19.81
-21.06
-21.50
-20.65
-18.35
-14.84
-10.64
-6.30
-2.26
1.30
4.36
6.94
8.96
10.25
10.67
10.23
9.15
7.84
6.70
6.06
6.01
6.48
7.26
8.13
8.87
9.31
9.36
9.02
8.34
7.39
6.23
4.86
3.30
1.60
-0.10
-1.63
-2.81
-3.60
-4.08
-4.46
-5.04
-6.03
-7.51
-9.27
-10.98
-12.15
-12.36
-11.42
-9.37
-6.50
-3.21
0.08
3.06
5.53
7.43
8.79
9.69
10.22
10.36
10.06
9.22
7.84
6.07
4.22
2.69
1.74
1.43
1.57
1.83
1.94
1.82
1.54
1.24
1.00
0.76
0.33
-0.50
-1.86
-3.69
-5.73
-7.66
-9.23
-10.35
-11.19
-12.03
-13.12
-14.53
-16.11
-17.54
-18.43
-18.42
-17.27
-14.92
-11.46
-7.19
-2.57
1.89
5.77
8.84
11.07
12.58
13.54
14.08
14.23
14.12
13.85
13.60
13.49
13.50
13.50
13.28
12.79
12.14
11.54
11.16
10.97
10.72
10.08
8.88
7.16
5.18
3.29
1.72
0.51
-0.44
-1.31
-2.25
-3.32
-4.57
-6.00
-7.65
-9.49
-11.37
-12.99
-13.97
-13.98
-12.81
-10.52
-7.37
-3.80
-0.32
2.64
4.81
6.13
6.72
6.77
6.44
5.78
4.77
3.41
1.88
0.57
-0.06
0.33
1.75
3.79
5.84
7.33
7.98
7.86
7.31
6.66
6.16
5.88
5.79
5.89
6.15
6.57
7.12
7.69
8.17
8.47
8.50
8.20
7.67
7.12
6.96
7.63
9.53
12.74
16.98
21.73
26.35
30.32
33.38
35.48
36.67
36.99
36.46
35.05
32.72
29.51
25.49
20.80
15.72
10.55
5.57
0.94
-3.34
-7.38
-11.31
-15.20
-19.04
-22.74
-26.25
-29.51
-32.48
-35.10
-37.27
-38.92
-40.06
-40.87
-41.57
-42.34
-43.17
-43.85
-44.01
-43.32
-41.57
-38.73
-34.94
-30.38
-25.27
-19.85
-14.39
-9.28
-4.98
-1.93
-0.40
-0.41
-1.63
-3.53
-5.53
-7.18
-8.21
-8.58
-8.40
-7.82
-6.96
-5.91
-4.78
-3.67
-2.77
-2.25
-2.24
-2.81
-3.89
-5.35
-7.00
-8.65
-10.19
-11.53
-12.66
-13.58
-14.40
-15.22
-16.25
-17.63
-19.35
-21.15
-22.61
-23.24
-22.67
-20.79
-17.74
-13.84
-9.43
-4.77
-0.09
4.43
8.53
11.98
14.56
16.19
16.96
17.06
16.79
16.48
16.41
16.75
17.52
18.61
19.75
20.62
20.90
20.37
18.94
16.77
14.09
11.24
8.53
6.14
4.02
2.01
-0.13
-2.59
-5.44
-8.60
-11.91
-15.14
-18.00
-20.13
-21.13
-20.62
-18.47
-14.90
-10.45
-5.87
-1.87
1.16
3.14
4.29
4.95
5.34
5.62
5.78
5.83
5.86
5.98
6.32
6.90
7.60
8.20
8.47
8.22
7.44
6.19
4.61
2.84
0.98
-0.88
-2.67
-4.27
-5.59
-6.67
-7.71
-9.06
-11.06
-13.79
-16.98
-19.97
-21.96
-22.30
-20.78
-17.67
-13.52
-9.04
-4.73
-0.86
2.52
5.44
7.88
9.75
10.90
11.26
10.91
10.04
8.99
8.04
7.39
7.04
6.92
6.85
6.73
6.52
6.21
5.77
5.12
4.17
2.84
1.10
-1.04
-3.44
-5.97
-8.46
-10.74
-12.73
-14.39
-15.83
-17.12
-18.29
-19.14
-19.31
-18.40
-16.10
-12.41
-7.62
-2.33
2.86
7.42
11.08
13.82
15.81
17.23
18.12
18.46
18.13
17.18
15.87
14.61
13.86
13.85
14.46
15.30
15.90
15.92
15.34
14.32
13.11
11.83
10.40
8.70
6.61
4.19
1.69
-0.56
-2.24
-3.28
-3.86
-4.30
-5.07
-6.50
-8.75
-11.75
-15.17
-18.51
-21.16
-22.52
-22.13
-19.80
-15.72
-10.38
-4.48
1.28
6.39
10.53
13.65
15.84
17.22
17.92
18.05
17.76
17.24
16.71
16.39
16.46
16.98
17.83
18.77
19.49
19.69
19.25
18.24
16.89
15.44
14.05
12.74
11.36
9.81
8.04
6.16
4.34
2.74
1.35
0.06
-1.35
-3.02
-5.03
-7.38
-10.01
-12.82
-15.65
-18.16
-19.89
-20.32
-19.08
-16.11
-11.74
-6.60
-1.40
3.29
7.15
10.13
12.32
13.80
14.62
14.77
14.39
13.70
13.09
12.94
13.48
14.65
16.13
17.41
18.03
17.75
16.59
14.84
12.85
10.96
9.34
8.00
6.83
5.61
4.20
2.49
0.53
-1.56
-3.57
-5.35
-6.83
-8.05
-9.17
-10.41
-12.02
-14.17
-16.90
-20.08
-23.28
-25.92
-27.32
-26.98
-24.70
-20.75
-15.66
-10.12
-4.69
0.27
4.62
8.28
11.17
13.17
14.25
14.47
14.14
13.64
13.36
13.54
14.20
15.15
16.13
16.90
17.32
17.34
16.98
16.29
15.30
14.09
12.74
11.34
9.99
8.76
7.71
6.83
6.02
5.13
4.04
2.63
0.88
-1.13
-3.31
-5.59
-8.02
-10.72
-13.82
-17.34
-21.13
-24.83
-27.95
-29.95
-30.41
-29.06
-25.95
-21.38
-15.87
-10.08
-4.58
0.21
4.06
6.94
8.92
10.17
10.86
11.23
11.49
11.83
12.34
13.03
13.82
14.57
15.19
15.60
15.81
15.84
15.70
15.36
14.76
13.88
12.78
11.55
10.36
9.32
8.40
7.50
6.45
5.17
3.72
2.28
1.01
-0.04
-0.95
-1.94
-3.22
-4.90
-7.03
-9.57
-12.43
-15.43
-18.21
-20.25
-20.98
-19.97
-17.18
-13.02
-8.20
-3.56
0.31
3.21
5.28
6.81
8.05
9.07
9.84
10.32
10.57
10.77
11.08
11.55
12.06
12.43
12.48
12.19
11.66
11.09
10.60
10.19
9.79
9.27
8.60
7.78
6.87
5.89
4.83
3.64
2.32
0.94
-0.37
-1.51
-2.44
-3.20
-3.93
-4.82
-6.07
-7.85
-10.31
-13.43
-16.98
-20.46
-23.11
-24.18
-23.13
-19.89
-14.96
-9.22
-3.65
0.99
4.31
6.30
7.21
7.37
7.02
6.40
5.73
5.24
5.11
5.39
5.99
6.70
7.33
7.76
8.00
8.11
8.08
7.85
7.33
6.50
5.43
4.28
3.15
1.99
0.62
-1.18
-3.44
-5.99
-8.45
-10.47
-11.83
-12.58
-12.98
-13.40
-14.17
-15.47
-17.33
-19.60
-21.93
-23.80
-24.58
-23.76
-21.14
-16.97
-11.90
-6.76
-2.23
1.35
4.05
6.16
7.95
9.49
10.63
11.14
10.94
10.17
9.22
8.50
8.31
8.69
9.44
10.21
10.74
10.83
10.49
9.77
8.81
7.75
6.69
5.73
4.87
4.05
3.13
1.99
0.63
-0.82
-2.11
-3.03
-3.54
-3.83
-4.24
-5.16
-6.78
-9.07
-11.84
-14.84
-17.83
-20.58
-22.75
-23.89
-23.54
-21.39
-17.53
-12.44
-6.89
-1.69
2.61
5.83
8.07
9.58
10.58
11.25
11.68
11.95
12.13
12.26
12.31
12.24
12.00
11.63
11.22
10.87
10.69
10.68
10.81
10.93
10.89
10.51
9.69
8.46
6.97
5.45
4.12
3.15
2.52
2.16
1.89
1.54
0.99
0.16
-0.99
-2.47
-4.27
-6.30
-8.30
-9.86
-10.44
-9.57
-7.02
-2.95
2.17
7.69
13.02
17.77
21.75
24.91
27.13
28.24
28.04
26.45
23.62
19.98
16.16
12.82
10.49
9.40
9.45
10.35
11.66
13.02
14.06
14.38
13.43
10.73
5.95
-0.77
-8.75
-17.04
-24.66
-31.05
-36.08
-39.97
-43.01
-45.34
-46.98
-47.93
-48.29
-48.21
-47.78
-46.85
-45.10
-42.20
-37.99
-32.62
-26.52
-20.21
-14.14
-8.62
-3.80
0.17
3.18
5.14
6.09
6.27
5.99
5.58
5.22
4.98
4.80
4.68
4.68
4.91
5.45
6.26
7.20
8.02
8.51
8.51
7.91
6.75
5.09
3.09
0.98
-0.99
-2.63
-3.83
-4.68
-5.39
-6.21
-7.43
-9.19
-11.52
-14.25
-17.07
-19.49
-20.97
-21.11
-19.71
-16.91
-13.08
-8.80
-4.64
-0.98
1.99
4.31
6.11
7.54
8.64
9.44
9.87
9.98
9.85
9.63
9.48
9.48
9.62
9.74
9.67
9.27
8.57
7.68
6.78
5.93
5.06
3.98
2.53
0.72
-1.20
-2.91
-4.14
-4.86
-5.26
-5.68
-6.40
-7.59
-9.30
-11.56
-14.31
-17.37
-20.35
-22.58
-23.36
-22.16
-18.91
-14.03
-8.34
-2.70
2.23
6.19
9.17
11.34
12.80
13.56
13.63
13.08
12.22
11.43
11.15
11.54
12.54
13.81
14.90
15.47
15.35
14.61
13.50
12.30
11.24
10.41
9.77
9.12
8.26
7.01
5.39
3.55
1.72
0.11
-1.22
-2.42
-3.71
-5.35
-7.51
-10.21
-13.36
-16.74
-20.03
-22.76
-24.44
-24.61
-23.02
-19.76
-15.23
-10.03
-4.78
0.05
4.12
7.27
9.39
10.39
10.28
9.24
7.65
6.03
4.88
4.51
4.94
5.97
7.22
8.30
8.99
9.27
9.25
9.08
8.83
8.44
7.74
6.59
5.01
3.26
1.66
0.48
-0.24
-0.75
-1.47
-2.77
-4.87
-7.77
-11.23
-14.98
-18.60
-21.57
-23.34
-23.40
-21.46
-17.62
-12.35
-6.37
-0.51
4.59
8.58
11.30
12.88
13.48
13.32
12.61
11.59
10.48
9.56
9.05
9.08
9.62
10.47
11.30
11.78
11.72
11.16
10.25
9.16
7.94
6.53
4.76
2.57
0.04
-2.58
-4.97
-6.96
-8.54
-9.98
-11.66
-13.99
-17.21
-21.26
-25.74
-29.88
-32.77
-33.60
-31.88
-27.71
-21.73
-14.88
-8.16
-2.25
2.55
6.25
9.02
10.98
12.21
12.77
12.79
12.55
12.36
12.48
12.97
13.71
14.42
14.86
14.90
14.53
13.86
13.00
12.01
10.88
9.55
7.91
5.88
3.46
0.78
-1.93
-4.39
-6.40
-8.00
-9.44
-11.16
-13.62
-17.08
-21.43
-26.11
-30.22
-32.74
-32.87
-30.32
-25.38
-18.84
-11.74
-4.95
0.93
5.77
9.65
12.71
15.01
16.47
17.10
17.03
16.65
16.36
16.46
16.95
17.59
18.02
17.94
17.35
16.42
15.46
14.59
13.74
12.70
11.17
9.04
6.40
3.52
0.72
-1.73
-3.77
-5.47
-7.04
-8.77
-10.89
-13.59
-16.91
-20.72
-24.61
-28.02
-30.28
-30.79
-29.19
-25.51
-20.14
-13.72
-7.01
-0.67
4.78
9.03
11.93
13.45
13.73
13.03
11.73
10.29
9.15
8.67
9.00
10.08
11.63
13.28
14.69
15.62
15.96
15.72
14.97
13.71
11.96
9.75
7.21
4.56
2.06
-0.05
-1.70
-3.00
-4.23
-5.74
-7.90
-10.93
-14.81
-19.21
-23.45
-26.60
-27.75
-26.30
-22.18
-15.95
-8.56
-1.11
5.56
10.95
14.91
17.52
18.86
19.03
18.16
16.60
14.85
13.47
12.91
13.29
14.41
15.77
16.85
17.27
16.87
15.74
14.10
12.20
10.20
8.15
6.05
3.83
1.47
-0.98
-3.40
-5.68
-7.71
-9.55
-11.33
-13.32
-15.80
-19.01
-23.04
-27.73
-32.61
-36.96
-39.85
-40.45
-38.22
-33.12
-25.67
-16.83
-7.77
0.50
7.28
12.37
15.91
18.21
19.57
20.18
20.17
19.69
19.06
18.68
18.94
20.00
21.69
23.53
24.88
25.24
24.44
22.65
20.34
18.05
16.14
14.69
13.44
11.94
9.81
6.90
3.42
-0.15
-3.30
-5.70
-7.37
-8.67
-10.10
-12.11
-14.94
-18.58
-22.86
-27.47
-31.97
-35.75
-38.01
-37.92
-34.87
-28.79
-20.30
-10.61
-1.14
6.93
12.91
16.79
18.99
20.10
20.64
20.90
21.00
20.98
20.91
20.93
21.19
21.79
22.65
23.59
24.34
24.67
24.46
23.66
22.32
20.51
18.35
15.98
13.55
11.19
8.93
6.74
4.52
2.19
-0.21
-2.60
-4.82
-6.81
-8.62
-10.43
-12.49
-15.04
-18.31
-22.42
-27.31
-32.56
-37.38
-40.65
-41.28
-38.55
-32.49
-23.95
-14.31
-5.06
2.73
8.64
12.82
15.77
17.96
19.63
20.77
21.28
21.15
20.59
19.98
19.68
19.95
20.71
21.67
22.40
22.55
21.99
20.81
19.29
17.66
16.10
14.58
13.05
11.45
9.73
7.92
6.03
4.03
1.90
-0.27
-2.37
-4.25
-5.86
-7.31
-8.84
-10.78
-13.41
-16.91
-21.23
-26.05
-30.76
-34.46
-36.16
-35.03
-30.78
-23.77
-15.04
-5.92
2.38
9.11
14.04
17.34
19.32
20.19
20.06
19.09
17.59
16.03
14.92
14.66
15.29
16.55
17.95
19.02
19.49
19.35
18.75
17.89
16.86
15.62
14.01
11.93
9.39
6.53
3.59
0.79
-1.73
-3.96
-5.98
-7.88
-9.77
-11.76
-14.00
-16.68
-20.00
-23.95
-28.24
-32.16
-34.66
-34.75
-31.79
-25.85
-17.71
-8.62
0.10
7.48
13.03
16.74
18.81
19.54
19.20
18.08
16.49
14.80
13.33
12.34
11.96
12.17
12.85
13.73
14.49
14.76
14.28
13.05
11.34
9.60
8.18
7.21
6.46
5.48
3.85
1.38
-1.83
-5.39
-8.83
-11.80
-14.10
-15.84
-17.32
-18.99
-21.31
-24.59
-28.77
-33.31
-37.25
-39.46
-38.96
-35.32
-28.78
-20.25
-10.93
-1.99
5.76
11.94
16.54
19.67
21.43
21.91
21.17
19.50
17.32
15.30
14.00
13.80
14.61
15.97
17.20
17.74
17.28
15.97
14.21
12.42
10.90
9.62
8.35
6.70
4.46
1.59
-1.63
-4.78
-7.50
-9.57
-11.11
-12.43
-13.98
-16.16
-19.11
-22.75
-26.77
-30.66
-33.75
-35.36
-34.88
-31.93
-26.55
-19.24
-10.87
-2.40
5.30
11.70
16.57
19.88
21.69
22.14
21.41
19.89
18.13
16.78
16.37
17.03
18.44
19.94
20.76
20.42
18.89
16.59
14.10
11.87
10.04
8.43
6.70
4.57
1.98
-0.91
-3.83
-6.49
-8.69
-10.41
-11.72
-12.85
-14.05
-15.56
-17.57
-20.17
-23.41
-27.11
-30.86
-33.93
-35.41
-34.44
-30.57
-24.02
-15.66
-6.76
1.48
8.26
13.30
16.70
18.69
19.43
19.07
17.78
15.92
13.99
12.49
11.74
11.82
12.51
13.45
14.28
14.75
14.77
14.40
13.73
12.85
11.73
10.29
8.40
6.04
3.31
0.47
-2.19
-4.45
-6.22
-7.64
-8.98
-10.56
-12.62
-15.33
-18.63
-22.25
-25.59
-27.86
-28.30
-26.36
-22.05
-15.91
-8.84
-1.77
4.58
9.81
13.77
16.39
17.61
17.43
16.04
13.85
11.53
9.75
8.97
9.29
10.47
12.01
13.41
14.26
14.42
13.91
12.90
11.59
10.11
8.50
6.67
4.49
1.85
-1.20
-4.47
-7.64
-10.39
-12.55
-14.26
-15.92
-18.07
-21.15
-25.26
-30.00
-34.54
-37.82
-38.78
-36.78
-31.76
-24.32
-15.59
-6.81
0.99
7.27
11.95
15.29
17.54
18.81
19.11
18.47
17.14
15.63
14.55
14.33
15.05
16.32
17.56
18.21
17.97
16.95
15.46
13.86
12.30
10.72
8.86
6.53
3.70
0.55
-2.59
-5.43
-7.81
-9.73
-11.27
-12.61
-13.92
-15.45
-17.56
-20.60
-24.73
-29.70
-34.67
-38.45
-39.74
-37.70
-32.23
-24.12
-14.72
-5.45
2.61
8.98
13.69
17.03
19.26
20.48
20.71
20.04
18.70
17.12
15.80
15.18
15.40
16.33
17.56
18.59
19.02
18.70
17.72
16.32
14.73
13.06
11.27
9.23
6.83
4.09
1.13
-1.86
-4.70
-7.24
-9.44
-11.35
-13.07
-14.77
-16.67
-19.02
-22.03
-25.70
-29.73
-33.37
-35.58
-35.35
-32.08
-25.96
-17.87
-9.12
-0.96
5.86
11.13
15.02
17.74
19.31
19.65
18.74
16.87
14.65
12.86
12.08
12.51
13.92
15.75
17.40
18.43
18.65
18.11
17.03
15.65
14.15
12.59
10.88
8.85
6.37
3.47
0.40
-2.44
-4.73
-6.38
-7.62
-8.93
-10.89
-13.84
-17.82
-22.47
-27.16
-31.11
-33.53
-33.78
-31.52
-26.76
-19.94
-11.85
-3.45
4.35
10.88
15.80
19.05
20.78
21.19
20.51
18.98
16.87
14.62
12.72
11.63
11.60
12.55
14.08
15.56
16.43
16.41
15.58
14.30
12.94
11.71
10.52
9.03
6.88
3.94
0.38
-3.37
-6.78
-9.45
-11.28
-12.49
-13.52
-14.90
-17.06
-20.29
-24.63
-29.79
-35.20
-39.95
-43.03
-43.54
-40.99
-35.45
-27.63
-18.63
-9.65
-1.61
4.95
9.92
13.40
15.57
16.55
16.49
15.64
14.45
13.45
13.16
13.84
15.41
17.41
19.17
20.12
19.98
18.90
17.28
15.64
14.32
13.36
12.50
11.32
9.45
6.76
3.42
-0.14
-3.41
-6.03
-7.95
-9.40
-10.80
-12.58
-15.05
-18.29
-22.21
-26.53
-30.76
-34.21
-36.05
-35.54
-32.24
-26.27
-18.32
-9.46
-0.77
6.88
13.03
17.60
20.67
22.39
22.83
22.19
20.74
18.97
17.43
16.61
16.73
17.65
18.93
20.04
20.55
20.37
19.65
18.68
17.69
16.69
15.51
13.90
11.69
8.88
5.67
2.40
-0.61
-3.15
-5.17
-6.79
-8.29
-10.00
-12.21
-15.14
-18.89
-23.32
-28.04
-32.34
-35.26
-35.88
-33.53
-28.18
-20.49
-11.61
-2.88
4.64
10.36
14.23
16.45
17.36
17.27
16.46
15.26
14.03
13.17
12.90
13.26
14.07
15.03
15.84
16.32
16.40
16.09
15.44
14.41
12.91
10.79
8.01
4.66
1.03
-2.49
-5.56
-8.00
-9.94
-11.70
-13.75
-16.44
-19.97
-24.20
-28.71
-32.79
-35.61
-36.39
-34.54
-29.98
-23.06
-14.62
-5.73
2.61
9.66
15.06
18.77
20.93
21.73
21.35
20.02
18.12
16.13
14.61
13.97
14.33
15.46
16.80
17.76
17.95
17.30
16.07
14.58
13.10
11.63
9.98
7.91
5.31
2.33
-0.73
-3.52
-5.89
-7.89
-9.83
-12.04
-14.82
-18.33
-22.60
-27.48
-32.63
-37.43
-41.06
-42.58
-41.29
-36.93
-29.90
-21.16
-11.95
-3.42
3.65
8.96
12.57
14.71
15.63
15.59
14.84
13.73
12.68
12.09
12.24
13.12
14.53
16.05
17.26
17.91
17.96
17.53
16.83
15.95
14.79
13.15
10.80
7.68
4.01
0.22
-3.19
-5.81
-7.56
-8.65
-9.54
-10.78
-12.80
-15.85
-19.85
-24.45
-28.99
-32.63
-34.43
-33.64
-29.90
-23.42
-14.99
-5.76
3.07
10.57
16.27
20.13
22.39
23.34
23.29
22.45
21.09
19.51
18.09
17.15
16.89
17.29
18.12
18.99
19.54
19.51
18.86
17.71
16.25
14.62
12.90
11.03
9.01
6.85
4.66
2.54
0.49
-1.51
-3.61
-5.88
-8.36
-11.01
-13.85
-17.02
-20.68
-24.90
-29.44
-33.60
-36.40
-36.79
-34.18
-28.63
-20.91
-12.20
-3.72
3.67
9.60
14.05
17.16
19.03
19.69
19.19
17.80
15.98
14.37
13.57
13.86
15.15
16.94
18.56
19.40
19.19
18.02
16.29
14.44
12.72
11.06
9.24
7.00
4.26
1.23
-1.70
-4.14
-5.87
-7.03
-7.98
-9.19
-11.05
-13.75
-17.32
-21.56
-26.06
-30.16
-32.99
-33.60
-31.33
-26.08
-18.47
-9.72
-1.22
5.91
11.19
14.64
16.61
17.44
17.29
16.21
14.37
12.22
10.38
9.53
9.95
11.45
13.38
14.89
15.33
14.50
12.65
10.31
8.00
5.95
4.06
2.01
-0.49
-3.53
-6.90
-10.22
-13.08
-15.25
-16.77
-18.00
-19.42
-21.49
-24.49
-28.41
-32.85
-37.13
-40.34
-41.52
-39.96
-35.40
-28.18
-19.17
-9.52
-0.30
7.70
14.15
18.99
22.32
24.25
24.85
24.30
22.94
21.28
19.87
19.09
19.04
19.52
20.17
20.65
20.78
20.50
19.90
19.05
17.98
16.65
15.03
13.09
10.86
8.44
5.95
3.52
1.30
-0.59
-2.12
-3.37
-4.63
-6.36
-9.02
-12.89
-17.88
-23.39
-28.36
-31.57
-31.93
-28.91
-22.61
-13.89
-4.10
5.27
12.96
18.18
20.76
20.93
19.21
16.24
12.67
9.11
6.14
4.17
3.33
3.46
4.14
4.94
5.63
6.30
7.25
8.69
10.49
12.19
13.17
13.03
11.87
10.28
9.16
9.33
11.21
14.60
18.71
22.28
23.95
22.49
17.22
8.31
-3.04
-14.64
-23.63
-27.29
-23.92
-13.47
2.41
20.91
39.03
54.48
66.03
73.38
76.67
76.03
71.56
63.55
52.86
40.92
29.42
19.66
12.11
6.33
1.29
-4.01
-10.18
-17.25
-24.87
-32.54
-39.87
-46.62
-52.62
-57.84
-62.35
-66.47
-70.58
-74.93
-79.25
-82.76
-84.52
-83.95
-81.43
-78.17
-75.87
-75.70
-77.78
-80.97
-83.50
-83.69
-80.61
-74.32
-65.52
-55.21
-44.28
-33.41
-23.09
-13.68
-5.45
1.56
7.52
12.84
17.93
23.08
28.18
32.90
36.76
39.44
40.94
41.42
41.02
39.59
36.70
31.94
25.26
17.33
9.47
3.42
0.98
3.60
11.91
25.39
42.17
59.27
73.32
81.50
82.32
76.07
64.59
50.50
36.51
24.70
16.28
11.57
10.12
11.00
13.16
15.88
19.07
23.19
28.87
36.32
45.09
54.21
62.70
70.10
76.63
82.90
89.45
96.40
103.30
109.47
114.30
117.60
119.57
120.64
121.10
120.81
119.22
115.56
109.21
100.09
88.70
75.94
62.72
49.73
37.52
26.61
17.57
10.59
5.07
-0.63
-8.71
-20.74
-36.58
-53.90
-68.98
-78.33
-80.20
-75.30
-66.12
-55.62
-45.87
-37.68
-30.82
-24.94
-19.90
-15.91
-13.17
-11.67
-11.41
-12.69
-16.35
-23.40
-34.46
-49.05
-65.53
-81.43
-94.37
-102.80
-106.27
-105.25
-100.59
-93.15
-83.60
-72.52
-60.62
-48.75
-37.81
-28.48
-21.20
-16.12
-13.26
-12.55
-13.89
-17.02
-21.36
-26.04
-29.88
-31.73
-30.76
-26.77
-20.31
-12.53
-4.79
1.69
6.20
8.65
9.35
8.88
7.76
6.33
4.74
3.01
1.09
-1.02
-3.24
-5.40
-7.26
-8.52
-8.98
-8.58
-7.60
-6.51
-5.98
-6.59
-8.67
-12.20
-16.77
-21.81
-26.75
-31.30
-35.38
-39.18
-42.99
-47.11
-51.76
-56.86
-61.97
-66.09
-67.86
-65.92
-59.48
-48.74
-34.91
-19.87
-5.42
7.17
17.38
25.11
30.34
32.81
32.14
28.14
21.18
12.21
2.48
-6.81
-14.92
-21.68
-27.32
-32.28
-36.85
-41.05
-44.54
-46.63
-46.51
-43.47
-37.27
-28.33
-17.72
-7.01
2.25
8.85
12.28
12.77
11.05
8.04
4.53
0.90
-2.89
-7.08
-11.92
-17.37
-22.92
-27.75
-31.02
-32.19
-31.16
-28.14
-23.41
-17.30
-10.29
-3.27
2.43
5.58
5.79
4.11
3.02
5.58
13.98
28.55
47.50
67.68
85.88
99.88
108.85
113.03
113.18
110.12
104.69
97.87
90.83
84.87
81.17
80.44
82.72
87.11
91.59
93.17
88.51
74.85
51.30
19.50
-16.67
-52.28
-83.04
-106.54
-122.59
-132.37
-137.35
-138.34
-135.38
-128.23
-117.15
-103.16
-88.01
-73.47
-60.87
-50.66
-42.50
-35.66
-29.36
-23.21
-17.22
-11.74
-7.07
-3.25
-0.02
3.05
6.27
9.65
12.92
15.84
18.35
20.61
22.82
24.95
26.68
27.55
27.31
26.15
24.62
23.30
22.31
21.18
18.93
14.65
8.02
-0.39
-9.34
-17.51
-24.06
-28.95
-32.61
-35.36
-37.01
-36.77
-33.74
-27.44
-18.18
-6.76
5.89
19.04
32.26
45.10
56.92
67.03
75.26
82.30
89.56
98.30
108.59
118.63
125.18
124.80
115.35
97.00
72.06
44.04
16.38
-8.57
-29.82
-47.52
-62.64
-76.52
-90.44
-104.99
-119.23
-130.40
-134.29
-126.79
-105.72
-72.26
-31.02
11.41
48.64
76.53
93.76
101.28
100.88
94.12
82.01
65.66
46.99
29.00
15.13
8.10
8.73
15.51
25.12
33.65
38.05
37.10
31.40
22.58
12.17
0.72
-12.29
-27.83
-46.28
-66.84
-87.39
-105.27
-118.22
-125.23
-126.70
-124.11
-119.20
-113.34
-107.18
-100.86
-94.29
-87.51
-80.78
-74.37
-68.36
-62.52
-56.39
-49.51
-41.70
-33.29
-24.96
-17.52
-11.58
-7.28
-4.30
-2.15
-0.42
1.03
2.08
2.61
2.74
3.00
4.16
6.96
11.81
18.49
26.35
34.37
41.58
47.18
50.68
51.86
50.77
47.68
43.05
37.50
31.74
26.45
22.08
18.76
16.25
14.09
11.73
8.71
4.76
-0.26
-6.41
-13.69
-21.97
-30.84
-39.41
-46.41
-50.42
-50.40
-46.20
-38.85
-30.42
-23.56
-20.83
-23.96
-33.52
-48.96
-68.83
-91.38
-114.92
-138.17
-160.32
-181.02
-200.22
-217.92
-233.96
-247.68
-257.84
-262.65
-260.08
-248.43
-226.79
-195.55
-156.68
-113.47
-69.62
-28.12
9.83
44.76
78.02
110.36
140.88
167.33
187.37
200.14
206.88
210.19
212.33
213.65
212.44
206.20
193.66
176.01
156.70
139.76
128.04
122.09
120.45
120.82
121.22
120.71
119.18
116.78
113.34
108.35
101.35
92.41
82.52
73.34
66.56
63.13
62.87
64.37
65.57
64.47
59.69
50.75
38.11
22.92
6.68
-8.88
-22.22
-32.04
-37.49
-38.27
-34.57
-27.05
-16.67
-4.50
8.48
21.54
34.24
46.30
57.45
67.14
74.56
78.76
79.03
75.13
67.44
56.90
44.65
31.79
19.12
7.11
-4.08
-14.44
-23.94
-32.32
-39.00
-43.19
-44.14
-41.45
-35.39
-26.89
-17.23
-7.65
1.08
8.71
15.43
21.59
27.47
33.23
39.02
45.12
51.90
59.67
68.40
77.61
86.26
93.10
96.91
96.95
93.10
85.89
76.24
65.23
53.74
42.34
31.27
20.52
10.02
-0.31
-10.40
-20.16
-29.48
-38.30
-46.71
-54.87
-63.00
-71.30
-79.83
-88.42
-96.64
-103.81
-109.24
-112.34
-112.82
-110.82
-106.82
-101.46
-95.36
-88.95
-82.50
-76.19
-70.30
-65.17
-61.17
-58.42
-56.64
-55.18
-53.23
-50.09
-45.54
-39.90
-33.85
-28.27
-23.83
-20.87
-19.46
-19.44
-20.66
-22.98
-26.41
-30.94
-36.54
-42.97
-49.81
-56.55
-62.65
-67.79
-71.94
-75.28
-78.02
-80.06
-80.90
-79.65
-75.33
-67.34
-55.72
-41.26
-25.27
-9.12
6.14
20.01
32.40
43.43
53.10
61.23
67.41
71.26
72.58
71.46
68.30
63.65
58.07
52.00
45.66
39.13
32.37
25.37
18.18
10.94
3.74
-3.32
-10.16
-16.57
-22.06
-25.91
-27.39
-26.13
-22.43
-17.29
-12.08
-7.91
-5.17
-3.25
-0.90
3.22
9.95
19.22
30.13
41.25
51.15
58.70
63.25
64.54
62.52
57.25
48.93
38.04
25.50
12.67
1.14
-7.71
-13.14
-15.24
-14.86
-13.16
-11.21
-9.70
-8.85
-8.64
-8.97
-9.82
-11.19
-13.08
-15.42
-18.09
-21.01
-24.17
-27.70
-31.72
-36.27
-41.14
-45.82
-49.48
-51.13
-49.89
-45.29
-37.49
-27.29
-15.95
-4.78
5.14
13.15
19.05
22.89
24.86
25.15
24.02
21.77
18.87
15.87
13.28
11.50
10.62
10.36
10.19
9.50
7.87
5.28
2.12
-1.09
-3.90
-6.24
-8.38
-10.76
-13.81
-17.68
-22.22
-27.10
-31.89
-36.08
-39.07
-40.21
-38.90
-34.78
-27.95
-19.00
-9.00
0.82
9.28
15.54
19.18
20.25
19.08
16.19
12.15
7.53
2.87
-1.25
-4.29
-5.87
-5.76
-4.12
-1.42
1.64
4.24
5.68
5.53
3.74
0.64
-3.24
-7.33
-11.25
-14.89
-18.43
-22.21
-26.59
-31.80
-37.93
-44.82
-52.00
-58.70
-63.84
-66.32
-65.31
-60.67
-52.94
-43.22
-32.66
-22.15
-12.05
-2.43
6.63
14.72
21.07
24.80
25.35
22.81
18.01
12.31
7.26
4.15
3.64
5.65
9.38
13.75
17.73
20.77
22.88
24.56
26.41
28.76
31.54
34.23
36.17
